
 # six columns.
 # Omega (column 1); |pulse ft|^2 (2); cross section (Mb) (3); flux (column 5)

  0.0000      0.116743E-11      0.000000E+00      0.000000E+00      0.336904E-07      0.000000E+00
  0.0031      0.119151E-11      0.114898E+03      0.493938E-12      0.339487E-07      0.145942E-21
  0.0063      0.126494E-11      0.218092E+03      0.142810E-10      0.342053E-07      0.223982E-20
  0.0094      0.139132E-11      0.299676E+03      0.187838E-11      0.344644E-07      0.216023E-21
  0.0126      0.157656E-11      0.355309E+03      0.110808E-10      0.347272E-07      0.108301E-20
  0.0157      0.182880E-11      0.385811E+03      0.980112E-11      0.349930E-07      0.888961E-21
  0.0188      0.215825E-11      0.395320E+03     -0.178194E-11      0.352623E-07     -0.158948E-21
  0.0220      0.257705E-11      0.389241E+03      0.444316E-11      0.355349E-07      0.405629E-21
  0.0251      0.309903E-11      0.372794E+03      0.117107E-10      0.358109E-07      0.112494E-20
  0.0283      0.373943E-11      0.350281E+03     -0.489227E-12      0.360903E-07     -0.504063E-22
  0.0314      0.451470E-11      0.324895E+03      0.146086E-10      0.363733E-07      0.163549E-20
  0.0345      0.544210E-11      0.298816E+03      0.126365E-10      0.366598E-07      0.155029E-20
  0.0377      0.653943E-11      0.273428E+03      0.175244E-10      0.369499E-07      0.236817E-20
  0.0408      0.782463E-11      0.249529E+03      0.418215E-11      0.372437E-07      0.624211E-21
  0.0440      0.931538E-11      0.227523E+03      0.839244E-11      0.375413E-07      0.138475E-20
  0.0471      0.110288E-10      0.207556E+03     -0.141465E-11      0.378427E-07     -0.257925E-21
  0.0503      0.129807E-10      0.189618E+03      0.708324E-11      0.381480E-07      0.142503E-20
  0.0534      0.151859E-10      0.173610E+03      0.152822E-11      0.384572E-07      0.338524E-21
  0.0565      0.176568E-10      0.159386E+03     -0.479479E-12      0.387704E-07     -0.116632E-21
  0.0597      0.204037E-10      0.146783E+03      0.273388E-11      0.390878E-07      0.728022E-21
  0.0628      0.234341E-10      0.135635E+03     -0.352944E-11      0.394094E-07     -0.102550E-20
  0.0660      0.267523E-10      0.125783E+03      0.407696E-11      0.397351E-07      0.128792E-20
  0.0691      0.303591E-10      0.117082E+03      0.728018E-11      0.400652E-07      0.249126E-20
  0.0722      0.342512E-10      0.109401E+03      0.445977E-11      0.403998E-07      0.164692E-20
  0.0754      0.384210E-10      0.102622E+03      0.359461E-11      0.407388E-07      0.142699E-20
  0.0785      0.428564E-10      0.966427E+02      0.629975E-13      0.410824E-07      0.267800E-22
  0.0817      0.475402E-10      0.913741E+02      0.114932E-11      0.414307E-07      0.521124E-21
  0.0848      0.524501E-10      0.867387E+02      0.333834E-11      0.417837E-07      0.160814E-20
  0.0879      0.575585E-10      0.826700E+02      0.167199E-11      0.421416E-07      0.852306E-21
  0.0911      0.628324E-10      0.791110E+02      0.761325E-12      0.425044E-07      0.409041E-21
  0.0942      0.682329E-10      0.760137E+02     -0.164628E-11      0.428722E-07     -0.928510E-21
  0.0974      0.737161E-10      0.733374E+02      0.216027E-12      0.432452E-07      0.127386E-21
  0.1005      0.792323E-10      0.710487E+02      0.264660E-11      0.436234E-07      0.162500E-20
  0.1036      0.847267E-10      0.691200E+02      0.392365E-12      0.440070E-07      0.249809E-21
  0.1068      0.901394E-10      0.675299E+02      0.293006E-11      0.443959E-07      0.192630E-20
  0.1099      0.954060E-10      0.662623E+02      0.590138E-12      0.447905E-07      0.398908E-21
  0.1131      0.100458E-09      0.653064E+02     -0.244097E-11      0.451907E-07     -0.168910E-20
  0.1162      0.105223E-09      0.646565E+02     -0.205560E-12      0.455967E-07     -0.144963E-21
  0.1194      0.109627E-09      0.643125E+02      0.558013E-11      0.460086E-07      0.399197E-20
  0.1225      0.113591E-09      0.642796E+02     -0.127583E-11      0.464264E-07     -0.921479E-21
  0.1256      0.117040E-09      0.645698E+02      0.341952E-11      0.468505E-07      0.248113E-20
  0.1288      0.119894E-09      0.652020E+02     -0.216165E-12      0.472808E-07     -0.156751E-21
  0.1319      0.122077E-09      0.662036E+02      0.102226E-11      0.477175E-07      0.736811E-21
  0.1351      0.123516E-09      0.676122E+02     -0.323413E-12      0.481607E-07     -0.230370E-21
  0.1382      0.124143E-09      0.694787E+02      0.250407E-11      0.486106E-07      0.175197E-20
  0.1413      0.123893E-09      0.718699E+02     -0.236623E-11      0.490673E-07     -0.161548E-20
  0.1445      0.122713E-09      0.748746E+02      0.640843E-12      0.495310E-07      0.423930E-21
  0.1476      0.120558E-09      0.786098E+02      0.426871E-12      0.500017E-07      0.271522E-21
  0.1508      0.117396E-09      0.832324E+02      0.106723E-11      0.504798E-07      0.647269E-21
  0.1539      0.113213E-09      0.889537E+02     -0.451892E-12      0.509652E-07     -0.258908E-21
  0.1570      0.108008E-09      0.960638E+02     -0.200515E-11      0.514583E-07     -0.107409E-20
  0.1602      0.101804E-09      0.104968E+03      0.193510E-11      0.519591E-07      0.957875E-21
  0.1633      0.946485E-10      0.116244E+03     -0.112616E-11      0.524678E-07     -0.508302E-21
  0.1665      0.866148E-10      0.130744E+03      0.281677E-12      0.529846E-07      0.114151E-21
  0.1696      0.778081E-10      0.149758E+03      0.793827E-11      0.535097E-07      0.283640E-20
  0.1727      0.683682E-10      0.175323E+03     -0.540720E-12      0.540432E-07     -0.166677E-21
  0.1759      0.584742E-10      0.210809E+03     -0.157349E-10      0.545855E-07     -0.407428E-20
  0.1790      0.483483E-10      0.262133E+03     -0.355510E-11      0.551365E-07     -0.747771E-21
  0.1822      0.382604E-10      0.340484E+03      0.408329E-11      0.556967E-07      0.667948E-21
  0.1853      0.285335E-10      0.469173E+03     -0.513168E-11      0.562662E-07     -0.615422E-21
  0.1884      0.195479E-10      0.703612E+03     -0.911235E-11      0.568451E-07     -0.736191E-21
  0.1916      0.117473E-10      0.120268E+04     -0.337507E-10      0.574338E-07     -0.161176E-20
  0.1947      0.564374E-11      0.257090E+04      0.706515E-10      0.580324E-07      0.159480E-20
  0.1979      0.182396E-11      0.816804E+04     -0.181812E-09      0.586413E-07     -0.130529E-20
  0.2010      0.955106E-12      0.160134E+05     -0.188875E-10      0.592605E-07     -0.698968E-22
  0.2042      0.379126E-11      0.414073E+04     -0.277314E-09      0.598905E-07     -0.401100E-20
  0.2073      0.111800E-10      0.144103E+04     -0.484129E-10      0.605315E-07     -0.203362E-20
  0.2104      0.240693E-10      0.686809E+03     -0.133106E-10      0.611837E-07     -0.118576E-20
  0.2136      0.435146E-10      0.389748E+03     -0.526222E-11      0.618474E-07     -0.835039E-21
  0.2167      0.706864E-10      0.246117E+03      0.968700E-12      0.625229E-07      0.246086E-21
  0.2199      0.106878E-09      0.166951E+03     -0.113388E-11      0.632106E-07     -0.429307E-21
  0.2230      0.153512E-09      0.119201E+03      0.724339E-12      0.639106E-07      0.388361E-21
  0.2261      0.212151E-09      0.884437E+02     -0.152095E-11      0.646234E-07     -0.111132E-20
  0.2293      0.284504E-09      0.676183E+02     -0.180424E-11      0.653493E-07     -0.174370E-20
  0.2324      0.372436E-09      0.529536E+02      0.409597E-12      0.660886E-07      0.511198E-21
  0.2356      0.477978E-09      0.422951E+02      0.130068E-11      0.668417E-07      0.205554E-20
  0.2387      0.603331E-09      0.343440E+02     -0.306319E-12      0.676089E-07     -0.603015E-21
  0.2418      0.750884E-09      0.282816E+02     -0.397136E-12      0.683907E-07     -0.960357E-21
  0.2450      0.923215E-09      0.235726E+02      0.845478E-14      0.691873E-07      0.248154E-22
  0.2481      0.112311E-08      0.198558E+02     -0.116849E-12      0.699993E-07     -0.411936E-21
  0.2513      0.135356E-08      0.168811E+02      0.249201E-12      0.708270E-07      0.104556E-20
  0.2544      0.161778E-08      0.144710E+02     -0.438246E-12      0.716710E-07     -0.217052E-20
  0.2575      0.191923E-08      0.124969E+02      0.168031E-12      0.725315E-07      0.975246E-21
  0.2607      0.226161E-08      0.108643E+02      0.243982E-12      0.734093E-07      0.164857E-20
  0.2638      0.264885E-08      0.950222E+01      0.214102E-12      0.743045E-07      0.167421E-20
  0.2670      0.308520E-08      0.835693E+01     -0.317981E-13      0.752180E-07     -0.286204E-21
  0.2701      0.357513E-08      0.738695E+01     -0.201726E-12      0.761499E-07     -0.207953E-20
  0.2733      0.412343E-08      0.656011E+01     -0.147446E-12      0.771013E-07     -0.173294E-20
  0.2764      0.473519E-08      0.585100E+01     -0.437662E-13      0.780722E-07     -0.583990E-21
  0.2795      0.541581E-08      0.523953E+01     -0.155516E-12      0.790637E-07     -0.234671E-20
  0.2827      0.617101E-08      0.470952E+01     -0.111017E-12      0.800759E-07     -0.188763E-20
  0.2858      0.700684E-08      0.424798E+01     -0.171555E-12      0.811100E-07     -0.327564E-20
  0.2890      0.792971E-08      0.384425E+01     -0.464023E-13      0.821661E-07     -0.991790E-21
  0.2921      0.894638E-08      0.348968E+01      0.635951E-13      0.832455E-07      0.151705E-20
  0.2952      0.100640E-07      0.317703E+01     -0.222456E-13      0.843481E-07     -0.590607E-21
  0.2984      0.112901E-07      0.290040E+01     -0.274227E-13      0.854758E-07     -0.808155E-21
  0.3015      0.126326E-07      0.265477E+01      0.370356E-13      0.866281E-07      0.120851E-20
  0.3047      0.140998E-07      0.243601E+01      0.140673E-13      0.878071E-07      0.507062E-21
  0.3078      0.157004E-07      0.224055E+01     -0.232780E-13      0.890123E-07     -0.924788E-21
  0.3109      0.174437E-07      0.206544E+01     -0.210140E-14      0.902461E-07     -0.918170E-22
  0.3141      0.193393E-07      0.190812E+01      0.227679E-14      0.915077E-07      0.109188E-21
  0.3172      0.213973E-07      0.176644E+01     -0.540853E-13      0.928001E-07     -0.284137E-20
  0.3204      0.236282E-07      0.163851E+01     -0.622075E-14      0.941220E-07     -0.357342E-21
  0.3235      0.260430E-07      0.152277E+01     -0.327444E-13      0.954770E-07     -0.205306E-20
  0.3266      0.286534E-07      0.141777E+01     -0.220352E-13      0.968635E-07     -0.150547E-20
  0.3298      0.314714E-07      0.132237E+01     -0.644824E-13      0.982856E-07     -0.479268E-20
  0.3329      0.345095E-07      0.123547E+01     -0.315374E-13      0.997413E-07     -0.254606E-20
  0.3361      0.377808E-07      0.115620E+01      0.149643E-13      0.101235E-06      0.131025E-20
  0.3392      0.412990E-07      0.108373E+01      0.326246E-13      0.102765E-06      0.309366E-20
  0.3423      0.450782E-07      0.101739E+01      0.115825E-13      0.104337E-06      0.118783E-20
  0.3455      0.491332E-07      0.956517E+00     -0.660174E-14      0.105947E-06     -0.731228E-21
  0.3486      0.534794E-07      0.900622E+00      0.140408E-13      0.107601E-06      0.167752E-20
  0.3518      0.581327E-07      0.849170E+00      0.175834E-13      0.109297E-06      0.226317E-20
  0.3549      0.631095E-07      0.801785E+00     -0.905465E-14      0.111042E-06     -0.125401E-20
  0.3581      0.684271E-07      0.758037E+00     -0.522389E-15      0.112830E-06     -0.777550E-22
  0.3612      0.741031E-07      0.717640E+00     -0.861398E-14      0.114672E-06     -0.137643E-20
  0.3643      0.801559E-07      0.680239E+00     -0.223991E-14      0.116560E-06     -0.383812E-21
  0.3675      0.866045E-07      0.645621E+00     -0.164305E-13      0.118507E-06     -0.301590E-20
  0.3706      0.934686E-07      0.613488E+00     -0.112186E-13      0.120504E-06     -0.220361E-20
  0.3738      0.100768E-06      0.583680E+00     -0.173878E-13      0.122564E-06     -0.365118E-20
  0.3769      0.108525E-06      0.555947E+00     -0.166127E-13      0.124679E-06     -0.372562E-20
  0.3800      0.116760E-06      0.530169E+00      0.421045E-14      0.126863E-06      0.100751E-20
  0.3832      0.125495E-06      0.506133E+00      0.221808E-14      0.129105E-06      0.565792E-21
  0.3863      0.134755E-06      0.483752E+00      0.147975E-14      0.131423E-06      0.402010E-21
  0.3895      0.144561E-06      0.462841E+00      0.679839E-14      0.133805E-06      0.196538E-20
  0.3926      0.154939E-06      0.443340E+00      0.242204E-15      0.136270E-06      0.744463E-22
  0.3957      0.165914E-06      0.425086E+00      0.323242E-14      0.138803E-06      0.105548E-20
  0.3989      0.177511E-06      0.408037E+00     -0.931701E-14      0.141427E-06     -0.322931E-20
  0.4020      0.189758E-06      0.392054E+00     -0.707879E-14      0.144127E-06     -0.260231E-20
  0.4052      0.202680E-06      0.377105E+00     -0.838620E-14      0.146925E-06     -0.326736E-20
  0.4083      0.216306E-06      0.363075E+00     -0.854029E-14      0.149807E-06     -0.352379E-20
  0.4114      0.230665E-06      0.349932E+00     -0.668354E-14      0.152794E-06     -0.291829E-20
  0.4146      0.245786E-06      0.337590E+00     -0.758142E-14      0.155878E-06     -0.350063E-20
  0.4177      0.261699E-06      0.326006E+00     -0.101580E-13      0.159070E-06     -0.495647E-20
  0.4209      0.278435E-06      0.315130E+00     -0.882301E-14      0.162376E-06     -0.454618E-20
  0.4240      0.296025E-06      0.304897E+00     -0.149689E-13      0.165790E-06     -0.813946E-20
  0.4271      0.314501E-06      0.295303E+00      0.375041E-14      0.169341E-06      0.215067E-20
  0.4303      0.333897E-06      0.286238E+00     -0.107851E-14      0.172994E-06     -0.651818E-21
  0.4334      0.354245E-06      0.277775E+00      0.384641E-15      0.176819E-06      0.244845E-21
  0.4366      0.375581E-06      0.269715E+00     -0.366901E-14      0.180720E-06     -0.245838E-20
  0.4397      0.397938E-06      0.262257E+00     -0.109844E-14      0.184853E-06     -0.774241E-21
  0.4429      0.421354E-06      0.255051E+00     -0.592505E-14      0.189002E-06     -0.439067E-20
  0.4460      0.445864E-06      0.248499E+00     -0.185702E-14      0.193486E-06     -0.144591E-20
  0.4491      0.471505E-06      0.241984E+00     -0.514738E-14      0.197856E-06     -0.420869E-20
  0.4523      0.498315E-06      0.236272E+00     -0.649692E-14      0.202752E-06     -0.557520E-20
  0.4554      0.526332E-06      0.230248E+00     -0.554685E-14      0.207252E-06     -0.499286E-20
  0.4586      0.555596E-06      0.225358E+00     -0.821514E-14      0.212662E-06     -0.775234E-20
  0.4617      0.586146E-06      0.219507E+00     -0.829874E-14      0.217044E-06     -0.820563E-20
  0.4648      0.618022E-06      0.215540E+00     -0.104038E-13      0.223193E-06     -0.107732E-19
  0.4680      0.651266E-06      0.209198E+00     -0.866953E-14      0.226746E-06     -0.939677E-20
  0.4711      0.685919E-06      0.206708E+00      0.250938E-14      0.234395E-06      0.284550E-20
  0.4743      0.722022E-06      0.197953E+00     -0.697615E-15      0.234719E-06     -0.827181E-21
  0.4774      0.759619E-06      0.200795E+00      0.758255E-15      0.248838E-06      0.939677E-21
  0.4805      0.798753E-06      0.181017E+00     -0.135458E-15      0.234343E-06     -0.175362E-21
  0.4837      0.839468E-06      0.397172E+00     -0.449405E-14      0.536875E-06     -0.607481E-20
  0.4868      0.881808E-06      0.505519E+00     -0.771150E-14      0.713167E-06     -0.108791E-19
  0.4900      0.925817E-06      0.285528E+00     -0.459546E-14      0.420204E-06     -0.676303E-20
  0.4931      0.971542E-06      0.228642E+00     -0.588640E-14      0.350855E-06     -0.903281E-20
  0.4962      0.101903E-05      0.220399E+00     -0.505203E-14      0.352493E-06     -0.807990E-20
  0.4994      0.106832E-05      0.212166E+00     -0.713712E-14      0.353502E-06     -0.118915E-19
  0.5025      0.111947E-05      0.207193E+00     -0.842909E-14      0.359482E-06     -0.146246E-19
  0.5057      0.117251E-05      0.206355E+00     -0.856707E-14      0.372664E-06     -0.154716E-19
  0.5088      0.122751E-05      0.201285E+00     -0.955477E-14      0.378209E-06     -0.179531E-19
  0.5120      0.128450E-05      0.204011E+00     -0.892984E-14      0.398668E-06     -0.174502E-19
  0.5151      0.134353E-05      0.197534E+00      0.149842E-15      0.401288E-06      0.304402E-21
  0.5182      0.140466E-05      0.203322E+00     -0.107488E-13      0.429221E-06     -0.226912E-19
  0.5214      0.146792E-05      0.193420E+00     -0.796688E-15      0.424137E-06     -0.174701E-20
  0.5245      0.153338E-05      0.202671E+00     -0.137877E-13      0.461461E-06     -0.313932E-19
  0.5277      0.160107E-05      0.184608E+00     -0.323975E-14      0.436276E-06     -0.765638E-20
  0.5308      0.167105E-05      0.197946E+00     -0.154967E-13      0.485356E-06     -0.379974E-19
  0.5339      0.174336E-05      0.157179E+00     -0.290145E-14      0.399709E-06     -0.737845E-20
  0.5371      0.181807E-05      0.172333E+00      0.681703E-14      0.454354E-06      0.179730E-19
  0.5402      0.189520E-05      0.404510E-01     -0.930606E-15      0.110527E-06     -0.254275E-20
  0.5434      0.197482E-05      0.694672E-02      0.790158E-15      0.196641E-07      0.223670E-20
  0.5465      0.205698E-05     -0.122487E+01      0.483615E-13     -0.359073E-05      0.141772E-18
  0.5496      0.214172E-05     -0.323374E+01     -0.440286E-13     -0.981386E-05     -0.133619E-18
  0.5528      0.222909E-05     -0.172701E+01      0.814483E-13     -0.542401E-05      0.255804E-18
  0.5559      0.231914E-05      0.362170E+00      0.488807E-16      0.117673E-05      0.158819E-21
  0.5591      0.241192E-05      0.637698E+00     -0.352446E-13      0.214274E-05     -0.118426E-18
  0.5622      0.250748E-05      0.137972E+01     -0.408432E-14      0.479277E-05     -0.141878E-19
  0.5653      0.260587E-05      0.225192E+01     -0.143572E-12      0.808433E-05     -0.515420E-18
  0.5685      0.270713E-05      0.818414E+01     -0.886116E-13      0.303539E-04     -0.328649E-18
  0.5716      0.281132E-05      0.182232E+02     -0.130998E-11      0.698030E-04     -0.501782E-17
  0.5748      0.291847E-05      0.203807E+02     -0.392383E-12      0.806002E-04     -0.155176E-17
  0.5779      0.302865E-05      0.156173E+02     -0.125175E-11      0.637454E-04     -0.510930E-17
  0.5810      0.314189E-05      0.120305E+02     -0.330451E-12      0.506656E-04     -0.139168E-17
  0.5842      0.325824E-05      0.114596E+02      0.288394E-12      0.497794E-04      0.125276E-17
  0.5873      0.337775E-05      0.117404E+02     -0.420381E-12      0.525870E-04     -0.188295E-17
  0.5905      0.350046E-05      0.122610E+02      0.207301E-12      0.566117E-04      0.957147E-18
  0.5936      0.362641E-05      0.128593E+02     -0.566466E-12      0.611847E-04     -0.269526E-17
  0.5968      0.375566E-05      0.128931E+02      0.111287E-12      0.631974E-04      0.545489E-18
  0.5999      0.388823E-05      0.129203E+02     -0.677207E-12      0.652233E-04     -0.341862E-17
  0.6030      0.402418E-05      0.125459E+02      0.456322E-14      0.652062E-04      0.237169E-19
  0.6062      0.416354E-05      0.123333E+02     -0.748302E-12      0.659778E-04     -0.400308E-17
  0.6093      0.430636E-05      0.120157E+02     -0.957130E-13      0.661405E-04     -0.526854E-18
  0.6125      0.445267E-05      0.118663E+02     -0.818258E-12      0.671915E-04     -0.463327E-17
  0.6156      0.460252E-05      0.117019E+02     -0.189973E-12      0.681405E-04     -0.110623E-17
  0.6187      0.475594E-05      0.116239E+02     -0.897599E-12      0.695880E-04     -0.537358E-17
  0.6219      0.491296E-05      0.115363E+02     -0.283031E-12      0.709830E-04     -0.174150E-17
  0.6250      0.507363E-05      0.114592E+02     -0.979624E-12      0.724489E-04     -0.619350E-17
  0.6282      0.523797E-05      0.113775E+02     -0.372750E-12      0.738912E-04     -0.242082E-17
