
 # Omega; pulse ft; projected flux at t=    1000.2500000000000     
    0.000000000000         0.10847490E-10      0.00000000E+00      0.00000000E+00      0.30127654E-13      0.32311743E-26
    0.003140022642         0.11093634E-10      0.21973441E-04      0.36865655E-17      0.30231637E-13      0.50720736E-26
    0.006280045285         0.11830642E-10      0.41410715E-04     -0.26587798E-17      0.30379513E-13     -0.19505202E-26
    0.009420067927         0.13054251E-10      0.56637713E-04      0.84839942E-17      0.30565125E-13      0.45784747E-26
    0.012560090569         0.14757372E-10      0.67211659E-04      0.16068527E-16      0.30752712E-13      0.73521590E-26
    0.015700113211         0.16930121E-10      0.73699216E-04     -0.14653909E-16      0.30948720E-13     -0.61536574E-26
    0.018840135854         0.19559852E-10      0.76987862E-04      0.77910442E-17      0.31126217E-13      0.31499216E-26
    0.021980158496         0.22631207E-10      0.78069619E-04      0.33533746E-17      0.31302678E-13      0.13445641E-26
    0.025120181138         0.26126176E-10      0.77821983E-04     -0.11548352E-16      0.31519398E-13     -0.46773042E-26
    0.028260203780         0.30024165E-10      0.76701538E-04      0.11519563E-16      0.31733814E-13      0.47660018E-26
    0.031400226423         0.34302079E-10      0.75063992E-04      0.41240603E-17      0.31933158E-13      0.17544267E-26
    0.034540249065         0.38934408E-10      0.73215072E-04     -0.13684614E-16      0.32138910E-13     -0.60070772E-26
    0.037680271707         0.43893332E-10      0.71304533E-04      0.10920981E-16      0.32346270E-13      0.49541451E-26
    0.040820294349         0.49148832E-10      0.69438972E-04      0.11333369E-17      0.32558388E-13      0.53139643E-27
    0.043960316992         0.54668813E-10      0.67665975E-04     -0.78473096E-18      0.32769644E-13     -0.38003374E-27
    0.047100339634         0.60419233E-10      0.66031147E-04      0.13790231E-16      0.32985461E-13      0.68888265E-26
    0.050240362276         0.66364250E-10      0.64548509E-04      0.86721957E-18      0.33203984E-13      0.44610084E-27
    0.053380384919         0.72466374E-10      0.63230574E-04     -0.49186192E-17      0.33427546E-13     -0.26002828E-26
    0.056520407561         0.78686628E-10      0.62067265E-04      0.15544090E-16      0.33649670E-13      0.84272038E-26
    0.059660430203         0.84984724E-10      0.61071091E-04      0.89363378E-17      0.33877606E-13      0.49572019E-26
    0.062800452845         0.91319245E-10      0.60228411E-04      0.10831951E-16      0.34105427E-13      0.61337880E-26
    0.065940475488         0.97647837E-10      0.59546885E-04     -0.21524550E-17      0.34339356E-13     -0.12412726E-26
    0.069080498130         0.10392742E-09      0.59011836E-04      0.12836428E-16      0.34572942E-13      0.75204082E-26
    0.072220520772         0.11011438E-09      0.58632215E-04     -0.23399980E-17      0.34813064E-13     -0.13893813E-26
    0.075360543414         0.11616481E-09      0.58393123E-04      0.95779063E-17      0.35052162E-13      0.57494155E-26
    0.078500566057         0.12203475E-09      0.58306848E-04      0.75183779E-17      0.35298223E-13      0.45515302E-26
    0.081640588699         0.12768041E-09      0.58360363E-04     -0.80271020E-17      0.35543374E-13     -0.48887682E-26
    0.084780611341         0.13305840E-09      0.58568426E-04      0.46733756E-17      0.35795781E-13      0.28562681E-26
    0.087920633984         0.13812604E-09      0.58920182E-04     -0.83489700E-18      0.36047187E-13     -0.51078744E-27
    0.091060656626         0.14284161E-09      0.59433677E-04     -0.11263413E-16      0.36306059E-13     -0.68804448E-26
    0.094200679268         0.14716459E-09      0.60101260E-04      0.11968888E-16      0.36564145E-13      0.72815806E-26
    0.097340701910         0.15105600E-09      0.60944596E-04      0.67846722E-17      0.36829962E-13      0.41001046E-26
    0.100480724553         0.15447866E-09      0.61958871E-04      0.29778347E-17      0.37094694E-13      0.17828256E-26
    0.103620747195         0.15739751E-09      0.63171201E-04      0.93525621E-17      0.37367394E-13      0.55322815E-26
    0.106760769837         0.15977989E-09      0.64581423E-04      0.75222357E-17      0.37639217E-13      0.43840945E-26
    0.109900792479         0.16159592E-09      0.66222646E-04     -0.50243987E-17      0.37919154E-13     -0.28769757E-26
    0.113040815122         0.16281876E-09      0.68100878E-04      0.10146470E-16      0.38198333E-13      0.56912370E-26
    0.116180837764         0.16342499E-09      0.70257463E-04      0.24899402E-17      0.38485663E-13      0.13639405E-26
    0.119320860406         0.16339494E-09      0.72707839E-04     -0.42063839E-17      0.38772696E-13     -0.22431260E-26
    0.122460883048         0.16271302E-09      0.75504581E-04      0.22037944E-16      0.39067962E-13      0.11402984E-25
    0.125600905691         0.16136811E-09      0.78675414E-04      0.13173446E-16      0.39362848E-13      0.65909329E-26
    0.128740928333         0.15935390E-09      0.82290694E-04      0.27461470E-17      0.39666084E-13      0.13237086E-26
    0.131880950975         0.15666928E-09      0.86397703E-04      0.75028936E-18      0.39969298E-13      0.34709880E-27
    0.135020973618         0.15331870E-09      0.91092621E-04      0.18083957E-16      0.40280942E-13      0.79966830E-26
    0.138160996260         0.14931255E-09      0.96452226E-04     -0.20687980E-16      0.40592486E-13     -0.87066578E-26
    0.141301018902         0.14466758E-09      0.10261317E-03      0.20013261E-17      0.40912082E-13      0.79793281E-27
    0.144441041544         0.13940727E-09      0.10970695E-03      0.76965124E-17      0.41233624E-13      0.28927529E-26
    0.147581064187         0.13356225E-09      0.11793381E-03      0.44733095E-17      0.41563679E-13      0.15765385E-26
    0.150721086829         0.12717068E-09      0.12750133E-03      0.16353385E-16      0.41893849E-13      0.53733261E-26
    0.153861109471         0.12027870E-09      0.13872831E-03     -0.10490886E-16      0.42232569E-13     -0.31937034E-26
    0.157001132113         0.11294082E-09      0.15197273E-03     -0.55643787E-17      0.42573207E-13     -0.15587891E-26
    0.160141154756         0.10522036E-09      0.16774919E-03      0.11994620E-16      0.42921982E-13      0.30690634E-26
    0.163281177398         0.97189861E-10      0.18668452E-03      0.31102244E-16      0.43272868E-13      0.72093998E-26
    0.166421200040         0.88931555E-10      0.20967337E-03     -0.27130742E-16      0.43632797E-13     -0.56458775E-26
    0.169561222683         0.80537758E-10      0.23785067E-03      0.22603764E-17      0.43994655E-13      0.41809628E-27
    0.172701245325         0.72111337E-10      0.27283777E-03      0.39810839E-16      0.44364452E-13      0.64733926E-26
    0.175841267967         0.63766150E-10      0.31679832E-03     -0.25964181E-16      0.44737818E-13     -0.36666255E-26
    0.178981290609         0.55627495E-10      0.37279594E-03     -0.48100810E-17      0.45120675E-13     -0.58217935E-27
    0.182121313252         0.47832561E-10      0.44491834E-03      0.82566087E-16      0.45505691E-13      0.84447560E-26
    0.185261335894         0.40530887E-10      0.53874949E-03     -0.65175976E-16      0.45899793E-13     -0.55527919E-26
    0.188401358536         0.33884816E-10      0.66099957E-03     -0.12738532E-16      0.46296144E-13     -0.89220168E-27
    0.191541381178         0.28069961E-10      0.81835246E-03      0.11485435E-15      0.46702715E-13      0.65546453E-26
    0.194681403821         0.23275664E-10      0.10118877E-02     -0.51423186E-16      0.47112102E-13     -0.23941928E-26
    0.197821426463         0.19705465E-10      0.12253081E-02      0.10218816E-15      0.47531468E-13      0.39640260E-26
    0.200961449105         0.17577570E-10      0.14078903E-02      0.27089832E-15      0.47955391E-13      0.92273060E-26
    0.204101471747         0.17125315E-10      0.14808974E-02     -0.15205059E-15      0.48388255E-13     -0.49682460E-26
    0.207241494390         0.18597645E-10      0.13972496E-02      0.16532746E-15      0.48828994E-13      0.57776173E-26
    0.210381517032         0.22259579E-10      0.11959419E-02      0.35000035E-15      0.49276743E-13      0.14421166E-25
    0.213521539674         0.28392684E-10      0.96044221E-03     -0.31778064E-16      0.49734590E-13     -0.16455638E-26
    0.216661562317         0.37295552E-10      0.74883627E-03      0.39552253E-16      0.50197789E-13      0.26513615E-26
    0.219801584959         0.49284270E-10      0.58033123E-03      0.56185072E-16      0.50672927E-13      0.49059260E-26
    0.222941607601         0.64692893E-10      0.45267377E-03     -0.29201174E-16      0.51153260E-13     -0.32998052E-26
    0.226081630243         0.83873922E-10      0.35748117E-03      0.55094390E-17      0.51646084E-13      0.79596065E-27
    0.229221652886         0.10719877E-09      0.28631096E-03      0.52468112E-16      0.52142841E-13      0.95554721E-26
    0.232361675528         0.13505825E-09      0.23261501E-03     -0.28208791E-16      0.52652245E-13     -0.63850402E-26
    0.235501698170         0.16786301E-09      0.19153283E-03      0.78267390E-17      0.53165114E-13      0.21725229E-26
    0.238641720812         0.20604406E-09      0.15968732E-03      0.39275309E-17      0.53691646E-13      0.13205532E-26
    0.241781743455         0.25005319E-09      0.13462962E-03     -0.15585414E-16      0.54221565E-13     -0.62769662E-26
    0.244921766097         0.30036346E-09      0.11467612E-03      0.44433493E-18      0.54766531E-13      0.21220358E-27
    0.248061788739         0.35746965E-09      0.98568368E-04      0.94520562E-17      0.55314554E-13      0.53043007E-26
    0.251201811381         0.42188874E-09      0.85438082E-04     -0.13530634E-16      0.55879074E-13     -0.88494416E-26
    0.254341834024         0.49416037E-09      0.74603946E-04     -0.86954853E-18      0.56446167E-13     -0.65790999E-27
    0.257481856666         0.57484728E-09      0.65597195E-04     -0.52335610E-17      0.57031351E-13     -0.45501497E-26
    0.260621879308         0.66453577E-09      0.58027148E-04     -0.33589642E-17      0.57618409E-13     -0.33353039E-26
    0.263761901951         0.76383615E-09      0.51632346E-04      0.17137830E-17      0.58228090E-13      0.19327092E-26
    0.266901924593         0.87338321E-09      0.46172898E-04      0.17580981E-17      0.58838665E-13      0.22403650E-26
    0.270041947235         0.99383660E-09      0.41491897E-04     -0.12912851E-17      0.59466119E-13     -0.18506677E-26
    0.273181969877         0.11258814E-08      0.37444927E-04      0.43086256E-17      0.60097461E-13      0.69151547E-26
    0.276321992520         0.12702283E-08      0.33937180E-04      0.24950626E-17      0.60752563E-13      0.44665304E-26
    0.279462015162         0.14276143E-08      0.30868781E-04      0.11848691E-17      0.61408731E-13      0.23571164E-26
    0.282602037804         0.15988030E-08      0.28182547E-04     -0.19765021E-18      0.62090115E-13     -0.43545122E-27
    0.285742060446         0.17845852E-08      0.25809767E-04      0.10002974E-17      0.62772547E-13      0.24328470E-26
    0.288882083089         0.19857789E-08      0.23714574E-04     -0.15913341E-18      0.63481642E-13     -0.42598489E-27
    0.292022105731         0.22032301E-08      0.21848300E-04      0.28234776E-17      0.64192504E-13      0.82956613E-26
    0.295162128373         0.24378129E-08      0.20187649E-04      0.24085165E-17      0.64930392E-13      0.77466141E-26
    0.298302151016         0.26904304E-08      0.18698151E-04     -0.54982429E-18      0.65672958E-13     -0.19311315E-26
    0.301442173658         0.29620145E-08      0.17362838E-04      0.92605008E-18      0.66439512E-13      0.35435632E-26
    0.304582196300         0.32535265E-08      0.16158823E-04     -0.39748371E-18      0.67217460E-13     -0.16534525E-26
    0.307722218942         0.35659575E-08      0.15072328E-04     -0.15980921E-17      0.68017425E-13     -0.72117664E-26
    0.310862241585         0.39003290E-08      0.14086125E-04      0.11217716E-17      0.68825179E-13      0.54810056E-26
    0.314002264227         0.42576927E-08      0.13193719E-04     -0.18226202E-19      0.69667672E-13     -0.96241030E-28
    0.317142286869         0.46391314E-08      0.12377600E-04      0.21575597E-18      0.70508505E-13      0.12290453E-26
    0.320282309511         0.50457590E-08      0.11636531E-04     -0.21139084E-18      0.71390366E-13     -0.12968873E-26
    0.323422332154         0.54787210E-08      0.10955621E-04      0.67731697E-18      0.72271773E-13      0.44681082E-26
    0.326562354796         0.59391947E-08      0.10334481E-04     -0.13403754E-17      0.73193525E-13     -0.94931521E-26
    0.329702377438         0.64283897E-08      0.97617010E-05      0.77755577E-18      0.74118764E-13      0.59038350E-26
    0.332842400080         0.69475481E-08      0.92371967E-05      0.61935803E-18      0.75085426E-13      0.50345103E-26
    0.335982422723         0.74979446E-08      0.87511081E-05     -0.48907989E-18      0.76052109E-13     -0.42503826E-26
    0.339122445365         0.80808871E-08      0.83067998E-05      0.86592256E-18      0.77083033E-13      0.80353372E-26
    0.342262468007         0.86977170E-08      0.78874361E-05      0.41801761E-18      0.78055658E-13      0.41367866E-26
    0.345402490650         0.93498090E-08      0.75111454E-05     -0.40410514E-20      0.79178266E-13     -0.42598489E-28
    0.348542513292         0.10038572E-07      0.71547230E-05     -0.41412315E-18      0.80247506E-13     -0.46448130E-26
    0.351682535934         0.10765449E-07      0.68235536E-05      0.46799241E-18      0.81341932E-13      0.55788243E-26
    0.354822558576         0.11531917E-07      0.65177203E-05     -0.11266524E-17      0.82491373E-13     -0.14259450E-25
    0.357962581219         0.12339487E-07      0.62321563E-05      0.26326700E-19      0.83660481E-13      0.35340969E-27
    0.361102603861         0.13189707E-07      0.59664405E-05      0.41705295E-19      0.84867693E-13      0.59322340E-27
    0.364242626503         0.14084158E-07      0.57184169E-05     -0.32040939E-18      0.86107006E-13     -0.48246733E-26
    0.367382649145         0.15024457E-07      0.54863698E-05      0.20051102E-18      0.87375118E-13      0.31933089E-26
    0.370522671788         0.16012256E-07      0.52702102E-05     -0.14812461E-18      0.88692773E-13     -0.24928005E-26
    0.373662694430         0.17049243E-07      0.50669436E-05     -0.19428078E-18      0.90031394E-13     -0.34520553E-26
    0.376802717072         0.18137141E-07      0.48777041E-05     -0.59591779E-19      0.91430857E-13     -0.11170270E-26
    0.379942739715         0.19277708E-07      0.46991084E-05      0.85438655E-19      0.92848580E-13      0.16881623E-26
    0.383082762357         0.20472742E-07      0.45328781E-05     -0.39375532E-18      0.94336548E-13     -0.81946871E-26
    0.386222784999         0.21724071E-07      0.43755094E-05     -0.39197927E-18      0.95841696E-13     -0.85859621E-26
    0.389362807641         0.23033564E-07      0.42291238E-05      0.49446824E-19      0.97427065E-13      0.11391151E-26
    0.392502830284         0.24403125E-07      0.40901050E-05     -0.34432460E-18      0.99028374E-13     -0.83366820E-26
    0.395642852926         0.25834693E-07      0.39609779E-05     -0.31022580E-19      0.10072214E-12     -0.78886091E-27
    0.398782875568         0.27330244E-07      0.38379084E-05      0.23232365E-18      0.10242929E-12      0.62004467E-26
    0.401922898210         0.28891791E-07      0.37238871E-05     -0.22848617E-18      0.10424393E-12     -0.63960842E-26
    0.405062920853         0.30521384E-07      0.36147745E-05      0.14194826E-19      0.10606827E-12      0.41651856E-27
    0.408202943495         0.32221107E-07      0.35140919E-05      0.23189414E-18      0.10801896E-12      0.71281471E-26
    0.411342966137         0.33993084E-07      0.34172690E-05     -0.95893737E-19      0.10997354E-12     -0.30860239E-26
    0.414482988779         0.35839473E-07      0.33285382E-05      0.10167466E-18      0.11208074E-12      0.34236563E-26
    0.417623011422         0.37762468E-07      0.32424217E-05      0.15072591E-18      0.11417420E-12      0.53074562E-26
    0.420763034064         0.39764301E-07      0.31646329E-05     -0.13375398E-18      0.11646667E-12     -0.49224920E-26
    0.423903056706         0.41847240E-07      0.30880371E-05      0.15398217E-18      0.11871492E-12      0.59196122E-26
    0.427043079349         0.44013589E-07      0.30202225E-05      0.32201992E-18      0.12122064E-12      0.12924697E-25
    0.430183101991         0.46265688E-07      0.29521876E-05     -0.43471840E-19      0.12364375E-12     -0.18206910E-26
    0.433323124633         0.48605914E-07      0.28937941E-05     -0.20226404E-20      0.12640592E-12     -0.88352421E-28
    0.436463147275         0.51036678E-07      0.28333404E-05     -0.72136288E-19      0.12901973E-12     -0.32848168E-26
    0.439603169918         0.53560430E-07      0.27842220E-05     -0.19140154E-18      0.13210207E-12     -0.90813667E-26
    0.442743192560         0.56179653E-07      0.27304075E-05     -0.27203221E-19      0.13492026E-12     -0.13442190E-26
    0.445883215202         0.58896866E-07      0.26909683E-05      0.23310437E-19      0.13842106E-12      0.11990686E-26
    0.449023237844         0.61714624E-07      0.26428499E-05     -0.14844799E-18      0.14145370E-12     -0.79454070E-26
    0.452163260487         0.64635518E-07      0.26142143E-05     -0.13094047E-18      0.14552570E-12     -0.72890748E-26
    0.455303283129         0.67662171E-07      0.25705863E-05     -0.17567836E-18      0.14876469E-12     -0.10166839E-25
    0.458443305771         0.70797244E-07      0.25562334E-05     -0.15866786E-18      0.15372828E-12     -0.95420615E-26
    0.461583328413         0.74043431E-07      0.25150510E-05     -0.10779432E-18      0.15711070E-12     -0.67337167E-26
    0.464723351056         0.77403460E-07      0.25224962E-05     -0.32886579E-19      0.16361343E-12     -0.21330799E-26
    0.467863373698         0.80880094E-07      0.24796353E-05     -0.98244119E-19      0.16692944E-12     -0.66138098E-26
    0.471003396340         0.84476127E-07      0.25313129E-05     -0.13011292E-19      0.17679840E-12     -0.90876776E-27
    0.474143418983         0.88194391E-07      0.24745446E-05     -0.11561324E-18      0.17924583E-12     -0.83745474E-26
    0.477283441625         0.92037747E-07      0.26646934E-05     -0.38909823E-19      0.20010568E-12     -0.29219408E-26
    0.480423464267         0.96009090E-07      0.25320008E-05      0.19786527E-19      0.19704913E-12      0.15398565E-26
    0.483563486909         0.10011135E-06      0.41040673E-05     -0.92367690E-20      0.33087718E-12     -0.74468469E-27
    0.486703509552         0.10434748E-06      0.52442093E-05     -0.57144205E-19      0.43784464E-12     -0.47710308E-26
    0.489843532194         0.10872047E-06      0.25326599E-05      0.11317373E-18      0.21890384E-12      0.97818752E-26
    0.492983554836         0.11323336E-06      0.18037913E-05      0.52986577E-19      0.16134324E-12      0.47394763E-26
    0.496123577478         0.11788918E-06      0.20978810E-05      0.93229277E-19      0.19412768E-12      0.86269829E-26
    0.499263600121         0.12269102E-06      0.20545878E-05      0.25125225E-19      0.19662111E-12      0.24044480E-26
    0.502403622763         0.12764201E-06      0.21250767E-05     -0.90448892E-19      0.21025097E-12     -0.89488381E-26
    0.505543645405         0.13274526E-06      0.21363366E-05     -0.77455315E-19      0.21845028E-12     -0.79201635E-26
    0.508683668048         0.13800397E-06      0.21507431E-05     -0.73891381E-19      0.22722435E-12     -0.78065675E-26
