
 # Omega; pulse ft; projected flux at t=    1000.2500000000000     
    0.000000000000         0.10847490E-10      0.00000000E+00      0.00000000E+00      0.16236991E-10      0.19852335E-22
    0.003140022642         0.11093634E-10      0.11841966E-01      0.13544204E-14      0.16292487E-10      0.18634472E-23
    0.006280045285         0.11830642E-10      0.22283103E-01     -0.15367354E-13      0.16347214E-10     -0.11273718E-22
    0.009420067927         0.13054251E-10      0.30395757E-01      0.14135767E-13      0.16403383E-10      0.76285121E-23
    0.012560090569         0.14757372E-10      0.35971850E-01      0.54046432E-14      0.16458929E-10      0.24728959E-23
    0.015700113211         0.16930121E-10      0.39329547E-01      0.10878704E-13      0.16515768E-10      0.45683251E-23
    0.018840135854         0.19559852E-10      0.40989697E-01     -0.62904653E-14      0.16572147E-10     -0.25432371E-23
    0.021980158496         0.22631207E-10      0.41474767E-01     -0.29040073E-13      0.16629661E-10     -0.11643865E-22
    0.025120181138         0.26126176E-10      0.41200260E-01     -0.19390489E-14      0.16686897E-10     -0.78535205E-24
    0.028260203780         0.30024165E-10      0.40473350E-01     -0.61990612E-15      0.16745085E-10     -0.25647446E-24
    0.031400226423         0.34302079E-10      0.39498622E-01     -0.24690838E-13      0.16803206E-10     -0.10503790E-22
    0.034540249065         0.38934408E-10      0.38413162E-01     -0.63014422E-13      0.16862063E-10     -0.27661174E-22
    0.037680271707         0.43893332E-10      0.37301102E-01     -0.15225520E-13      0.16921106E-10     -0.69068369E-23
    0.040820294349         0.49148832E-10      0.36215442E-01     -0.37718312E-13      0.16980615E-10     -0.17685277E-22
    0.043960316992         0.54668813E-10      0.35187169E-01     -0.55210448E-13      0.17040632E-10     -0.26737614E-22
    0.047100339634         0.60419233E-10      0.34232732E-01     -0.32055223E-14      0.17100755E-10     -0.16012993E-23
    0.050240362276         0.66364250E-10      0.33362552E-01     -0.51747248E-13      0.17161816E-10     -0.26618969E-22
    0.053380384919         0.72466374E-10      0.32577607E-01     -0.29083356E-13      0.17222514E-10     -0.15375240E-22
    0.056520407561         0.78686628E-10      0.31881752E-01     -0.13098653E-13      0.17284642E-10     -0.71014142E-23
    0.059660430203         0.84984724E-10      0.31269567E-01     -0.30344276E-13      0.17345982E-10     -0.16832701E-22
    0.062800452845         0.91319245E-10      0.30743459E-01     -0.29797359E-13      0.17409039E-10     -0.16873293E-22
    0.065940475488         0.97647837E-10      0.30296377E-01      0.12106343E-13      0.17471243E-10      0.69814569E-23
    0.069080498130         0.10392742E-09      0.29930215E-01      0.54430092E-14      0.17535052E-10      0.31888661E-23
    0.072220520772         0.11011438E-09      0.29638995E-01      0.12388936E-13      0.17598247E-10      0.73559702E-23
    0.075360543414         0.11616481E-09      0.29424369E-01     -0.99542888E-14      0.17662829E-10     -0.59753500E-23
    0.078500566057         0.12203475E-09      0.29282018E-01     -0.17564442E-13      0.17726961E-10     -0.10633290E-22
    0.081640588699         0.12768041E-09      0.29214244E-01     -0.54564580E-14      0.17792432E-10     -0.33231618E-23
    0.084780611341         0.13305840E-09      0.29218000E-01     -0.63796691E-14      0.17857422E-10     -0.38991186E-23
    0.087920633984         0.13812604E-09      0.29297092E-01     -0.16279901E-13      0.17923872E-10     -0.99599937E-23
    0.091060656626         0.14284161E-09      0.29449460E-01     -0.10960817E-14      0.17989697E-10     -0.66955989E-24
    0.094200679268         0.14716459E-09      0.29680924E-01     -0.23048232E-13      0.18057152E-10     -0.14021984E-22
    0.097340701910         0.15105600E-09      0.29990500E-01     -0.28063206E-13      0.18123821E-10     -0.16959121E-22
    0.100480724553         0.15447866E-09      0.30386402E-01     -0.17515276E-13      0.18192298E-10     -0.10486372E-22
    0.103620747195         0.15739751E-09      0.30869038E-01      0.16794956E-13      0.18259832E-10      0.99346492E-23
    0.106760769837         0.15977989E-09      0.31449507E-01      0.13578080E-13      0.18329339E-10      0.79135497E-23
    0.109900792479         0.16159592E-09      0.32130168E-01      0.22708397E-13      0.18397767E-10      0.13002851E-22
    0.113040815122         0.16281876E-09      0.32925737E-01     -0.16066709E-13      0.18468312E-10     -0.90119470E-23
    0.116180837764         0.16342499E-09      0.33841380E-01     -0.14966024E-13      0.18537646E-10     -0.81980950E-23
    0.119320860406         0.16339494E-09      0.34896651E-01     -0.22578111E-14      0.18609235E-10     -0.12040163E-23
    0.122460883048         0.16271302E-09      0.36100917E-01      0.19941340E-13      0.18679519E-10      0.10318149E-22
    0.125600905691         0.16136811E-09      0.37480358E-01      0.25814720E-13      0.18752156E-10      0.12915609E-22
    0.128740928333         0.15935390E-09      0.39050791E-01      0.13160767E-13      0.18823416E-10      0.63438048E-23
    0.131880950975         0.15666928E-09      0.40848016E-01      0.19237528E-13      0.18897105E-10      0.88996637E-23
    0.135020973618         0.15331870E-09      0.42897953E-01     -0.15536682E-14      0.18969373E-10     -0.68702843E-24
    0.138160996260         0.14931255E-09      0.45250924E-01      0.92788916E-14      0.19044117E-10      0.39050761E-23
    0.141301018902         0.14466758E-09      0.47949166E-01      0.14254839E-13      0.19117431E-10      0.56834336E-23
    0.144441041544         0.13940727E-09      0.51065853E-01     -0.25473756E-13      0.19193225E-10     -0.95743733E-23
    0.147581064187         0.13356225E-09      0.54670449E-01      0.24618947E-13      0.19267629E-10      0.86765107E-23
    0.150721086829         0.12717068E-09      0.58873657E-01     -0.25827453E-13      0.19344457E-10     -0.84862753E-23
    0.153861109471         0.12027870E-09      0.63792161E-01     -0.97343398E-13      0.19420022E-10     -0.29633907E-22
    0.157001132113         0.11294082E-09      0.69601016E-01     -0.37061736E-13      0.19497830E-10     -0.10382369E-22
    0.160141154756         0.10522036E-09      0.76502471E-01      0.21111962E-13      0.19574686E-10      0.54019175E-23
    0.163281177398         0.97189861E-10      0.84787346E-01     -0.12439515E-12      0.19653433E-10     -0.28834393E-22
    0.166421200040         0.88931555E-10      0.94817152E-01      0.77747146E-13      0.19731345E-10      0.16179095E-22
    0.169561222683         0.80537758E-10      0.10711330E+00      0.52881549E-13      0.19812484E-10      0.97813704E-23
    0.172701245325         0.72111337E-10      0.12232305E+00     -0.10826468E-12      0.19890190E-10     -0.17604245E-22
    0.175841267967         0.63766150E-10      0.14142809E+00      0.10356499E-12      0.19972278E-10      0.14625304E-22
    0.178981290609         0.55627495E-10      0.16567480E+00      0.15651884E-12      0.20052146E-10      0.18943971E-22
    0.182121313252         0.47832561E-10      0.19686094E+00      0.82454713E-13      0.20134690E-10      0.84333648E-23
    0.185261335894         0.40530887E-10      0.23728569E+00      0.20735542E-12      0.20216008E-10      0.17666041E-22
    0.188401358536         0.33884816E-10      0.28983120E+00     -0.34538448E-12      0.20299660E-10     -0.24190590E-22
    0.191541381178         0.28069961E-10      0.35715003E+00     -0.61876985E-12      0.20382264E-10     -0.35312696E-22
    0.194681403821         0.23275664E-10      0.43959845E+00     -0.11286195E-12      0.20467100E-10     -0.52546972E-23
    0.197821426463         0.19705465E-10      0.52978188E+00      0.18068999E-11      0.20551002E-10      0.70092248E-22
    0.200961449105         0.17577570E-10      0.60586888E+00      0.12586631E-11      0.20637033E-10      0.42872432E-22
    0.204101471747         0.17125315E-10      0.63419425E+00      0.12793194E-11      0.20722268E-10      0.41801702E-22
    0.207241494390         0.18597645E-10      0.59546745E+00      0.89097323E-12      0.20809508E-10      0.31136403E-22
    0.210381517032         0.22259579E-10      0.50714661E+00     -0.34598055E-12      0.20896109E-10     -0.14255537E-22
    0.213521539674         0.28392684E-10      0.40524048E+00      0.41246867E-12      0.20984572E-10      0.21358870E-22
    0.216661562317         0.37295552E-10      0.31435463E+00      0.25583071E-12      0.21072574E-10      0.17149457E-22
    0.219801584959         0.49284270E-10      0.24236077E+00      0.69865428E-13      0.21162276E-10      0.61004570E-23
    0.222941607601         0.64692893E-10      0.18806411E+00     -0.10879596E-12      0.21251712E-10     -0.12294214E-22
    0.226081630243         0.83873922E-10      0.14772859E+00      0.21919185E-12      0.21342671E-10      0.31667123E-22
    0.229221652886         0.10719877E-09      0.11768955E+00     -0.22529292E-12      0.21433576E-10     -0.41030259E-22
    0.232361675528         0.13505825E-09      0.95099966E-01      0.46130205E-13      0.21525811E-10      0.10441540E-22
    0.235501698170         0.16786301E-09      0.77881872E-01     -0.14200126E-13      0.21618218E-10     -0.39416287E-23
    0.238641720812         0.20604406E-09      0.64574127E-01     -0.71169374E-13      0.21711750E-10     -0.23929269E-22
    0.241781743455         0.25005319E-09      0.54142523E-01     -0.50116769E-13      0.21805695E-10     -0.20184338E-22
    0.244921766097         0.30036346E-09      0.45857740E-01      0.50920136E-13      0.21900544E-10      0.24318221E-22
    0.248061788739         0.35746965E-09      0.39196124E-01     -0.32109956E-13      0.21996064E-10     -0.18019451E-22
    0.251201811381         0.42188874E-09      0.33778652E-01      0.15364664E-14      0.22092254E-10      0.10048952E-23
    0.254341834024         0.49416037E-09      0.29327339E-01      0.62169091E-14      0.22189388E-10      0.47037819E-23
    0.257481856666         0.57484728E-09      0.25634342E-01     -0.70106780E-14      0.22286946E-10     -0.60952064E-23
    0.260621879308         0.66453577E-09      0.22544577E-01     -0.75836705E-14      0.22385775E-10     -0.75302516E-23
    0.263761901951         0.76383615E-09      0.19937856E-01      0.92007623E-14      0.22484806E-10      0.10376108E-22
    0.266901924593         0.87338321E-09      0.17723268E-01      0.22291297E-14      0.22584968E-10      0.28406061E-23
    0.270041947235         0.99383660E-09      0.15828417E-01     -0.22990467E-14      0.22685261E-10     -0.32949900E-23
    0.273181969877         0.11258814E-08      0.14198202E-01      0.68963805E-14      0.22787490E-10      0.11068387E-22
    0.276321992520         0.12702283E-08      0.12786259E-01     -0.36498879E-14      0.22889291E-10     -0.65338383E-23
    0.279462015162         0.14276143E-08      0.11558163E-01     -0.69220975E-14      0.22993202E-10     -0.13770457E-22
    0.282602037804         0.15988030E-08      0.10483427E-01     -0.38740817E-14      0.23096463E-10     -0.85351468E-23
    0.285742060446         0.17845852E-08      0.95398762E-02     -0.73856874E-14      0.23202159E-10     -0.17962906E-22
    0.288882083089         0.19857789E-08      0.87066642E-02     -0.34558024E-14      0.23306906E-10     -0.92508519E-23
    0.292022105731         0.22032301E-08      0.79692330E-02      0.70711135E-14      0.23414408E-10      0.20775643E-22
    0.295162128373         0.24378129E-08      0.73128835E-02     -0.18769908E-14      0.23520738E-10     -0.60370452E-23
    0.298302151016         0.26904304E-08      0.67278304E-02      0.53738748E-14      0.23629959E-10      0.18874501E-22
    0.301442173658         0.29620145E-08      0.62035845E-02      0.10726150E-14      0.23738234E-10      0.41043991E-23
    0.304582196300         0.32535265E-08      0.57331797E-02     -0.37191368E-14      0.23848877E-10     -0.15470862E-22
    0.307722218942         0.35659575E-08      0.53092406E-02      0.73525521E-15      0.23959197E-10      0.33180121E-23
    0.310862241585         0.39003290E-08      0.49266935E-02      0.33085300E-14      0.24071954E-10      0.16165565E-22
    0.314002264227         0.42576927E-08      0.45798533E-02      0.29142801E-15      0.24183305E-10      0.15388467E-23
    0.317142286869         0.46391314E-08      0.42655339E-02      0.24721081E-14      0.24298444E-10      0.14082265E-22
    0.320282309511         0.50457590E-08      0.39789983E-02     -0.20432431E-14      0.24411240E-10     -0.12535341E-22
    0.323422332154         0.54787210E-08      0.37182380E-02     -0.27795558E-14      0.24528382E-10     -0.18336106E-22
    0.326562354796         0.59391947E-08      0.34794270E-02     -0.18041306E-14      0.24642895E-10     -0.12777679E-22
    0.329702377438         0.64283897E-08      0.32612452E-02      0.14541282E-14      0.24762023E-10      0.11040922E-22
    0.332842400080         0.69475481E-08      0.30605877E-02      0.65260733E-15      0.24878277E-10      0.53047804E-23
    0.335982422723         0.74979446E-08      0.28766007E-02      0.57963992E-15      0.24999297E-10      0.50374007E-23
    0.339122445365         0.80808871E-08      0.27067975E-02     -0.15143447E-14      0.25117755E-10     -0.14052377E-22
    0.342262468007         0.86977170E-08      0.25503593E-02     -0.19609981E-14      0.25238870E-10     -0.19406433E-22
    0.345402490650         0.93498090E-08      0.24060107E-02     -0.14860149E-14      0.25362810E-10     -0.15664733E-22
    0.348542513292         0.10038572E-07      0.22723661E-02      0.68132262E-16      0.25486900E-10      0.76417271E-24
    0.351682535934         0.10765449E-07      0.21482618E-02     -0.70338624E-16      0.25608910E-10     -0.83848972E-24
    0.354822558576         0.11531917E-07      0.20335214E-02      0.50995794E-15      0.25737215E-10      0.64542706E-23
    0.357962581219         0.12339487E-07      0.19264775E-02     -0.11427894E-14      0.25861039E-10     -0.15340808E-22
    0.361102603861         0.13189707E-07      0.18272357E-02     -0.10026308E-14      0.25990920E-10     -0.14261595E-22
    0.364242626503         0.14084158E-07      0.17344550E-02     -0.75190297E-15      0.26117145E-10     -0.11322035E-22
    0.367382649145         0.15024457E-07      0.16481998E-02      0.65669973E-15      0.26248987E-10      0.10458503E-22
    0.370522671788         0.16012256E-07      0.15673771E-02      0.11794049E-14      0.26377510E-10      0.19848296E-22
    0.373662694430         0.17049243E-07      0.14920597E-02      0.11476986E-14      0.26511488E-10      0.20392749E-22
    0.376802717072         0.18137141E-07      0.14213280E-02     -0.62211393E-15      0.26642296E-10     -0.11661308E-22
    0.379942739715         0.19277708E-07      0.13552718E-02     -0.34619552E-15      0.26778498E-10     -0.68403959E-23
    0.383082762357         0.20472742E-07      0.12931054E-02     -0.75692236E-15      0.26911621E-10     -0.15752782E-22
    0.386222784999         0.21724071E-07      0.12349322E-02     -0.96419121E-15      0.27050106E-10     -0.21119763E-22
    0.389362807641         0.23033564E-07      0.11800749E-02     -0.52362242E-15      0.27185592E-10     -0.12062781E-22
    0.392502830284         0.24403125E-07      0.11286450E-02     -0.59631077E-15      0.27326409E-10     -0.14437694E-22
    0.395642852926         0.25834693E-07      0.10800561E-02     -0.10079073E-14      0.27464318E-10     -0.25629674E-22
    0.398782875568         0.27330244E-07      0.10344218E-02     -0.17993792E-15      0.27607508E-10     -0.48023328E-23
    0.401922898210         0.28891791E-07      0.99123343E-03     -0.13835905E-14      0.27747905E-10     -0.38731278E-22
    0.405062920853         0.30521384E-07      0.95060224E-03      0.34425465E-15      0.27893506E-10      0.10101459E-22
    0.408202943495         0.32221107E-07      0.91208728E-03     -0.44488199E-15      0.28036466E-10     -0.13675137E-22
    0.411342966137         0.33993084E-07      0.87579306E-03     -0.42852460E-15      0.28184513E-10     -0.13790652E-22
    0.414482988779         0.35839473E-07      0.84133840E-03      0.38313785E-15      0.28330103E-10      0.12901271E-22
    0.417623011422         0.37762468E-07      0.80881993E-03     -0.53623298E-15      0.28480678E-10     -0.18882175E-22
    0.420763034064         0.39764301E-07      0.77790490E-03     -0.66682189E-15      0.28628911E-10     -0.24540769E-22
    0.423903056706         0.41847240E-07      0.74868465E-03     -0.81524270E-15      0.28782051E-10     -0.31340775E-22
    0.427043079349         0.44013589E-07      0.72086958E-03     -0.19563314E-14      0.28933058E-10     -0.78519958E-22
    0.430183101991         0.46265688E-07      0.69453900E-03     -0.17089155E-14      0.29088736E-10     -0.71572933E-22
    0.433323124633         0.48605914E-07      0.66944674E-03      0.28412202E-15      0.29242589E-10      0.12410940E-22
    0.436463147275         0.51036678E-07      0.64565814E-03      0.22924843E-15      0.29400857E-10      0.10439116E-22
    0.439603169918         0.53560430E-07      0.62296717E-03     -0.34483029E-15      0.29557721E-10     -0.16361051E-22
    0.442743192560         0.56179653E-07      0.60142012E-03      0.14281154E-15      0.29718553E-10      0.70568846E-23
    0.445883215202         0.58896866E-07      0.58085062E-03      0.31159626E-15      0.29878450E-10      0.16028240E-22
    0.449023237844         0.61714624E-07      0.56128592E-03     -0.92576839E-16      0.30041801E-10     -0.49550057E-23
    0.452163260487         0.64635518E-07      0.54259947E-03     -0.47505158E-15      0.30204932E-10     -0.26444738E-22
    0.455303283129         0.67662171E-07      0.52479077E-03      0.42034041E-15      0.30370635E-10      0.24325895E-22
    0.458443305771         0.70797244E-07      0.50778359E-03     -0.37287785E-16      0.30537391E-10     -0.22424349E-23
    0.461583328413         0.74043431E-07      0.49153141E-03      0.10289417E-15      0.30705081E-10      0.64276134E-23
    0.464723351056         0.77403460E-07      0.47602791E-03      0.85435051E-16      0.30875986E-10      0.55414639E-23
    0.467863373698         0.80880094E-07      0.46114936E-03      0.23433397E-15      0.31044649E-10      0.15775401E-22
    0.471003396340         0.84476127E-07      0.44701243E-03      0.57295946E-16      0.31221380E-10      0.40018093E-23
    0.474143418983         0.88194391E-07      0.43331735E-03      0.18420613E-15      0.31387727E-10      0.13343134E-22
    0.477283441625         0.92037747E-07      0.42049579E-03      0.11940189E-16      0.31577214E-10      0.89665086E-24
    0.480423464267         0.96009090E-07      0.40763313E-03     -0.61676874E-16      0.31723431E-10     -0.47999094E-23
    0.483563486909         0.10011135E-06      0.39708622E-03      0.13305957E-15      0.32013795E-10      0.10727499E-22
    0.486703509552         0.10434748E-06      0.38955719E-03      0.35314514E-16      0.32524546E-10      0.29484465E-23
    0.489843532194         0.10872047E-06      0.37609010E-03      0.29589307E-16      0.32506365E-10      0.25574744E-23
    0.492983554836         0.11323336E-06      0.36318452E-03      0.19302862E-15      0.32485670E-10      0.17265780E-22
    0.496123577478         0.11788918E-06      0.35330544E-03     -0.40679882E-16      0.32693164E-10     -0.37643180E-23
    0.499263600121         0.12269102E-06      0.34337349E-03      0.12832039E-15      0.32860351E-10      0.12280078E-22
    0.502403622763         0.12764201E-06      0.33407281E-03      0.12958915E-15      0.33052516E-10      0.12821299E-22
    0.505543645405         0.13274526E-06      0.32503583E-03     -0.29166154E-16      0.33236414E-10     -0.29823738E-23
    0.508683668048         0.13800397E-06      0.31640561E-03     -0.79426604E-16      0.33428010E-10     -0.83913596E-23
