
 # Omega; pulse ft; projected flux at t=    1000.2500000000000     
    0.000000000000         0.10847490E-10      0.00000000E+00     -0.00000000E+00      0.14554721E-08     -0.15544776E-21
    0.003140022642         0.11093634E-10      0.10657054E+01     -0.20635688E-12      0.14662255E-08     -0.28391122E-21
    0.006280045285         0.11830642E-10      0.20137967E+01     -0.10029317E-11      0.14773510E-08     -0.73576550E-21
    0.009420067927         0.13054251E-10      0.27583961E+01     -0.17659629E-12      0.14885969E-08     -0.95302006E-22
    0.012560090569         0.14757372E-10      0.32781914E+01     -0.67724348E-12      0.14999373E-08     -0.30987293E-21
    0.015700113211         0.16930121E-10      0.35992849E+01     -0.18029414E-11      0.15114579E-08     -0.75711429E-21
    0.018840135854         0.19559852E-10      0.37672106E+01     -0.68573261E-12      0.15230844E-08     -0.27724191E-21
    0.021980158496         0.22631207E-10      0.38280932E+01     -0.67392654E-12      0.15349065E-08     -0.27021658E-21
    0.025120181138         0.26126176E-10      0.38191548E+01     -0.23436710E-11      0.15468310E-08     -0.94923176E-21
    0.028260203780         0.30024165E-10      0.37680506E+01     -0.44730641E-12      0.15589598E-08     -0.18506459E-21
    0.031400226423         0.34302079E-10      0.36933775E+01     -0.13410866E-11      0.15712088E-08     -0.57051495E-21
    0.034540249065         0.38934408E-10      0.36077286E+01     -0.15260502E-11      0.15836694E-08     -0.66988378E-21
    0.037680271707         0.43893332E-10      0.35187893E+01     -0.39103789E-12      0.15962479E-08     -0.17738868E-21
    0.040820294349         0.49148832E-10      0.34317010E+01     -0.43148112E-12      0.16090482E-08     -0.20231189E-21
    0.043960316992         0.54668813E-10      0.33491996E+01     -0.18779180E-11      0.16219685E-08     -0.90944825E-21
    0.047100339634         0.60419233E-10      0.32732235E+01      0.15163082E-12      0.16351190E-08      0.75746258E-22
    0.050240362276         0.66364250E-10      0.32044796E+01     -0.68825238E-12      0.16483958E-08     -0.35403948E-21
    0.053380384919         0.72466374E-10      0.31436201E+01     -0.11023570E-11      0.16619097E-08     -0.58277329E-21
    0.056520407561         0.78686628E-10      0.30905886E+01     -0.16205223E-12      0.16755577E-08     -0.87856359E-22
    0.059660430203         0.84984724E-10      0.30455657E+01     -0.33080398E-12      0.16894487E-08     -0.18350494E-21
    0.062800452845         0.91319245E-10      0.30082629E+01     -0.13034561E-11      0.17034833E-08     -0.73810557E-21
    0.065940475488         0.97647837E-10      0.29787273E+01      0.29515336E-14      0.17177654E-08      0.17020834E-23
    0.069080498130         0.10392742E-09      0.29566612E+01     -0.40137031E-12      0.17322029E-08     -0.23514863E-21
    0.072220520772         0.11011438E-09      0.29421173E+01     -0.12760398E-11      0.17468915E-08     -0.75765269E-21
    0.075360543414         0.11616481E-09      0.29348859E+01     -0.33533608E-12      0.17617502E-08     -0.20129519E-21
    0.078500566057         0.12203475E-09      0.29350784E+01     -0.10040995E-11      0.17768591E-08     -0.60786905E-21
    0.081640588699         0.12768041E-09      0.29426306E+01     -0.15354409E-11      0.17921585E-08     -0.93513384E-21
    0.084780611341         0.13305840E-09      0.29577293E+01     -0.55574236E-12      0.18077015E-08     -0.33965796E-21
    0.087920633984         0.13812604E-09      0.29804993E+01     -0.12908743E-11      0.18234604E-08     -0.78975294E-21
    0.091060656626         0.14284161E-09      0.30112409E+01     -0.14179209E-11      0.18394670E-08     -0.86616075E-21
    0.094200679268         0.14716459E-09      0.30502178E+01     -0.32983840E-12      0.18556783E-08     -0.20066566E-21
    0.097340701910         0.15105600E-09      0.30980094E+01     -0.85573764E-12      0.18721851E-08     -0.51713829E-21
    0.100480724553         0.15447866E-09      0.31549719E+01     -0.14305895E-11      0.18888775E-08     -0.85649203E-21
    0.103620747195         0.15739751E-09      0.32219692E+01      0.14070801E-12      0.19058778E-08      0.83232416E-22
    0.106760769837         0.15977989E-09      0.32996391E+01     -0.61999337E-12      0.19230891E-08     -0.36134330E-21
    0.109900792479         0.16159592E-09      0.33891024E+01     -0.92931985E-12      0.19406035E-08     -0.53212948E-21
    0.113040815122         0.16281876E-09      0.34913974E+01     -0.50107865E-13      0.19583530E-08     -0.28105907E-22
    0.116180837764         0.16342499E-09      0.36080305E+01     -0.61380561E-12      0.19764085E-08     -0.33623070E-21
    0.119320860406         0.16339494E-09      0.37405588E+01     -0.10521218E-11      0.19947168E-08     -0.56106191E-21
    0.122460883048         0.16271302E-09      0.38910834E+01      0.19114070E-12      0.20133441E-08      0.98900987E-22
    0.125600905691         0.16136811E-09      0.40618622E+01     -0.34652643E-12      0.20322291E-08     -0.17337395E-21
    0.128740928333         0.15935390E-09      0.42559263E+01     -0.12274996E-11      0.20514583E-08     -0.59168420E-21
    0.131880950975         0.15666928E-09      0.44766173E+01     -0.61752636E-12      0.20709723E-08     -0.28567999E-21
    0.135020973618         0.15331870E-09      0.47280928E+01     -0.12100515E-11      0.20907515E-08     -0.53508193E-21
    0.138160996260         0.14931255E-09      0.50158762E+01     -0.23357651E-11      0.21109610E-08     -0.98302045E-21
    0.141301018902         0.14466758E-09      0.53458504E+01     -0.52084896E-13      0.21314015E-08     -0.20766355E-22
    0.144441041544         0.13940727E-09      0.57262606E+01     -0.45947400E-12      0.21522290E-08     -0.17269442E-21
    0.147581064187         0.13356225E-09      0.61668598E+01     -0.16819010E-11      0.21734002E-08     -0.59275614E-21
    0.150721086829         0.12717068E-09      0.66800300E+01     -0.12176419E-11      0.21948960E-08     -0.40008763E-21
    0.153861109471         0.12027870E-09      0.72818139E+01     -0.20291546E-11      0.22167769E-08     -0.61772838E-21
    0.157001132113         0.11294082E-09      0.79925868E+01     -0.27003407E-11      0.22390204E-08     -0.75646572E-21
    0.160141154756         0.10522036E-09      0.88389988E+01     -0.14986557E-12      0.22616345E-08     -0.38346101E-22
    0.163281177398         0.97189861E-10      0.98562686E+01     -0.14152693E-11      0.22846512E-08     -0.32805486E-21
    0.166421200040         0.88931555E-10      0.11091094E+02     -0.23412313E-11      0.23080444E-08     -0.48720765E-21
    0.169561222683         0.80537758E-10      0.12606900E+02     -0.57563437E-12      0.23318673E-08     -0.10647368E-21
    0.172701245325         0.72111337E-10      0.14489704E+02     -0.19322512E-11      0.23560805E-08     -0.31419134E-21
    0.175841267967         0.63766150E-10      0.16858606E+02     -0.30760762E-11      0.23807489E-08     -0.43439921E-21
    0.178981290609         0.55627495E-10      0.19877393E+02     -0.14645342E-11      0.24058239E-08     -0.17725722E-21
    0.182121313252         0.47832561E-10      0.23772102E+02     -0.26370095E-11      0.24313808E-08     -0.26971003E-21
    0.185261335894         0.40530887E-10      0.28843315E+02     -0.96455877E-11      0.24573614E-08     -0.82177430E-21
    0.188401358536         0.33884816E-10      0.35463544E+02     -0.85117622E-12      0.24838523E-08     -0.59616040E-22
    0.191541381178         0.28069961E-10      0.43995482E+02     -0.38626413E-11      0.25107866E-08     -0.22043782E-21
    0.194681403821         0.23275664E-10      0.54517496E+02     -0.12238087E-10      0.25382596E-08     -0.56978852E-21
    0.197821426463         0.19705465E-10      0.66153733E+02     -0.87371136E-11      0.25661986E-08     -0.33892522E-21
    0.200961449105         0.17577570E-10      0.76176237E+02     -0.14357482E-10      0.25947059E-08     -0.48904282E-21
    0.204101471747         0.17125315E-10      0.80297083E+02     -0.17061498E-10      0.26237035E-08     -0.55748366E-21
    0.207241494390         0.18597645E-10      0.75924640E+02      0.18257948E-11      0.26533010E-08      0.63805152E-22
    0.210381517032         0.22259579E-10      0.65126240E+02     -0.39607865E-12      0.26834154E-08     -0.16319744E-22
    0.213521539674         0.28392684E-10      0.52414163E+02     -0.66436067E-11      0.27141632E-08     -0.34402596E-21
    0.216661562317         0.37295552E-10      0.40955937E+02     -0.44659173E-11      0.27454566E-08     -0.29937008E-21
    0.219801584959         0.49284270E-10      0.31808365E+02     -0.56957809E-11      0.27774190E-08     -0.49733993E-21
    0.222941607601         0.64692893E-10      0.24866342E+02     -0.51710327E-11      0.28099584E-08     -0.58433953E-21
    0.226081630243         0.83873922E-10      0.19679946E+02     -0.14172492E-11      0.28432046E-08     -0.20475308E-21
    0.229221652886         0.10719877E-09      0.15797651E+02     -0.29961882E-11      0.28770620E-08     -0.54566463E-21
    0.232361675528         0.13505825E-09      0.12863599E+02     -0.34191889E-11      0.29116665E-08     -0.77393101E-21
    0.235501698170         0.16786301E-09      0.10616583E+02     -0.14374676E-11      0.29469195E-08     -0.39900799E-21
    0.238641720812         0.20604406E-09      0.88717960E+01     -0.12460517E-11      0.29829627E-08     -0.41895979E-21
    0.241781743455         0.25005319E-09      0.74977609E+01     -0.16122977E-11      0.30196946E-08     -0.64934676E-21
    0.244921766097         0.30036346E-09      0.64016311E+01     -0.29586967E-12      0.30572637E-08     -0.14130017E-21
    0.248061788739         0.35746965E-09      0.55161748E+01     -0.10075800E-11      0.30955645E-08     -0.56543328E-21
    0.251201811381         0.42188874E-09      0.47929782E+01     -0.10939499E-11      0.31347519E-08     -0.71547614E-21
    0.254341834024         0.49416037E-09      0.41959771E+01     -0.55687306E-12      0.31747225E-08     -0.42133629E-21
    0.257481856666         0.57484728E-09      0.36986015E+01     -0.59390350E-12      0.32156290E-08     -0.51635012E-21
    0.260621879308         0.66453577E-09      0.32804797E+01     -0.10795124E-11      0.32573722E-08     -0.10719084E-20
    0.263761901951         0.76383615E-09      0.29262926E+01     -0.12910752E-12      0.33001101E-08     -0.14560028E-21
    0.266901924593         0.87338321E-09      0.26239585E+01     -0.35203935E-12      0.33437411E-08     -0.44860786E-21
    0.270041947235         0.99383660E-09      0.23642431E+01     -0.27524888E-12      0.33884293E-08     -0.39448624E-21
    0.273181969877         0.11258814E-08      0.21396680E+01     -0.45415564E-13      0.34340731E-08     -0.72889983E-22
    0.276321992520         0.12702283E-08      0.19444439E+01     -0.19236859E-12      0.34808418E-08     -0.34436818E-21
    0.279462015162         0.14276143E-08      0.17737648E+01     -0.29546829E-12      0.35286345E-08     -0.58778909E-21
    0.282602037804         0.15988030E-08      0.16238752E+01     -0.44965513E-13      0.35776256E-08     -0.99065350E-22
    0.285742060446         0.17845852E-08      0.14915834E+01     -0.19767743E-12      0.36277154E-08     -0.48077596E-21
    0.288882083089         0.19857789E-08      0.13743801E+01     -0.25828204E-12      0.36790839E-08     -0.69139626E-21
    0.292022105731         0.22032301E-08      0.12700835E+01      0.23446797E-13      0.37316331E-08      0.68889050E-22
    0.295162128373         0.24378129E-08      0.11769731E+01     -0.11117048E-12      0.37855486E-08     -0.35756233E-21
    0.298302151016         0.26904304E-08      0.10935192E+01     -0.20891115E-12      0.38407350E-08     -0.73375243E-21
    0.301442173658         0.29620145E-08      0.10185150E+01     -0.44141630E-14      0.38973833E-08     -0.16890950E-22
    0.304582196300         0.32535265E-08      0.95086371E+00     -0.14594104E-12      0.39554021E-08     -0.60708545E-21
    0.307722218942         0.35659575E-08      0.88970161E+00     -0.19825010E-12      0.40149878E-08     -0.89465022E-21
    0.310862241585         0.39003290E-08      0.83422666E+00      0.18176469E-13      0.40760535E-08      0.88810708E-22
    0.314002264227         0.42576927E-08      0.78380958E+00     -0.86373993E-13      0.41388019E-08     -0.45608634E-21
    0.317142286869         0.46391314E-08      0.73785315E+00     -0.11696153E-12      0.42031510E-08     -0.66626670E-21
    0.320282309511         0.50457590E-08      0.69589180E+00     -0.41730513E-13      0.42693112E-08     -0.25601760E-21
    0.323422332154         0.54787210E-08      0.65747351E+00     -0.12382763E-12      0.43372053E-08     -0.81686310E-21
    0.326562354796         0.59391947E-08      0.62224907E+00     -0.13402662E-12      0.44070527E-08     -0.94923788E-21
    0.329702377438         0.64283897E-08      0.58987130E+00      0.12299970E-13      0.44787820E-08      0.93391364E-22
    0.332842400080         0.69475481E-08      0.56007496E+00     -0.37039466E-13      0.45526223E-08     -0.30107880E-21
    0.335982422723         0.74979446E-08      0.53258993E+00     -0.39230385E-13      0.46285096E-08     -0.34093436E-21
    0.339122445365         0.80808871E-08      0.50721247E+00     -0.25230159E-13      0.47066833E-08     -0.23412351E-21
    0.342262468007         0.86977170E-08      0.48372966E+00     -0.71987854E-13      0.47870863E-08     -0.71240632E-21
    0.345402490650         0.93498090E-08      0.46198454E+00     -0.80221524E-13      0.48699810E-08     -0.84565014E-21
    0.348542513292         0.10038572E-07      0.44180450E+00     -0.39445845E-13      0.49552874E-08     -0.44242533E-21
    0.351682535934         0.10765449E-07      0.42307144E+00     -0.66659226E-13      0.50433323E-08     -0.79462852E-21
    0.354822558576         0.11531917E-07      0.40564370E+00     -0.83914865E-13      0.51340199E-08     -0.10620665E-20
    0.357962581219         0.12339487E-07      0.38942658E+00     -0.64087638E-14      0.52276633E-08     -0.86031261E-22
    0.361102603861         0.13189707E-07      0.37430931E+00     -0.38940115E-13      0.53242410E-08     -0.55389100E-21
    0.364242626503         0.14084158E-07      0.36021356E+00     -0.43267855E-13      0.54240381E-08     -0.65152044E-21
    0.367382649145         0.15024457E-07      0.34705038E+00     -0.22273220E-14      0.55270733E-08     -0.35472003E-22
    0.370522671788         0.16012256E-07      0.33475599E+00     -0.53579063E-13      0.56336343E-08     -0.90168616E-21
    0.373662694430         0.17049243E-07      0.32325865E+00     -0.39396220E-13      0.57437835E-08     -0.70000712E-21
    0.376802717072         0.18137141E-07      0.31250504E+00     -0.21569585E-13      0.58577976E-08     -0.40431432E-21
    0.379942739715         0.19277708E-07      0.30243853E+00     -0.38260082E-13      0.59758120E-08     -0.75597197E-21
    0.383082762357         0.20472742E-07      0.29301241E+00     -0.37512013E-13      0.60980635E-08     -0.78068586E-21
    0.386222784999         0.21724071E-07      0.28418427E+00     -0.21671845E-13      0.62248072E-08     -0.47470276E-21
    0.389362807641         0.23033564E-07      0.27591019E+00     -0.29608750E-13      0.63561915E-08     -0.68210195E-21
    0.392502830284         0.24403125E-07      0.26816237E+00     -0.36637550E-13      0.64926656E-08     -0.88705718E-21
    0.395642852926         0.25834693E-07      0.26089546E+00     -0.20122057E-13      0.66342074E-08     -0.51167583E-21
    0.398782875568         0.27330244E-07      0.25409811E+00     -0.15447343E-13      0.67815815E-08     -0.41227153E-21
    0.401922898210         0.28891791E-07      0.24771833E+00     -0.26894380E-13      0.69344562E-08     -0.75286273E-21
    0.405062920853         0.30521384E-07      0.24176516E+00     -0.42166380E-14      0.70941111E-08     -0.12372874E-21
    0.408202943495         0.32221107E-07      0.23617277E+00     -0.42903437E-14      0.72596670E-08     -0.13188001E-21
    0.411342966137         0.33993084E-07      0.23097766E+00     -0.19618962E-13      0.74332548E-08     -0.63137164E-21
    0.414482988779         0.35839473E-07      0.22608949E+00     -0.11436929E-13      0.76130349E-08     -0.38511184E-21
    0.417623011422         0.37762468E-07      0.22158432E+00     -0.10076613E-13      0.78025672E-08     -0.35482405E-21
    0.420763034064         0.39764301E-07      0.21733046E+00     -0.67156016E-14      0.79983226E-08     -0.24715149E-21
    0.423903056706         0.41847240E-07      0.21346423E+00     -0.16778210E-14      0.82063102E-08     -0.64501296E-22
    0.427043079349         0.44013589E-07      0.20978465E+00     -0.16594341E-14      0.84199857E-08     -0.66603592E-22
    0.430183101991         0.46265688E-07      0.20652459E+00     -0.98285737E-14      0.86496789E-08     -0.41164109E-21
    0.433323124633         0.48605914E-07      0.20336472E+00     -0.43514895E-14      0.88833219E-08     -0.19008057E-21
    0.436463147275         0.51036678E-07      0.20070097E+00     -0.17003241E-13      0.91391716E-08     -0.77426401E-21
    0.439603169918         0.53560430E-07      0.19800377E+00     -0.20517513E-13      0.93946203E-08     -0.97348777E-21
    0.442743192560         0.56179653E-07      0.19596279E+00     -0.68399407E-14      0.96832983E-08     -0.33798859E-21
    0.445883215202         0.58896866E-07      0.19365015E+00     -0.14934668E-13      0.99611949E-08     -0.76822632E-21
    0.449023237844         0.61714624E-07      0.19233356E+00     -0.19543336E-13      0.10294301E-07     -0.10460212E-20
    0.452163260487         0.64635518E-07      0.19025038E+00     -0.73893855E-14      0.10590685E-07     -0.41134557E-21
    0.455303283129         0.67662171E-07      0.18997099E+00     -0.12918588E-13      0.10993981E-07     -0.74762313E-21
    0.458443305771         0.70797244E-07      0.18765927E+00     -0.13472687E-13      0.11285564E-07     -0.81022842E-21
    0.461583328413         0.74043431E-07      0.18962315E+00     -0.93272942E-14      0.11845416E-07     -0.58265924E-21
    0.464723351056         0.77403460E-07      0.18484127E+00     -0.91594853E-14      0.11989122E-07     -0.59409992E-21
    0.467863373698         0.80880094E-07      0.19813805E+00     -0.73056956E-14      0.13338686E-07     -0.49182059E-21
    0.471003396340         0.84476127E-07      0.17448244E+00     -0.73368847E-14      0.12186647E-07     -0.51244139E-21
    0.474143418983         0.88194391E-07      0.15480235E+00     -0.74004801E-14      0.11213245E-07     -0.53606034E-21
    0.477283441625         0.92037747E-07      0.18984187E+00     -0.95584014E-14      0.14256212E-07     -0.71779002E-21
    0.480423464267         0.96009090E-07      0.18712237E+00     -0.71908439E-14      0.14562516E-07     -0.55961654E-21
    0.483563486909         0.10011135E-06      0.18885218E+00     -0.82606996E-14      0.15225598E-07     -0.66599225E-21
    0.486703509552         0.10434748E-06      0.19032472E+00     -0.95927749E-14      0.15890414E-07     -0.80091103E-21
    0.489843532194         0.10872047E-06      0.19322746E+00      0.31256312E-14      0.16701110E-07      0.27015577E-21
    0.492983554836         0.11323336E-06      0.19491849E+00      0.45737265E-15      0.17434822E-07      0.40910491E-22
    0.496123577478         0.11788918E-06      0.19950048E+00     -0.24022308E-14      0.18460802E-07     -0.22229073E-21
    0.499263600121         0.12269102E-06      0.20157407E+00      0.28851351E-14      0.19290349E-07      0.27610330E-21
    0.502403622763         0.12764201E-06      0.20827198E+00     -0.12474076E-13      0.20606026E-07     -0.12341609E-20
    0.505543645405         0.13274526E-06      0.21084164E+00     -0.96271641E-14      0.21559531E-07     -0.98442198E-21
    0.508683668048         0.13800397E-06      0.22049518E+00     -0.15500405E-13      0.23295147E-07     -0.16376059E-20
