
 # Omega; pulse ft; projected flux at t=    1000.2500000000000     
    0.000000000000         0.10847490E-10      0.00000000E+00      0.00000000E+00      0.19404711E-11      0.20679515E-24
    0.003140022642         0.11093634E-10      0.14266370E-02      0.97494821E-16      0.19628046E-11      0.13413594E-24
    0.006280045285         0.11830642E-10      0.26980540E-02     -0.26192966E-15      0.19793323E-11     -0.19215547E-24
    0.009420067927         0.13054251E-10      0.36929558E-02      0.87519865E-15      0.19929416E-11      0.47230996E-24
    0.012560090569         0.14757372E-10      0.43880083E-02      0.14229384E-14      0.20077344E-11      0.65106584E-24
    0.015700113211         0.16930121E-10      0.48157313E-02     -0.37231173E-15      0.20222837E-11     -0.15634592E-24
    0.018840135854         0.19559852E-10      0.50390620E-02      0.10601361E-14      0.20372943E-11      0.42861337E-24
    0.021980158496         0.22631207E-10      0.51183674E-02      0.58838193E-15      0.20522530E-11      0.23591674E-24
    0.025120181138         0.26126176E-10      0.51062148E-02     -0.26590948E-15      0.20681151E-11     -0.10769845E-24
    0.028260203780         0.30024165E-10      0.50378396E-02      0.18394311E-15      0.20843111E-11      0.76102989E-25
    0.031400226423         0.34302079E-10      0.49356802E-02     -0.95519468E-15      0.20996999E-11     -0.40635172E-24
    0.034540249065         0.38934408E-10      0.48197733E-02     -0.27793072E-15      0.21157155E-11     -0.12200207E-24
    0.037680271707         0.43893332E-10      0.46987388E-02      0.34260592E-15      0.21315149E-11      0.15541822E-24
    0.040820294349         0.49148832E-10      0.45806317E-02     -0.31899153E-16      0.21477562E-11     -0.14956803E-25
    0.043960316992         0.54668813E-10      0.44686680E-02     -0.84093838E-15      0.21641106E-11     -0.40725418E-24
    0.047100339634         0.60419233E-10      0.43655895E-02      0.61726289E-16      0.21808039E-11      0.30834995E-25
    0.050240362276         0.66364250E-10      0.42722027E-02     -0.35584373E-15      0.21976363E-11     -0.18304728E-24
    0.053380384919         0.72466374E-10      0.41894110E-02      0.15172551E-15      0.22147787E-11      0.80211377E-25
    0.056520407561         0.78686628E-10      0.41171166E-02      0.61017256E-15      0.22320883E-11      0.33080409E-24
    0.059660430203         0.84984724E-10      0.40555089E-02     -0.22004665E-15      0.22496885E-11     -0.12206518E-24
    0.062800452845         0.91319245E-10      0.40042745E-02      0.19356113E-15      0.22674928E-11      0.10960749E-24
    0.065940475488         0.97647837E-10      0.39633456E-02      0.18886339E-15      0.22855727E-11      0.10891329E-24
    0.069080498130         0.10392742E-09      0.39324516E-02     -0.24549211E-15      0.23038840E-11     -0.14382512E-24
    0.072220520772         0.11011438E-09      0.39114873E-02     -0.45810153E-16      0.23224580E-11     -0.27199924E-25
    0.075360543414         0.11616481E-09      0.39003069E-02     -0.14220232E-15      0.23412721E-11     -0.85361061E-25
    0.078500566057         0.12203475E-09      0.38988734E-02     -0.62784954E-15      0.23603283E-11     -0.38009212E-24
    0.081640588699         0.12768041E-09      0.39072896E-02     -0.34184723E-15      0.23796674E-11     -0.20819617E-24
    0.084780611341         0.13305840E-09      0.39254952E-02      0.62759984E-16      0.23991795E-11      0.38357573E-25
    0.087920633984         0.13812604E-09      0.39541196E-02     -0.28693121E-15      0.24191183E-11     -0.17554364E-24
    0.091060656626         0.14284161E-09      0.39928682E-02     -0.77683199E-15      0.24391105E-11     -0.47454086E-24
    0.094200679268         0.14716459E-09      0.40432295E-02     -0.22945826E-15      0.24598025E-11     -0.13959683E-24
    0.097340701910         0.15105600E-09      0.41045619E-02     -0.58994471E-15      0.24804637E-11     -0.35651464E-24
    0.100480724553         0.15447866E-09      0.41789742E-02     -0.73192541E-15      0.25019463E-11     -0.43820277E-24
    0.103620747195         0.15739751E-09      0.42658738E-02      0.12555505E-14      0.25233743E-11      0.74269045E-24
    0.106760769837         0.15977989E-09      0.43678033E-02     -0.12560746E-16      0.25456344E-11     -0.73206292E-26
    0.109900792479         0.16159592E-09      0.44845931E-02      0.52991080E-16      0.25678825E-11      0.30342746E-25
    0.113040815122         0.16281876E-09      0.46190350E-02      0.83834917E-15      0.25908541E-11      0.47023683E-24
    0.116180837764         0.16342499E-09      0.47718243E-02     -0.65613452E-15      0.26139119E-11     -0.35941765E-24
    0.119320860406         0.16339494E-09      0.49458791E-02     -0.64450055E-15      0.26374744E-11     -0.34369092E-24
    0.122460883048         0.16271302E-09      0.51431295E-02      0.64496242E-15      0.26611841E-11      0.33371972E-24
    0.125600905691         0.16136811E-09      0.53672941E-02     -0.11781208E-15      0.26853622E-11     -0.58943687E-25
    0.128740928333         0.15935390E-09      0.56214110E-02      0.41702157E-15      0.27096547E-11      0.20101438E-24
    0.131880950975         0.15666928E-09      0.59110327E-02     -0.16506366E-15      0.27345614E-11     -0.76361736E-25
    0.135020973618         0.15331870E-09      0.62404940E-02     -0.56784016E-15      0.27595317E-11     -0.25109758E-24
    0.138160996260         0.14931255E-09      0.66179026E-02     -0.21079284E-14      0.27851832E-11     -0.88713404E-24
    0.141301018902         0.14466758E-09      0.70501473E-02      0.94464965E-15      0.28109082E-11      0.37663375E-24
    0.144441041544         0.13940727E-09      0.75492136E-02      0.17462499E-16      0.28373903E-11      0.65633227E-26
    0.147581064187         0.13356225E-09      0.81262539E-02     -0.74169419E-15      0.28639539E-11     -0.26139695E-24
    0.150721086829         0.12717068E-09      0.87994529E-02     -0.14727770E-15      0.28912870E-11     -0.48391883E-25
    0.153861109471         0.12027870E-09      0.95874715E-02     -0.13466478E-15      0.29186801E-11     -0.40995524E-25
    0.157001132113         0.11294082E-09      0.10519767E-01     -0.32677997E-14      0.29469775E-11     -0.91543206E-24
    0.160141154756         0.10522036E-09      0.11627933E-01      0.14281691E-14      0.29752390E-11      0.36542561E-24
    0.163281177398         0.97189861E-10      0.12961911E-01     -0.17424608E-17      0.30045292E-11     -0.40389678E-27
    0.166421200040         0.88931555E-10      0.14578347E-01     -0.29186113E-15      0.30337379E-11     -0.60735979E-25
    0.169561222683         0.80537758E-10      0.16565360E-01      0.83959762E-15      0.30640540E-11      0.15529831E-24
    0.172701245325         0.72111337E-10      0.19029612E-01      0.88427994E-15      0.30942868E-11      0.14378725E-24
    0.175841267967         0.63766150E-10      0.22133436E-01     -0.22090557E-14      0.31256531E-11     -0.31195978E-24
    0.178981290609         0.55627495E-10      0.26083552E-01      0.12822711E-14      0.31569750E-11      0.15519734E-24
    0.182121313252         0.47832561E-10      0.31184193E-01      0.24375082E-14      0.31894802E-11      0.24930529E-24
    0.185261335894         0.40530887E-10      0.37816813E-01     -0.96314148E-14      0.32218757E-11     -0.82056680E-24
    0.188401358536         0.33884816E-10      0.46482828E-01     -0.63433611E-16      0.32556386E-11     -0.44428646E-26
    0.191541381178         0.28069961E-10      0.57634990E-01     -0.27946556E-14      0.32891824E-11     -0.15948874E-24
    0.194681403821         0.23275664E-10      0.71398085E-01     -0.93061226E-14      0.33241967E-11     -0.43328027E-24
    0.197821426463         0.19705465E-10      0.86591206E-01     -0.52255265E-14      0.33589976E-11     -0.20270570E-24
    0.200961449105         0.17577570E-10      0.99680628E-01      0.60252121E-14      0.33953096E-11      0.20523005E-24
    0.204101471747         0.17125315E-10      0.10501741E+00     -0.14491788E-13      0.34314389E-11     -0.47351849E-24
    0.207241494390         0.18597645E-10      0.99269319E-01      0.18401099E-13      0.34691160E-11      0.64305417E-24
    0.210381517032         0.22259579E-10      0.85105946E-01      0.95991344E-14      0.35066450E-11      0.39551593E-24
    0.213521539674         0.28392684E-10      0.68473433E-01      0.29346722E-14      0.35457605E-11      0.15196616E-24
    0.216661562317         0.37295552E-10      0.53476520E-01      0.49399246E-14      0.35847663E-11      0.33114488E-24
    0.219801584959         0.49284270E-10      0.41519828E-01     -0.71812815E-15      0.36253972E-11     -0.62704976E-25
    0.222941607601         0.64692893E-10      0.32441441E-01     -0.16807813E-14      0.36659634E-11     -0.18993246E-24
    0.226081630243         0.83873922E-10      0.25667168E-01     -0.96800134E-16      0.37081917E-11     -0.13984926E-25
    0.229221652886         0.10719877E-09      0.20593109E-01      0.12724373E-15      0.37504090E-11      0.23173578E-25
    0.232361675528         0.13505825E-09      0.16763131E-01     -0.12169581E-14      0.37943229E-11     -0.27545761E-24
    0.235501698170         0.16786301E-09      0.13827836E-01      0.37522876E-15      0.38382896E-11      0.10415488E-24
    0.238641720812         0.20604406E-09      0.11551574E-01     -0.21742661E-15      0.38839841E-11     -0.73105318E-25
    0.241781743455         0.25005319E-09      0.97575275E-02     -0.14533903E-14      0.39298071E-11     -0.58534741E-24
    0.244921766097         0.30036346E-09      0.83282783E-02      0.54126272E-15      0.39773837E-11      0.25849394E-24
    0.248061788739         0.35746965E-09      0.71727131E-02     -0.41924171E-15      0.40251800E-11     -0.23526988E-24
    0.251201811381         0.42188874E-09      0.62302120E-02     -0.43166800E-15      0.40747460E-11     -0.28232385E-24
    0.254341834024         0.49416037E-09      0.54514776E-02      0.12398052E-15      0.41246480E-11      0.93805028E-25
    0.257481856666         0.57484728E-09      0.48035797E-02     -0.28047822E-15      0.41763164E-11     -0.24385268E-24
    0.260621879308         0.66453577E-09      0.42584650E-02     -0.74081527E-15      0.42284687E-11     -0.73559702E-24
    0.263761901951         0.76383615E-09      0.37972756E-02      0.20996290E-15      0.42823564E-11      0.23678449E-24
    0.266901924593         0.87338321E-09      0.34033493E-02     -0.34151674E-16      0.43369279E-11     -0.43519878E-25
    0.270041947235         0.99383660E-09      0.30652763E-02      0.26751288E-15      0.43931490E-11      0.38339902E-24
    0.273181969877         0.11258814E-08      0.27728577E-02      0.31016600E-16      0.44503147E-11      0.49780279E-25
    0.276321992520         0.12702283E-08      0.25188361E-02     -0.14214189E-15      0.45090885E-11     -0.25445497E-24
    0.279462015162         0.14276143E-08      0.22966250E-02     -0.96134603E-16      0.45687851E-11     -0.19124513E-24
    0.282602037804         0.15988030E-08      0.21018721E-02     -0.59994001E-16      0.46307199E-11     -0.13217522E-24
    0.285742060446         0.17845852E-08      0.19295381E-02     -0.23349095E-15      0.46928753E-11     -0.56787888E-24
    0.288882083089         0.19857789E-08      0.17773876E-02     -0.16476320E-15      0.47578963E-11     -0.44105529E-24
    0.292022105731         0.22032301E-08      0.16416332E-02      0.21754417E-16      0.48232836E-11      0.63916666E-25
    0.295162128373         0.24378129E-08      0.15207341E-02     -0.39305420E-16      0.48912016E-11     -0.12641969E-24
    0.298302151016         0.26904304E-08      0.14122178E-02     -0.26334068E-16      0.49600907E-11     -0.92492363E-25
    0.301442173658         0.29620145E-08      0.13148304E-02      0.94125610E-16      0.50312448E-11      0.36017496E-24
    0.304582196300         0.32535265E-08      0.12269259E-02     -0.19336521E-15      0.51037653E-11     -0.80436044E-24
    0.307722218942         0.35659575E-08      0.11475274E-02     -0.40007192E-16      0.51784874E-11     -0.18054186E-24
    0.310862241585         0.39003290E-08      0.10754871E-02      0.56397277E-16      0.52548581E-11      0.27555858E-24
    0.314002264227         0.42576927E-08      0.10100540E-02     -0.43408241E-16      0.53334556E-11     -0.22921142E-24
    0.317142286869         0.46391314E-08      0.95040935E-03     -0.23256223E-16      0.54139689E-11     -0.13247814E-24
    0.320282309511         0.50457590E-08      0.89596245E-03      0.42891252E-16      0.54967490E-11      0.26313875E-24
    0.323422332154         0.54787210E-08      0.84613291E-03     -0.10111539E-15      0.55817491E-11     -0.66703554E-24
    0.326562354796         0.59391947E-08      0.80043189E-03     -0.12028583E-15      0.56690250E-11     -0.85191929E-24
    0.329702377438         0.64283897E-08      0.75846860E-03      0.85483758E-16      0.57589097E-11      0.64906213E-24
    0.332842400080         0.69475481E-08      0.71980444E-03     -0.32098701E-16      0.58509984E-11     -0.26091732E-24
    0.335982422723         0.74979446E-08      0.68422028E-03     -0.20332943E-16      0.59462635E-11     -0.17670484E-24
    0.339122445365         0.80808871E-08      0.65126873E-03      0.50272135E-17      0.60434548E-11      0.46650078E-25
    0.342262468007         0.86977170E-08      0.62090956E-03     -0.59791505E-17      0.61446462E-11     -0.59170879E-25
    0.345402490650         0.93498090E-08      0.59268571E-03     -0.25862729E-16      0.62477591E-11     -0.27263033E-24
    0.348542513292         0.10038572E-07      0.56650087E-03     -0.22038554E-16      0.63538843E-11     -0.24718483E-24
    0.351682535934         0.10765449E-07      0.54237056E-03     -0.17262779E-16      0.64654683E-11     -0.20578541E-24
    0.354822558576         0.11531917E-07      0.51970771E-03     -0.63904304E-16      0.65776683E-11     -0.80880331E-24
    0.357962581219         0.12339487E-07      0.49872366E-03     -0.95678750E-17      0.66948677E-11     -0.12843918E-24
    0.361102603861         0.13189707E-07      0.47916869E-03     -0.15219771E-16      0.68157792E-11     -0.21648868E-24
    0.364242626503         0.14084158E-07      0.46089339E-03     -0.24730827E-16      0.69400589E-11     -0.37239283E-24
    0.367382649145         0.15024457E-07      0.44387848E-03      0.38168421E-17      0.70691434E-11      0.60786466E-25
    0.370522671788         0.16012256E-07      0.42793773E-03     -0.86999772E-17      0.72017970E-11     -0.14641258E-24
    0.373662694430         0.17049243E-07      0.41308047E-03     -0.30539376E-16      0.73397720E-11     -0.54263533E-24
    0.376802717072         0.18137141E-07      0.39913613E-03     -0.42879146E-17      0.74816672E-11     -0.80375460E-25
    0.379942739715         0.19277708E-07      0.38613027E-03     -0.19613521E-16      0.76294573E-11     -0.38753896E-24
    0.383082762357         0.20472742E-07      0.37390509E-03     -0.12944649E-16      0.77815714E-11     -0.26939915E-24
    0.386222784999         0.21724071E-07      0.36250029E-03     -0.17462021E-16      0.79402509E-11     -0.38249025E-24
    0.389362807641         0.23033564E-07      0.35176597E-03     -0.98093733E-17      0.81036943E-11     -0.22598025E-24
    0.392502830284         0.24403125E-07      0.34175692E-03     -0.26557566E-16      0.82745143E-11     -0.64300368E-24
    0.395642852926         0.25834693E-07      0.33232482E-03     -0.12150924E-17      0.84505562E-11     -0.30898104E-25
    0.398782875568         0.27330244E-07      0.32354276E-03      0.71279026E-17      0.86349780E-11      0.19023539E-24
    0.401922898210         0.28891791E-07      0.31525660E-03     -0.23850033E-16      0.88250758E-11     -0.66764138E-24
    0.405062920853         0.30521384E-07      0.30756267E-03      0.40399336E-17      0.90248065E-11      0.11854371E-24
    0.408202943495         0.32221107E-07      0.30029193E-03     -0.45463160E-17      0.92306128E-11     -0.13974829E-24
    0.411342966137         0.33993084E-07      0.29357358E-03     -0.47440926E-17      0.94476982E-11     -0.15267298E-24
    0.414482988779         0.35839473E-07      0.28721050E-03     -0.12834434E-17      0.96711420E-11     -0.43216956E-25
    0.417623011422         0.37762468E-07      0.28137919E-03      0.86141384E-17      0.99081018E-11      0.30332648E-24
    0.420763034064         0.39764301E-07      0.27583279E-03     -0.70347734E-17      0.10151360E-10     -0.25889784E-24
    0.423903056706         0.41847240E-07      0.27082130E-03      0.82999347E-17      0.10411316E-10      0.31907846E-24
    0.427043079349         0.44013589E-07      0.26601305E-03      0.10646784E-16      0.10676787E-10      0.42732280E-24
    0.430183101991         0.46265688E-07      0.26177743E-03     -0.10820194E-16      0.10963783E-10     -0.45317219E-24
    0.433323124633         0.48605914E-07      0.25763523E-03      0.82847349E-17      0.11253951E-10      0.36189152E-24
    0.436463147275         0.51036678E-07      0.25415916E-03     -0.12621702E-16      0.11573458E-10     -0.57474512E-24
    0.439603169918         0.53560430E-07      0.25060662E-03     -0.21766838E-16      0.11890451E-10     -0.10327641E-23
    0.442743192560         0.56179653E-07      0.24792065E-03     -0.64245578E-17      0.12250742E-10     -0.31746287E-24
    0.445883215202         0.58896866E-07      0.24485701E-03     -0.20729113E-17      0.12595231E-10     -0.10662875E-24
    0.449023237844         0.61714624E-07      0.24308407E-03     -0.12700262E-16      0.13010630E-10     -0.67975829E-24
    0.452163260487         0.64635518E-07      0.24030923E-03     -0.69073083E-17      0.13377315E-10     -0.38450974E-24
    0.455303283129         0.67662171E-07      0.23982835E-03     -0.82214420E-17      0.13879321E-10     -0.47579041E-24
    0.458443305771         0.70797244E-07      0.23676365E-03     -0.20020693E-16      0.14238633E-10     -0.12040163E-23
    0.461583328413         0.74043431E-07      0.23902821E-03     -0.55087241E-17      0.14931661E-10     -0.34412006E-24
    0.464723351056         0.77403460E-07      0.23292221E-03     -0.95398322E-17      0.15107734E-10     -0.61876987E-24
    0.467863373698         0.80880094E-07      0.24867798E-03     -0.10907347E-16      0.16741041E-10     -0.73428435E-24
    0.471003396340         0.84476127E-07      0.22249940E-03      0.57827963E-19      0.15540370E-10      0.40389678E-26
    0.474143418983         0.88194391E-07      0.19679530E-03     -0.19459964E-17      0.14255042E-10     -0.14095998E-24
    0.477283441625         0.92037747E-07      0.23832108E-03     -0.69167043E-17      0.17896768E-10     -0.51941126E-24
    0.480423464267         0.96009090E-07      0.23625148E-03     -0.37263544E-17      0.18385914E-10     -0.28999789E-24
    0.483563486909         0.10011135E-06      0.23788652E-03     -0.83162232E-17      0.19178833E-10     -0.67046866E-24
    0.486703509552         0.10434748E-06      0.23982536E-03     -0.95978076E-17      0.20023275E-10     -0.80133122E-24
    0.489843532194         0.10872047E-06      0.24323821E-03      0.79721033E-17      0.21023659E-10      0.68904791E-24
    0.492983554836         0.11323336E-06      0.24535451E-03      0.38381755E-17      0.21946160E-10      0.34331227E-24
    0.496123577478         0.11788918E-06      0.25093721E-03      0.18594023E-17      0.23220507E-10      0.17206003E-24
    0.499263600121         0.12269102E-06      0.25352933E-03      0.66430832E-17      0.24262393E-10      0.63573354E-24
    0.502403622763         0.12764201E-06      0.26177951E-03     -0.10524220E-16      0.25899957E-10     -0.10412459E-23
    0.505543645405         0.13274526E-06      0.26501762E-03     -0.11012356E-16      0.27099276E-10     -0.11260642E-23
    0.508683668048         0.13800397E-06      0.27696708E-03     -0.18870318E-16      0.29261359E-10     -0.19936345E-23
