
 # six columns.
 # Omega (column 1); |pulse ft|^2 (2); cross section (Mb) (3); flux (column 5)

  0.0000      0.116743E-11      0.000000E+00      0.000000E+00      0.345399E-07      0.127055E-20
  0.0031      0.119151E-11      0.117796E+03      0.408773E-11      0.348049E-07      0.120779E-20
  0.0063      0.126494E-11      0.223594E+03      0.212065E-10      0.350682E-07      0.332600E-20
  0.0094      0.139132E-11      0.307238E+03      0.195541E-10      0.353341E-07      0.224883E-20
  0.0126      0.157656E-11      0.364278E+03      0.150366E-10      0.356038E-07      0.146964E-20
  0.0157      0.182880E-11      0.395553E+03      0.415167E-10      0.358766E-07      0.376556E-20
  0.0188      0.215825E-11      0.405305E+03      0.139967E-10      0.361530E-07      0.124850E-20
  0.0220      0.257705E-11      0.399075E+03      0.310373E-10      0.364327E-07      0.283348E-20
  0.0251      0.309903E-11      0.382216E+03      0.152525E-10      0.367160E-07      0.146517E-20
  0.0283      0.373943E-11      0.359137E+03      0.930686E-11      0.370028E-07      0.958909E-21
  0.0314      0.451470E-11      0.333112E+03      0.183638E-10      0.372932E-07      0.205591E-20
  0.0345      0.544210E-11      0.306377E+03      0.237219E-10      0.375873E-07      0.291028E-20
  0.0377      0.653943E-11      0.280349E+03      0.343234E-10      0.378851E-07      0.463831E-20
  0.0408      0.782463E-11      0.255847E+03      0.111571E-10      0.381868E-07      0.166527E-20
  0.0440      0.931538E-11      0.233286E+03      0.157453E-10      0.384922E-07      0.259797E-20
  0.0471      0.110288E-10      0.212816E+03      0.119909E-10      0.388016E-07      0.218624E-20
  0.0503      0.129807E-10      0.194426E+03      0.222699E-10      0.391151E-07      0.448032E-20
  0.0534      0.151859E-10      0.178013E+03      0.771160E-11      0.394326E-07      0.170823E-20
  0.0565      0.176568E-10      0.163431E+03      0.362967E-11      0.397542E-07      0.882912E-21
  0.0597      0.204037E-10      0.150509E+03      0.121287E-10      0.400801E-07      0.322983E-20
  0.0628      0.234341E-10      0.139079E+03      0.212805E-12      0.404103E-07      0.618318E-22
  0.0660      0.267523E-10      0.128979E+03      0.612624E-11      0.407448E-07      0.193529E-20
  0.0691      0.303591E-10      0.120059E+03      0.535695E-11      0.410838E-07      0.183314E-20
  0.0722      0.342512E-10      0.112183E+03      0.324431E-11      0.414273E-07      0.119807E-20
  0.0754      0.384210E-10      0.105233E+03      0.101772E-10      0.417755E-07      0.404016E-20
  0.0785      0.428564E-10      0.991034E+02      0.360326E-11      0.421284E-07      0.153173E-20
  0.0817      0.475402E-10      0.937020E+02      0.338412E-11      0.424862E-07      0.153442E-20
  0.0848      0.524501E-10      0.889498E+02      0.568224E-11      0.428488E-07      0.273724E-20
  0.0879      0.575585E-10      0.847786E+02      0.660032E-11      0.432164E-07      0.336456E-20
  0.0911      0.628324E-10      0.811301E+02      0.664716E-12      0.435891E-07      0.357135E-21
  0.0942      0.682329E-10      0.779549E+02      0.270151E-11      0.439671E-07      0.152367E-20
  0.0974      0.737161E-10      0.752115E+02      0.314152E-11      0.443503E-07      0.185247E-20
  0.1005      0.792323E-10      0.728654E+02      0.377557E-11      0.447389E-07      0.231817E-20
  0.1036      0.847267E-10      0.708886E+02      0.180689E-11      0.451330E-07      0.115040E-20
  0.1068      0.901394E-10      0.692591E+02      0.452704E-11      0.455327E-07      0.297620E-20
  0.1099      0.954060E-10      0.679603E+02      0.168108E-11      0.459382E-07      0.113634E-20
  0.1131      0.100458E-09      0.669811E+02     -0.128265E-11      0.463495E-07     -0.887565E-21
  0.1162      0.105223E-09      0.663158E+02      0.314497E-11      0.467668E-07      0.221788E-20
  0.1194      0.109627E-09      0.659642E+02      0.590822E-11      0.471902E-07      0.422669E-20
  0.1225      0.113591E-09      0.659318E+02      0.144991E-11      0.476198E-07      0.104721E-20
  0.1256      0.117040E-09      0.662309E+02      0.346113E-11      0.480557E-07      0.251132E-20
  0.1288      0.119894E-09      0.668807E+02      0.202705E-11      0.484981E-07      0.146990E-20
  0.1319      0.122077E-09      0.679096E+02      0.371059E-11      0.489471E-07      0.267448E-20
  0.1351      0.123516E-09      0.693561E+02      0.266279E-11      0.494029E-07      0.189673E-20
  0.1382      0.124143E-09      0.712724E+02      0.444952E-11      0.498656E-07      0.311309E-20
  0.1413      0.123893E-09      0.737271E+02      0.296567E-11      0.503353E-07      0.202473E-20
  0.1445      0.122713E-09      0.768113E+02      0.321359E-12      0.508122E-07      0.212585E-21
  0.1476      0.120558E-09      0.806452E+02      0.158459E-11      0.512964E-07      0.100792E-20
  0.1508      0.117396E-09      0.853898E+02      0.252454E-11      0.517882E-07      0.153111E-20
  0.1539      0.113213E-09      0.912618E+02      0.328741E-11      0.522876E-07      0.188349E-20
  0.1570      0.108008E-09      0.985591E+02      0.326599E-11      0.527950E-07      0.174949E-20
  0.1602      0.101804E-09      0.107697E+03      0.833027E-12      0.533103E-07      0.412350E-21
  0.1633      0.946485E-10      0.119271E+03      0.533300E-12      0.538338E-07      0.240710E-21
  0.1665      0.866148E-10      0.134152E+03     -0.188091E-11      0.543657E-07     -0.762247E-21
  0.1696      0.778081E-10      0.153667E+03      0.125058E-10      0.549063E-07      0.446843E-20
  0.1727      0.683682E-10      0.179905E+03     -0.339996E-11      0.554556E-07     -0.104804E-20
  0.1759      0.584742E-10      0.216325E+03     -0.180174E-11      0.560139E-07     -0.466530E-21
  0.1790      0.483483E-10      0.269002E+03      0.174019E-11      0.565813E-07      0.366027E-21
  0.1822      0.382604E-10      0.349418E+03      0.107000E-10      0.571582E-07      0.175031E-20
  0.1853      0.285335E-10      0.481502E+03      0.109945E-10      0.577447E-07      0.131853E-20
  0.1884      0.195479E-10      0.722129E+03      0.521656E-11      0.583411E-07      0.421449E-21
  0.1916      0.117473E-10      0.123438E+04      0.444033E-10      0.589476E-07      0.212048E-20
  0.1947      0.564374E-11      0.263877E+04      0.118730E-09      0.595645E-07      0.268007E-20
  0.1979      0.182396E-11      0.838403E+04     -0.948233E-10      0.601919E-07     -0.680770E-21
  0.2010      0.955106E-12      0.164375E+05      0.509962E-09      0.608302E-07      0.188721E-20
  0.2042      0.379126E-11      0.425060E+04     -0.704293E-10      0.614796E-07     -0.101867E-20
  0.2073      0.111800E-10      0.147933E+04     -0.141684E-10      0.621405E-07     -0.595156E-21
  0.2104      0.240693E-10      0.705098E+03      0.198058E-10      0.628130E-07      0.176438E-20
  0.2136      0.435146E-10      0.400147E+03      0.334655E-11      0.634975E-07      0.531050E-21
  0.2167      0.706864E-10      0.252696E+03      0.107762E-10      0.641944E-07      0.273755E-20
  0.2199      0.106878E-09      0.171424E+03      0.837849E-12      0.649038E-07      0.317224E-21
  0.2230      0.153512E-09      0.122401E+03      0.121417E-11      0.656262E-07      0.650991E-21
  0.2261      0.212151E-09      0.908230E+02     -0.623776E-12      0.663619E-07     -0.455777E-21
  0.2293      0.284504E-09      0.694415E+02     -0.156630E-12      0.671113E-07     -0.151374E-21
  0.2324      0.372436E-09      0.543846E+02      0.103062E-11      0.678746E-07      0.128627E-20
  0.2356      0.477978E-09      0.434408E+02      0.193662E-11      0.686524E-07      0.306057E-20
  0.2387      0.603331E-09      0.352766E+02      0.521037E-12      0.694449E-07      0.102570E-20
  0.2418      0.750884E-09      0.290516E+02     -0.100567E-12      0.702526E-07     -0.243191E-21
  0.2450      0.923215E-09      0.242160E+02      0.862387E-13      0.710759E-07      0.253117E-21
  0.2481      0.112311E-08      0.203993E+02      0.359463E-12      0.719153E-07      0.126724E-20
  0.2513      0.135356E-08      0.173445E+02      0.228303E-12      0.727711E-07      0.957875E-21
  0.2544      0.161778E-08      0.148693E+02     -0.367432E-12      0.736441E-07     -0.181980E-20
  0.2575      0.191923E-08      0.128420E+02      0.852269E-13      0.745343E-07      0.494654E-21
  0.2607      0.226161E-08      0.111652E+02      0.371053E-12      0.754426E-07      0.250718E-20
  0.2638      0.264885E-08      0.976627E+01      0.421540E-12      0.763693E-07      0.329631E-20
  0.2670      0.308520E-08      0.858993E+01      0.341876E-12      0.773152E-07      0.307711E-20
  0.2701      0.357513E-08      0.759363E+01     -0.942831E-13      0.782805E-07     -0.971937E-21
  0.2733      0.412343E-08      0.674431E+01      0.587674E-13      0.792663E-07      0.690696E-21
  0.2764      0.473519E-08      0.601591E+01     -0.115429E-12      0.802726E-07     -0.154021E-20
  0.2795      0.541581E-08      0.538777E+01     -0.572838E-13      0.813007E-07     -0.864404E-21
  0.2827      0.617101E-08      0.484331E+01     -0.594007E-13      0.823506E-07     -0.100999E-20
  0.2858      0.700684E-08      0.436916E+01     -0.549756E-13      0.834237E-07     -0.104969E-20
  0.2890      0.792971E-08      0.395439E+01      0.102441E-12      0.845200E-07      0.218955E-20
  0.2921      0.894638E-08      0.359010E+01      0.112245E-12      0.856410E-07      0.267758E-20
  0.2952      0.100640E-07      0.326888E+01      0.529658E-15      0.867868E-07      0.140621E-22
  0.2984      0.112901E-07      0.298466E+01      0.323908E-13      0.879589E-07      0.954566E-21
  0.3015      0.126326E-07      0.273229E+01      0.865431E-13      0.891574E-07      0.282399E-20
  0.3047      0.140998E-07      0.250750E+01      0.358222E-13      0.903842E-07      0.129123E-20
  0.3078      0.157004E-07      0.230667E+01      0.367285E-13      0.916391E-07      0.145915E-20
  0.3109      0.174437E-07      0.212674E+01      0.106395E-13      0.929242E-07      0.464876E-21
  0.3141      0.193393E-07      0.196508E+01      0.938312E-14      0.942394E-07      0.449986E-21
  0.3172      0.213973E-07      0.181950E+01      0.371590E-14      0.955872E-07      0.195215E-21
  0.3204      0.236282E-07      0.168804E+01      0.134783E-13      0.969671E-07      0.774241E-21
  0.3235      0.260430E-07      0.156910E+01     -0.491825E-13      0.983820E-07     -0.308373E-20
  0.3266      0.286534E-07      0.146121E+01      0.726436E-14      0.998314E-07      0.496308E-21
  0.3298      0.314714E-07      0.136317E+01     -0.277784E-13      0.101319E-06     -0.206464E-20
  0.3329      0.345095E-07      0.127388E+01     -0.335456E-13      0.102843E-06     -0.270819E-20
  0.3361      0.377808E-07      0.119243E+01      0.570231E-13      0.104408E-06      0.499286E-20
  0.3392      0.412990E-07      0.111797E+01      0.394810E-13      0.106013E-06      0.374382E-20
  0.3423      0.450782E-07      0.104981E+01      0.295209E-13      0.107662E-06      0.302748E-20
  0.3455      0.491332E-07      0.987277E+00      0.189688E-14      0.109354E-06      0.210104E-21
  0.3486      0.534794E-07      0.929851E+00      0.347559E-14      0.111093E-06      0.415245E-21
  0.3518      0.581327E-07      0.877007E+00      0.223777E-13      0.112880E-06      0.288024E-20
  0.3549      0.631095E-07      0.828334E+00     -0.121844E-14      0.114718E-06     -0.168745E-21
  0.3581      0.684271E-07      0.783416E+00      0.489045E-14      0.116608E-06      0.727919E-21
  0.3612      0.741031E-07      0.741931E+00     -0.177042E-14      0.118553E-06     -0.282896E-21
  0.3643      0.801559E-07      0.703548E+00     -0.106009E-13      0.120554E-06     -0.181649E-20
  0.3675      0.866045E-07      0.668011E+00     -0.995024E-14      0.122617E-06     -0.182641E-20
  0.3706      0.934686E-07      0.635055E+00     -0.172659E-13      0.124740E-06     -0.339144E-20
  0.3738      0.100768E-06      0.604472E+00     -0.224694E-13      0.126930E-06     -0.471824E-20
  0.3769      0.108525E-06      0.576052E+00     -0.142078E-13      0.129188E-06     -0.318630E-20
  0.3800      0.116760E-06      0.549624E+00      0.660259E-14      0.131518E-06      0.157991E-20
  0.3832      0.125495E-06      0.525022E+00      0.328172E-14      0.133923E-06      0.837107E-21
  0.3863      0.134755E-06      0.502100E+00      0.791633E-14      0.136408E-06      0.215067E-20
  0.3895      0.144561E-06      0.480731E+00      0.154452E-13      0.138977E-06      0.446512E-20
  0.3926      0.154939E-06      0.460785E+00      0.554377E-15      0.141632E-06      0.170399E-21
  0.3957      0.165914E-06      0.442173E+00     -0.440278E-14      0.144383E-06     -0.143764E-20
  0.3989      0.177511E-06      0.424770E+00      0.626703E-14      0.147227E-06      0.217218E-20
  0.4020      0.189758E-06      0.408525E+00     -0.189008E-14      0.150182E-06     -0.694832E-21
  0.4052      0.202680E-06      0.393306E+00     -0.586822E-14      0.153237E-06     -0.228633E-20
  0.4083      0.216306E-06      0.379108E+00     -0.617467E-14      0.156423E-06     -0.254772E-20
  0.4114      0.230665E-06      0.365779E+00     -0.322810E-14      0.159713E-06     -0.140952E-20
  0.4146      0.245786E-06      0.353367E+00     -0.523821E-14      0.163163E-06     -0.241868E-20
  0.4177      0.261699E-06      0.341683E+00     -0.124094E-13      0.166719E-06     -0.605496E-20
  0.4209      0.278435E-06      0.330845E+00     -0.740388E-14      0.170473E-06     -0.381496E-20
  0.4240      0.296025E-06      0.320604E+00     -0.128392E-13      0.174331E-06     -0.698140E-20
  0.4271      0.314501E-06      0.311175E+00      0.527366E-14      0.178443E-06      0.302417E-20
  0.4303      0.333897E-06      0.302208E+00      0.137414E-14      0.182646E-06      0.830489E-21
  0.4334      0.354245E-06      0.294066E+00      0.159574E-14      0.187189E-06      0.101578E-20
  0.4366      0.375581E-06      0.286237E+00      0.236042E-14      0.191790E-06      0.158157E-20
  0.4397      0.397938E-06      0.279304E+00      0.125335E-14      0.196869E-06      0.883429E-21
  0.4429      0.421354E-06      0.272504E+00     -0.531335E-14      0.201936E-06     -0.393738E-20
  0.4460      0.445864E-06      0.266767E+00     -0.171679E-14      0.207710E-06     -0.133672E-20
  0.4491      0.471505E-06      0.260913E+00     -0.603360E-14      0.213332E-06     -0.493331E-20
  0.4523      0.498315E-06      0.256455E+00     -0.548672E-14      0.220071E-06     -0.470831E-20
  0.4554      0.526332E-06      0.251492E+00     -0.717892E-14      0.226374E-06     -0.646193E-20
  0.4586      0.555596E-06      0.248588E+00     -0.611841E-14      0.234583E-06     -0.577372E-20
  0.4617      0.586146E-06      0.244511E+00     -0.887430E-14      0.241768E-06     -0.877473E-20
  0.4648      0.618022E-06      0.243906E+00     -0.110652E-13      0.252567E-06     -0.114581E-19
  0.4680      0.651266E-06      0.240833E+00     -0.884658E-14      0.261035E-06     -0.958868E-20
  0.4711      0.685919E-06      0.244785E+00      0.484369E-14      0.277573E-06      0.549248E-20
  0.4743      0.722022E-06      0.243362E+00      0.120548E-14      0.288561E-06      0.142937E-20
  0.4774      0.759619E-06      0.261832E+00      0.480584E-15      0.324479E-06      0.595570E-21
  0.4805      0.798753E-06      0.267838E+00     -0.104788E-14      0.346741E-06     -0.135658E-20
  0.4837      0.839468E-06      0.449732E+00     -0.361287E-14      0.607923E-06     -0.488367E-20
  0.4868      0.881808E-06      0.472307E+00     -0.571326E-14      0.666312E-06     -0.806005E-20
  0.4900      0.925817E-06      0.187912E+00     -0.340388E-14      0.276545E-06     -0.500941E-20
  0.4931      0.971542E-06      0.148989E+00     -0.222735E-14      0.228628E-06     -0.341791E-20
  0.4962      0.101903E-05      0.170598E+00     -0.477895E-14      0.272843E-06     -0.764315E-20
  0.4994      0.106832E-05      0.171264E+00     -0.578675E-14      0.285352E-06     -0.964162E-20
  0.5025      0.111947E-05      0.175131E+00     -0.587366E-14      0.303854E-06     -0.101909E-19
  0.5057      0.117251E-05      0.178348E+00     -0.648210E-14      0.322086E-06     -0.117063E-19
  0.5088      0.122751E-05      0.177108E+00     -0.738883E-14      0.332781E-06     -0.138834E-19
  0.5120      0.128450E-05      0.182038E+00     -0.947843E-14      0.355729E-06     -0.185222E-19
  0.5151      0.134353E-05      0.177448E+00      0.127040E-15      0.360484E-06      0.258080E-21
  0.5182      0.140466E-05      0.184427E+00     -0.835706E-14      0.389334E-06     -0.176421E-19
  0.5214      0.146792E-05      0.175515E+00      0.703138E-15      0.384876E-06      0.154186E-20
  0.5245      0.153338E-05      0.185105E+00     -0.121485E-13      0.421465E-06     -0.276609E-19
  0.5277      0.160107E-05      0.167791E+00     -0.281693E-14      0.396534E-06     -0.665715E-20
  0.5308      0.167105E-05      0.180270E+00     -0.136966E-13      0.442014E-06     -0.335835E-19
  0.5339      0.174336E-05      0.141240E+00     -0.192302E-14      0.359178E-06     -0.489029E-20
  0.5371      0.181807E-05      0.153092E+00      0.482162E-14      0.403624E-06      0.127121E-19
  0.5402      0.189520E-05      0.305034E-01      0.702344E-15      0.833464E-07      0.191906E-20
  0.5434      0.197482E-05     -0.877185E-02     -0.201630E-15     -0.248305E-07     -0.570755E-21
  0.5465      0.205698E-05     -0.105031E+01      0.424743E-13     -0.307900E-05      0.124514E-18
  0.5496      0.214172E-05     -0.317396E+01     -0.430517E-13     -0.963245E-05     -0.130655E-18
  0.5528      0.222909E-05     -0.201026E+01      0.951017E-13     -0.631360E-05      0.298685E-18
  0.5559      0.231914E-05      0.270854E+00      0.158048E-14      0.880033E-06      0.513514E-20
  0.5591      0.241192E-05      0.621719E+00     -0.338896E-13      0.208905E-05     -0.113873E-18
  0.5622      0.250748E-05      0.135129E+01     -0.335280E-14      0.469401E-05     -0.116467E-19
  0.5653      0.260587E-05      0.217953E+01     -0.137791E-12      0.782443E-05     -0.494667E-18
  0.5685      0.270713E-05      0.763158E+01     -0.831304E-13      0.283046E-04     -0.308320E-18
  0.5716      0.281132E-05      0.178407E+02     -0.128124E-11      0.683380E-04     -0.490771E-17
  0.5748      0.291847E-05      0.204463E+02     -0.391526E-12      0.808596E-04     -0.154838E-17
  0.5779      0.302865E-05      0.158214E+02     -0.126836E-11      0.645786E-04     -0.517707E-17
  0.5810      0.314189E-05      0.122283E+02     -0.336284E-12      0.514989E-04     -0.141624E-17
  0.5842      0.325824E-05      0.114621E+02      0.289369E-12      0.497903E-04      0.125700E-17
  0.5873      0.337775E-05      0.117563E+02     -0.420191E-12      0.526582E-04     -0.188211E-17
  0.5905      0.350046E-05      0.121986E+02      0.206567E-12      0.563231E-04      0.953759E-18
  0.5936      0.362641E-05      0.128372E+02     -0.566110E-12      0.610798E-04     -0.269356E-17
  0.5968      0.375566E-05      0.128796E+02      0.111978E-12      0.631316E-04      0.548877E-18
  0.5999      0.388823E-05      0.129291E+02     -0.676872E-12      0.652676E-04     -0.341693E-17
  0.6030      0.402418E-05      0.125835E+02      0.456322E-14      0.654019E-04      0.237169E-19
  0.6062      0.416354E-05      0.123603E+02     -0.748936E-12      0.661220E-04     -0.400647E-17
  0.6093      0.430636E-05      0.120633E+02     -0.954052E-13      0.664029E-04     -0.525160E-18
  0.6125      0.445267E-05      0.118924E+02     -0.819753E-12      0.673388E-04     -0.464174E-17
  0.6156      0.460252E-05      0.117456E+02     -0.190264E-12      0.683951E-04     -0.110792E-17
  0.6187      0.475594E-05      0.116485E+02     -0.898731E-12      0.697353E-04     -0.538035E-17
  0.6219      0.491296E-05      0.115796E+02     -0.283857E-12      0.712497E-04     -0.174658E-17
  0.6250      0.507363E-05      0.114891E+02     -0.982572E-12      0.726380E-04     -0.621214E-17
  0.6282      0.523797E-05      0.114260E+02     -0.374315E-12      0.742059E-04     -0.243098E-17
