
 # Omega; pulse ft; projected flux at t=    1000.2500000000000     
    0.000000000000         0.10847490E-10      0.00000000E+00      0.00000000E+00      0.32466239E-13      0.00000000E+00
    0.003140022642         0.11093634E-10      0.23636020E-04     -0.10895976E-16      0.32519057E-13     -0.14990970E-25
    0.006280045285         0.11830642E-10      0.44478315E-04     -0.62503429E-16      0.32629950E-13     -0.45853440E-25
    0.009420067927         0.13054251E-10      0.60625199E-04     -0.50142473E-16      0.32717012E-13     -0.27059901E-25
    0.012560090569         0.14757372E-10      0.71673053E-04     -0.11488626E-16      0.32794024E-13     -0.52566239E-26
    0.015700113211         0.16930121E-10      0.78297527E-04      0.37526433E-16      0.32879702E-13      0.15758581E-25
    0.018840135854         0.19559852E-10      0.81506254E-04      0.20372102E-16      0.32953004E-13      0.82364474E-26
    0.021980158496         0.22631207E-10      0.82404577E-04     -0.11817292E-16      0.33040817E-13     -0.47382437E-26
    0.025120181138         0.26126176E-10      0.81756503E-04     -0.79282360E-16      0.33112954E-13     -0.32110879E-25
    0.028260203780         0.30024165E-10      0.80254428E-04     -0.32695605E-16      0.33203755E-13     -0.13527190E-25
    0.031400226423         0.34302079E-10      0.78218832E-04     -0.64083336E-16      0.33275266E-13     -0.27261850E-25
    0.034540249065         0.38934408E-10      0.76017097E-04      0.83240975E-16      0.33368903E-13      0.36539939E-25
    0.037680271707         0.43893332E-10      0.73716125E-04     -0.24283048E-16      0.33440254E-13     -0.11015654E-25
    0.040820294349         0.49148832E-10      0.71525556E-04     -0.60597455E-17      0.33536741E-13     -0.28412798E-26
    0.043960316992         0.54668813E-10      0.69397121E-04      0.14038214E-16      0.33608012E-13      0.67985019E-26
    0.047100339634         0.60419233E-10      0.67476670E-04     -0.27552629E-16      0.33707563E-13     -0.13763749E-25
    0.050240362276         0.66364250E-10      0.65665918E-04     -0.60256041E-16      0.33778782E-13     -0.30995923E-25
    0.053380384919         0.72466374E-10      0.64087851E-04     -0.61254249E-17      0.33880755E-13     -0.32382740E-26
    0.056520407561         0.78686628E-10      0.62625540E-04     -0.35794950E-16      0.33952338E-13     -0.19406175E-25
    0.059660430203         0.84984724E-10      0.61394585E-04     -0.16495038E-16      0.34057056E-13     -0.91501949E-26
    0.062800452845         0.91319245E-10      0.60269982E-04     -0.34503291E-16      0.34128967E-13     -0.19538112E-25
    0.065940475488         0.97647837E-10      0.59368083E-04     -0.97096103E-16      0.34236245E-13     -0.55993150E-25
    0.069080498130         0.10392742E-09      0.58560689E-04     -0.10113825E-15      0.34308631E-13     -0.59253315E-25
    0.072220520772         0.11011438E-09      0.57967434E-04     -0.53583132E-16      0.34418348E-13     -0.31815155E-25
    0.075360543414         0.11616481E-09      0.57458817E-04      0.56104657E-17      0.34491318E-13      0.33678444E-26
    0.078500566057         0.12203475E-09      0.57159049E-04     -0.47174327E-17      0.34603360E-13     -0.28558737E-26
    0.081640588699         0.12768041E-09      0.56937927E-04      0.22328484E-16      0.34677064E-13      0.13598779E-25
    0.084780611341         0.13305840E-09      0.56924542E-04     -0.10570031E-16      0.34791074E-13     -0.64601792E-26
    0.087920633984         0.13812604E-09      0.56989459E-04      0.44147032E-16      0.34865977E-13      0.27009020E-25
    0.091060656626         0.14284161E-09      0.57265135E-04      0.47603158E-16      0.34981368E-13      0.29079188E-25
    0.094200679268         0.14716459E-09      0.57624988E-04      0.20173227E-16      0.35057641E-13      0.12272901E-25
    0.097340701910         0.15105600E-09      0.58207032E-04     -0.45408679E-16      0.35175600E-13     -0.27441315E-25
    0.100480724553         0.15447866E-09      0.58881265E-04      0.46018087E-17      0.35252135E-13      0.27550967E-26
    0.103620747195         0.15739751E-09      0.59799463E-04     -0.11062242E-17      0.35372923E-13     -0.65436012E-27
    0.106760769837         0.15977989E-09      0.60824951E-04     -0.11855558E-16      0.35449877E-13     -0.69096327E-26
    0.109900792479         0.16159592E-09      0.62125187E-04      0.23647876E-16      0.35572945E-13      0.13540797E-25
    0.113040815122         0.16281876E-09      0.63558210E-04      0.87956230E-17      0.35650314E-13      0.49335361E-26
    0.116180837764         0.16342499E-09      0.65308304E-04      0.29386767E-16      0.35774611E-13      0.16097496E-25
    0.119320860406         0.16339494E-09      0.67233438E-04     -0.84874723E-17      0.35853378E-13     -0.45260894E-26
    0.122460883048         0.16271302E-09      0.69516351E-04     -0.28622647E-16      0.35969502E-13     -0.14810075E-25
    0.125600905691         0.16136811E-09      0.72086590E-04      0.54711980E-18      0.36066331E-13      0.27373473E-27
    0.128740928333         0.15935390E-09      0.74879096E-04      0.28327210E-16      0.36093516E-13      0.13654393E-25
    0.131880950975         0.15666928E-09      0.78504729E-04     -0.50507263E-16      0.36317851E-13     -0.23365666E-25
    0.135020973618         0.15331870E-09      0.82027793E-04     -0.68777727E-16      0.36272497E-13     -0.30413349E-25
    0.138160996260         0.14931255E-09      0.86444388E-04     -0.11017750E-15      0.36380629E-13     -0.46368850E-25
    0.141301018902         0.14466758E-09      0.91663153E-04     -0.67894715E-17      0.36546287E-13     -0.27069762E-26
    0.144441041544         0.13940727E-09      0.97447696E-04      0.32693912E-16      0.36625954E-13      0.12288086E-25
    0.147581064187         0.13356225E-09      0.10434573E-03     -0.30371947E-16      0.36774802E-13     -0.10704054E-25
    0.150721086829         0.12717068E-09      0.11215398E-03      0.75326647E-16      0.36851079E-13      0.24750511E-25
    0.153861109471         0.12027870E-09      0.12157784E-03      0.25486750E-16      0.37011514E-13      0.77588414E-26
    0.157001132113         0.11294082E-09      0.13241480E-03      0.62652764E-16      0.37094305E-13      0.17551366E-25
    0.160141154756         0.10522036E-09      0.14552691E-03     -0.21459595E-16      0.37235968E-13     -0.54908663E-26
    0.163281177398         0.97189861E-10      0.16105184E-03     -0.18455791E-16      0.37331297E-13     -0.42779927E-26
    0.166421200040         0.88931555E-10      0.18001908E-03      0.17253818E-15      0.37461771E-13      0.35905004E-25
    0.169561222683         0.80537758E-10      0.20309144E-03     -0.17931822E-15      0.37565326E-13     -0.33168051E-25
    0.172701245325         0.72111337E-10      0.23179051E-03     -0.14378185E-15      0.37690011E-13     -0.23379471E-25
    0.175841267967         0.63766150E-10      0.26767033E-03     -0.31584632E-15      0.37800032E-13     -0.44603379E-25
    0.178981290609         0.55627495E-10      0.31330159E-03     -0.29106204E-15      0.37919884E-13     -0.35228161E-25
    0.182121313252         0.47832561E-10      0.37188757E-03     -0.39752042E-16      0.38036195E-13     -0.40657891E-26
    0.185261335894         0.40530887E-10      0.44779951E-03     -0.23313444E-15      0.38151136E-13     -0.19862334E-25
    0.188401358536         0.33884816E-10      0.54643447E-03     -0.38006104E-15      0.38272051E-13     -0.26619322E-25
    0.191541381178         0.28069961E-10      0.67261087E-03     -0.18266943E-15      0.38385360E-13     -0.10424797E-25
    0.194681403821         0.23275664E-10      0.82713537E-03      0.32261907E-15      0.38510286E-13      0.15020700E-25
    0.197821426463         0.19705465E-10      0.99564307E-03     -0.77113933E-15      0.38622429E-13     -0.29913606E-25
    0.200961449105         0.17577570E-10      0.11376841E-02     -0.94989267E-15      0.38751660E-13     -0.32355130E-25
    0.204101471747         0.17125315E-10      0.11893624E-02     -0.10155376E-14      0.38862362E-13     -0.33182645E-25
    0.207241494390         0.18597645E-10      0.11158746E-02     -0.10123711E-14      0.38995919E-13     -0.35378834E-25
    0.210381517032         0.22259579E-10      0.94907857E-03      0.79666674E-15      0.39105160E-13      0.32825291E-25
    0.213521539674         0.28392684E-10      0.75783489E-03     -0.23317116E-14      0.39242973E-13     -0.12074305E-24
    0.216661562317         0.37295552E-10      0.58702466E-03     -0.65381840E-15      0.39350845E-13     -0.43828323E-25
    0.219801584959         0.49284270E-10      0.45229111E-03     -0.74651431E-16      0.39492816E-13     -0.65183577E-26
    0.222941607601         0.64692893E-10      0.35042998E-03     -0.39658587E-16      0.39599458E-13     -0.44815188E-26
    0.226081630243         0.83873922E-10      0.27510817E-03     -0.53330715E-16      0.39745476E-13     -0.77048045E-26
    0.229221652886         0.10719877E-09      0.21881804E-03      0.53834284E-15      0.39851057E-13      0.98042789E-25
    0.232361675528         0.13505825E-09      0.17672240E-03     -0.19478495E-16      0.40000992E-13     -0.44089436E-26
    0.235501698170         0.16786301E-09      0.14448495E-03     -0.48856017E-16      0.40105702E-13     -0.13561308E-25
    0.238641720812         0.20604406E-09      0.11973778E-03      0.64862914E-16      0.40259418E-13      0.21808849E-25
    0.241781743455         0.25005319E-09      0.10022060E-03      0.92934667E-16      0.40363464E-13      0.37429083E-25
    0.244921766097         0.30036346E-09      0.84846923E-04     -0.22064781E-16      0.40520832E-13     -0.10537604E-25
    0.248061788739         0.35746965E-09      0.72391124E-04      0.74025175E-17      0.40624419E-13      0.41541415E-26
    0.251201811381         0.42188874E-09      0.62360040E-04      0.18695385E-17      0.40785341E-13      0.12227344E-26
    0.254341834024         0.49416037E-09      0.54041886E-04     -0.69303226E-17      0.40888686E-13     -0.52435584E-26
    0.257481856666         0.57484728E-09      0.47218714E-04     -0.95488898E-17      0.41052778E-13     -0.83019722E-26
    0.260621879308         0.66453577E-09      0.41448306E-04     -0.47715088E-16      0.41156347E-13     -0.47378986E-25
    0.263761901951         0.76383615E-09      0.36642529E-04      0.20480756E-16      0.41323407E-13      0.23097058E-25
    0.266901924593         0.87338321E-09      0.32509743E-04     -0.10638970E-16      0.41427546E-13     -0.13557364E-25
    0.270041947235         0.99383660E-09      0.29024335E-04      0.11278104E-17      0.41597629E-13      0.16163760E-26
    0.273181969877         0.11258814E-08      0.25983489E-04     -0.18852572E-16      0.41702357E-13     -0.30257549E-25
    0.276321992520         0.12702283E-08      0.23392082E-04     -0.12405247E-16      0.41875281E-13     -0.22207223E-25
    0.279462015162         0.14276143E-08      0.21102827E-04      0.11507665E-17      0.41980854E-13      0.22892743E-26
    0.282602037804         0.15988030E-08      0.19134627E-04     -0.19250844E-16      0.42156274E-13     -0.42412318E-25
    0.285742060446         0.17845852E-08      0.17377110E-04     -0.32658867E-17      0.42263282E-13     -0.79430405E-26
    0.288882083089         0.19857789E-08      0.15854487E-04     -0.30583084E-17      0.42440941E-13     -0.81867985E-26
    0.292022105731         0.22032301E-08      0.14482054E-04     -0.45686853E-17      0.42549732E-13     -0.13423257E-25
    0.295162128373         0.24378129E-08      0.13285123E-04      0.88227248E-17      0.42729507E-13      0.28376904E-25
    0.298302151016         0.26904304E-08      0.12197341E-04      0.36385431E-17      0.42840358E-13      0.12779547E-25
    0.301442173658         0.29620145E-08      0.11243081E-04      0.63833959E-17      0.43022044E-13      0.24426289E-25
    0.304582196300         0.32535265E-08      0.10369519E-04     -0.43019647E-17      0.43135119E-13     -0.17895310E-25
    0.307722218942         0.35659575E-08      0.95992517E-05      0.19917590E-17      0.43318881E-13      0.89882812E-26
    0.310862241585         0.39003290E-08      0.88896323E-05     -0.15373502E-17      0.43434978E-13     -0.75115335E-26
    0.314002264227         0.42576927E-08      0.82607372E-05     -0.18980648E-17      0.43619721E-13     -0.10022478E-25
    0.317142286869         0.46391314E-08      0.76783558E-05     -0.44416926E-17      0.43739448E-13     -0.25301925E-25
    0.320282309511         0.50457590E-08      0.71598961E-05      0.12089396E-17      0.43926117E-13      0.74168702E-26
    0.323422332154         0.54787210E-08      0.66774309E-05      0.59289152E-18      0.44049514E-13      0.39111724E-26
    0.326562354796         0.59391947E-08      0.62461170E-05      0.43323286E-17      0.44237859E-13      0.30683534E-25
    0.329702377438         0.64283897E-08      0.58430774E-05     -0.19160454E-17      0.44365390E-13     -0.14548173E-25
    0.332842400080         0.69475481E-08      0.54814219E-05     -0.27272327E-17      0.44556256E-13     -0.22168569E-25
    0.335982422723         0.74979446E-08      0.51421320E-05     -0.15910528E-17      0.44688053E-13     -0.13827154E-25
    0.339122445365         0.80808871E-08      0.48369793E-05      0.39033674E-17      0.44884798E-13      0.36221337E-25
    0.342262468007         0.86977170E-08      0.45490437E-05     -0.38852361E-18      0.45018254E-13     -0.38449081E-26
    0.345402490650         0.93498090E-08      0.42908051E-05      0.23587767E-18      0.45231252E-13      0.24864896E-26
    0.348542513292         0.10038572E-07      0.40439341E-05     -0.23830368E-17      0.45356841E-13     -0.26728185E-25
    0.351682535934         0.10765449E-07      0.38209820E-05      0.65301882E-18      0.45549002E-13      0.77844794E-26
    0.354822558576         0.11531917E-07      0.36105298E-05     -0.16735239E-17      0.45696585E-13     -0.21180915E-25
    0.357962581219         0.12339487E-07      0.34172163E-05     -0.12791955E-17      0.45872720E-13     -0.17171924E-25
    0.361102603861         0.13189707E-07      0.32359240E-05      0.15828047E-18      0.46028349E-13      0.22514090E-26
    0.364242626503         0.14084158E-07      0.30692268E-05     -0.17087104E-17      0.46215926E-13     -0.25729487E-25
    0.367382649145         0.15024457E-07      0.29119725E-05     -0.32493880E-18      0.46375646E-13     -0.51749275E-26
    0.370522671788         0.16012256E-07      0.27671010E-05     -0.23895875E-17      0.46567756E-13     -0.40214551E-25
    0.373662694430         0.17049243E-07      0.26301339E-05      0.66621970E-18      0.46733226E-13      0.11837647E-25
    0.376802717072         0.18137141E-07      0.25035330E-05     -0.73067264E-18      0.46927851E-13     -0.13696203E-25
    0.379942739715         0.19277708E-07      0.23837441E-05     -0.24750860E-17      0.47099840E-13     -0.48904643E-25
    0.383082762357         0.20472742E-07      0.22725950E-05      0.37684977E-18      0.47296389E-13      0.78428551E-26
    0.386222784999         0.21724071E-07      0.21674196E-05     -0.15486134E-17      0.47475426E-13     -0.33921019E-25
    0.389362807641         0.23033564E-07      0.20694279E-05     -0.17691279E-17      0.47673772E-13     -0.40755710E-25
    0.392502830284         0.24403125E-07      0.19767426E-05     -0.14364018E-17      0.47860289E-13     -0.34777722E-25
    0.395642852926         0.25834693E-07      0.18900192E-05     -0.19389113E-18      0.48060549E-13     -0.49303807E-26
    0.398782875568         0.27330244E-07      0.18080560E-05     -0.15205672E-17      0.48254899E-13     -0.40582160E-25
    0.401922898210         0.28891791E-07      0.17310332E-05     -0.22126073E-17      0.48457351E-13     -0.61938203E-25
    0.405062920853         0.30521384E-07      0.16583112E-05      0.34702049E-18      0.48659798E-13      0.10182617E-25
    0.408202943495         0.32221107E-07      0.15896746E-05     -0.24862666E-18      0.48864685E-13     -0.76424844E-26
    0.411342966137         0.33993084E-07      0.15249556E-05     -0.88721317E-18      0.49075672E-13     -0.28552032E-25
    0.414482988779         0.35839473E-07      0.14636124E-05     -0.15759572E-17      0.49283726E-13     -0.53066673E-25
    0.417623011422         0.37762468E-07      0.14058229E-05      0.17698197E-19      0.49502724E-13      0.62320012E-27
    0.420763034064         0.39764301E-07      0.13508445E-05     -0.16856431E-18      0.49714568E-13     -0.62036022E-26
    0.423903056706         0.41847240E-07      0.12990874E-05      0.34678821E-19      0.49941455E-13      0.13331749E-26
    0.427043079349         0.44013589E-07      0.12496867E-05      0.97989655E-18      0.50157834E-13      0.39329449E-25
    0.430183101991         0.46265688E-07      0.12031717E-05      0.36126078E-18      0.50391333E-13      0.15130352E-25
    0.433323124633         0.48605914E-07      0.11586895E-05     -0.46065634E-18      0.50613556E-13     -0.20122264E-25
    0.436463147275         0.51036678E-07      0.11167083E-05     -0.64503423E-18      0.50850720E-13     -0.29372447E-25
    0.439603169918         0.53560430E-07      0.10765931E-05     -0.17036267E-17      0.51080761E-13     -0.80831422E-25
    0.442743192560         0.56179653E-07      0.10384664E-05     -0.26382654E-18      0.51314741E-13     -0.13036715E-25
    0.445883215202         0.58896866E-07      0.10022761E-05     -0.67701484E-18      0.51556210E-13     -0.34825054E-25
    0.449023237844         0.61714624E-07      0.96724408E-06     -0.60738104E-18      0.51769968E-13     -0.32508958E-25
    0.452163260487         0.64635518E-07      0.93468273E-06     -0.31788492E-18      0.52031066E-13     -0.17695728E-25
    0.455303283129         0.67662171E-07      0.90156851E-06     -0.43153519E-18      0.52175476E-13     -0.24973759E-25
    0.458443305771         0.70797244E-07      0.87269734E-06     -0.37345187E-18      0.52482790E-13     -0.22458870E-25
    0.461583328413         0.74043431E-07      0.83830662E-06     -0.11984162E-18      0.52367502E-13     -0.74862900E-26
    0.464723351056         0.77403460E-07      0.81526724E-06     -0.32222523E-18      0.52879631E-13     -0.20900081E-25
    0.467863373698         0.80880094E-07      0.75933056E-06      0.12807827E-18      0.51118255E-13      0.86222497E-26
    0.471003396340         0.84476127E-07      0.77629819E-06     -0.83963491E-19      0.54220195E-13     -0.58643920E-26
    0.474143418983         0.88194391E-07      0.79957221E-06      0.13480225E-18      0.57917722E-13      0.97645203E-26
    0.477283441625         0.92037747E-07      0.73166860E-06     -0.80845032E-18      0.54944797E-13     -0.60710735E-25
    0.480423464267         0.96009090E-07      0.72066492E-06     -0.91634324E-20      0.56084657E-13     -0.71313026E-27
    0.483563486909         0.10011135E-06      0.69865377E-06     -0.27951011E-18      0.56326706E-13     -0.22534601E-25
    0.486703509552         0.10434748E-06      0.67949753E-06     -0.57079955E-18      0.56731976E-13     -0.47656665E-25
    0.489843532194         0.10872047E-06      0.66014392E-06     -0.16041463E-18      0.57057814E-13     -0.13865019E-25
    0.492983554836         0.11323336E-06      0.64377259E-06     -0.37520988E-18      0.57583357E-13     -0.33561298E-25
    0.496123577478         0.11788918E-06      0.62625484E-06     -0.40006067E-18      0.57950570E-13     -0.37019665E-25
    0.499263600121         0.12269102E-06      0.61245729E-06     -0.54294557E-18      0.58611284E-13     -0.51959112E-25
    0.502403622763         0.12764201E-06      0.59677081E-06     -0.44899136E-18      0.59043348E-13     -0.44422335E-25
    0.505543645405         0.13274526E-06      0.58544983E-06     -0.29226266E-18      0.59864947E-13     -0.29885207E-25
    0.508683668048         0.13800397E-06      0.57190644E-06     -0.18613221E-18      0.60421475E-13     -0.19664725E-25
