 ## Photon energy (column 1); D(omega) (2,3); E(omega) (4,5); response (6,7); cross sect (9)
 ## UNITLESS RESPONSE FUNCTION FOR ABSORPTION/EMISSION ( 2 omega Im(D(omega)E(omega)*) ) IN COLUMN 7
 ## QUANTUM MECHANICAL PHOTOABSORPTION/EMISSION CROSS SECTION IN MEGABARNS (no factor of 1/3) IN COLUMN 9

    0.000000000000        -0.17569040E-04      0.00000000E+00      0.59278154E-05      0.00000000E+00     -0.00000000E+00      0.00000000E+00     -0.00000000E+00      0.00000000E+00
    0.006276908399        -0.28389931E-05      0.42270219E-05      0.61768459E-05     -0.44117880E-06     -0.24355528E-12      0.31205222E-12     -0.81545794E-02      0.10447955E-01
    0.012553816798        -0.68208848E-05      0.23109712E-05      0.69206317E-05     -0.95946214E-06     -0.12408725E-11      0.23724202E-12     -0.32637359E-01      0.62399262E-02
    0.018830725196        -0.12130342E-04      0.28090760E-05      0.81492563E-05     -0.16315952E-05     -0.38955701E-11      0.11675324E-12     -0.72412481E-01      0.21702579E-02
    0.025107633595        -0.19184424E-04      0.39461439E-05      0.98461964E-05     -0.25336017E-05     -0.99873931E-11     -0.48965822E-12     -0.12405631E+00     -0.60821871E-02
    0.031384541994        -0.28629529E-04      0.73658393E-05      0.11988328E-04     -0.37404166E-05     -0.23272988E-10     -0.11789456E-11     -0.18946908E+00     -0.95979828E-02
    0.037661450393        -0.39578440E-04      0.12060637E-04      0.14545940E-04     -0.53255108E-05     -0.48201737E-10     -0.26620693E-11     -0.25792749E+00     -0.14244733E-01
    0.043938358791        -0.52146465E-04      0.18829872E-04      0.17482749E-04     -0.73605061E-05     -0.92293486E-10     -0.48003929E-11     -0.32932819E+00     -0.17129104E-01
    0.050215267190        -0.66130596E-04      0.27813673E-04      0.20755926E-04     -0.99147775E-05     -0.16554649E-09     -0.78709016E-11     -0.40171720E+00     -0.19099629E-01
    0.056492175589        -0.81354148E-04      0.39284073E-04      0.24316133E-04     -0.13055042E-04     -0.28145233E-09     -0.12071823E-10     -0.47442059E+00     -0.20348459E-01
    0.062769083988        -0.97674563E-04      0.53537303E-04      0.28107574E-04     -0.16844933E-04     -0.45786623E-09     -0.17640339E-10     -0.54747935E+00     -0.21092888E-01
    0.069045992387        -0.11394057E-03      0.69688273E-04      0.32068059E-04     -0.21344554E-04     -0.70997482E-09     -0.27237683E-10     -0.61428656E+00     -0.23566671E-01
    0.075322900785        -0.13301142E-03      0.91204122E-04      0.36129095E-04     -0.26610025E-04     -0.10895497E-08     -0.36805010E-10     -0.69480572E+00     -0.23470550E-01
    0.081599809184        -0.15052489E-03      0.11523274E-03      0.40215993E-04     -0.32692999E-04     -0.16027527E-08     -0.46823757E-10     -0.76609458E+00     -0.22381135E-01
    0.087876717583        -0.16827326E-03      0.14303148E-03      0.44248009E-04     -0.39640175E-04     -0.23051029E-08     -0.60023880E-10     -0.83860575E+00     -0.21836931E-01
    0.094153625982        -0.18581853E-03      0.17442256E-03      0.48138514E-04     -0.47492785E-04     -0.32443158E-08     -0.80707862E-10     -0.91092089E+00     -0.22660704E-01
    0.100430534380        -0.20257926E-03      0.21073766E-03      0.51795198E-04     -0.56286076E-04     -0.44900942E-08     -0.97858070E-10     -0.98533258E+00     -0.21474548E-01
    0.106707442779        -0.21824295E-03      0.25109584E-03      0.55120318E-04     -0.66048774E-04     -0.61066947E-08     -0.12254207E-09     -0.10594524E+01     -0.21259862E-01
    0.112984351178        -0.23228549E-03      0.29614898E-03      0.58010984E-04     -0.76802540E-04     -0.81846098E-08     -0.14918944E-09     -0.11343612E+01     -0.20677188E-01
    0.119261259577        -0.24429637E-03      0.34597308E-03      0.60359496E-04     -0.88561428E-04     -0.10825458E-07     -0.17948222E-09     -0.12100686E+01     -0.20062504E-01
    0.125538167976        -0.25377412E-03      0.40072150E-03      0.62053728E-04     -0.10133133E-03     -0.14148973E-07     -0.21316515E-09     -0.12867008E+01     -0.19385137E-01
    0.131815076374        -0.26019206E-03      0.46051825E-03      0.62977567E-04     -0.11510942E-03     -0.18294944E-07     -0.24998394E-09     -0.13643865E+01     -0.18643114E-01
    0.138091984773        -0.26295725E-03      0.52545388E-03      0.63011409E-04     -0.12988363E-03     -0.23425141E-07     -0.28840591E-09     -0.14432046E+01     -0.17768462E-01
    0.144368893172        -0.26149204E-03      0.59557132E-03      0.62032710E-04     -0.14563213E-03     -0.29727109E-07     -0.32822014E-09     -0.15232632E+01     -0.16818510E-01
    0.150645801571        -0.25516210E-03      0.67088955E-03      0.59916597E-04     -0.16232279E-03     -0.37417136E-07     -0.36793905E-09     -0.16046682E+01     -0.15779403E-01
    0.156922709970        -0.24330626E-03      0.75139376E-03      0.56536544E-04     -0.17991272E-03     -0.46744448E-07     -0.40570364E-09     -0.16875439E+01     -0.14646503E-01
    0.163199618368        -0.22523071E-03      0.83702070E-03      0.51765105E-04     -0.19834781E-03     -0.57994719E-07     -0.43918743E-09     -0.17720035E+01     -0.13419181E-01
    0.169476526767        -0.20021058E-03      0.92766454E-03      0.45474710E-04     -0.21756232E-03     -0.71495152E-07     -0.46538370E-09     -0.18581706E+01     -0.12095397E-01
    0.175753435166        -0.16749360E-03      0.10231712E-02      0.37538518E-04     -0.23747851E-03     -0.87619633E-07     -0.48079115E-09     -0.19461760E+01     -0.10679161E-01
    0.182030343565        -0.12629373E-03      0.11233355E-02      0.27831335E-04     -0.25800632E-03     -0.10679450E-06     -0.48079813E-09     -0.20361574E+01     -0.91669575E-02
    0.188307251963        -0.75797809E-04      0.12278962E-02      0.16230583E-04     -0.27904314E-03     -0.12950501E-06     -0.45999237E-09     -0.21282592E+01     -0.75594218E-02
    0.194584160362        -0.15165958E-04      0.13365330E-02      0.26173216E-05     -0.30047357E-03     -0.15630266E-06     -0.41206419E-09     -0.22226359E+01     -0.58595848E-02
    0.200861068761         0.56468098E-04      0.14488666E-02     -0.13122678E-04     -0.32216934E-03     -0.18781371E-06     -0.32970130E-09     -0.23194572E+01     -0.40717372E-02
    0.207137977160         0.13999952E-03      0.15644533E-02     -0.31097816E-04     -0.34398929E-03     -0.22474838E-06     -0.20413254E-09     -0.24189072E+01     -0.21970244E-02
    0.213414885559         0.23635137E-03      0.16827770E-02     -0.51409511E-04     -0.36577938E-03     -0.26791073E-06     -0.24877651E-10     -0.25211799E+01     -0.23411169E-03
    0.219691793957         0.34646661E-03      0.18032567E-02     -0.74151014E-04     -0.38737284E-03     -0.31821192E-06      0.21900836E-09     -0.26264969E+01      0.18076782E-02
    0.225968702356         0.47133271E-03      0.19252244E-02     -0.99406191E-04     -0.40859046E-03     -0.37668157E-06      0.54359780E-09     -0.27350886E+01      0.39470691E-02
    0.232245610755         0.61194703E-03      0.20479285E-02     -0.12724830E-03     -0.42924087E-03     -0.44448271E-06      0.96486761E-09     -0.28472018E+01      0.61806066E-02
    0.238522519154         0.76934010E-03      0.21705310E-02     -0.15773876E-03     -0.44912106E-03     -0.52293008E-06      0.15026780E-08     -0.29631112E+01      0.85147178E-02
    0.244799427552         0.94456620E-03      0.22920965E-02     -0.19092589E-03     -0.46801691E-03     -0.61350753E-06      0.21798897E-08     -0.30831110E+01      0.10954783E-01
    0.251076335951         0.11387041E-02      0.24115959E-02     -0.22684371E-03     -0.48570386E-03     -0.71789218E-06      0.30217584E-08     -0.32075308E+01      0.13501168E-01
    0.257353244350         0.13528678E-02      0.25278897E-02     -0.26551072E-03     -0.50194777E-03     -0.83797795E-06      0.40595810E-08     -0.33367297E+01      0.16164774E-01
    0.263630152749         0.15881980E-02      0.26397287E-02     -0.30692874E-03     -0.51650578E-03     -0.97590544E-06      0.53278826E-08     -0.34711061E+01      0.18950243E-01
    0.269907061148         0.18458751E-02      0.27457411E-02     -0.35108176E-03     -0.52912737E-03     -0.11340954E-05      0.68682737E-08     -0.36111016E+01      0.21869443E-01
    0.276183969546         0.21271182E-02      0.28444220E-02     -0.39793488E-03     -0.53955554E-03     -0.13152865E-05      0.87294400E-08     -0.37572045E+01      0.24936234E-01
    0.282460877945         0.24331910E-02      0.29341247E-02     -0.44743328E-03     -0.54752806E-03     -0.15225806E-05      0.10968140E-07     -0.39099579E+01      0.28165972E-01
    0.288737786344         0.27654102E-02      0.30130476E-02     -0.49950132E-03     -0.55277884E-03     -0.17594959E-05      0.13650975E-07     -0.40699688E+01      0.31576683E-01
    0.295014694743         0.31251546E-02      0.30792205E-02     -0.55404163E-03     -0.55503950E-03     -0.20300284E-05      0.16855889E-07     -0.42379184E+01      0.35188611E-01
    0.301291603141         0.35138790E-02      0.31304879E-02     -0.61093445E-03     -0.55404088E-03     -0.23387267E-05      0.20674437E-07     -0.44145749E+01      0.39025018E-01
    0.307568511540         0.39331318E-02      0.31644878E-02     -0.67003693E-03     -0.54951483E-03     -0.26907794E-05      0.25214808E-07     -0.46008088E+01      0.43113349E-01
    0.313845419939         0.43845770E-02      0.31786254E-02     -0.73118262E-03     -0.54119592E-03     -0.30921216E-05      0.30605910E-07     -0.47976103E+01      0.47486888E-01
    0.320122328338         0.48700211E-02      0.31700410E-02     -0.79418115E-03     -0.52882340E-03     -0.35495617E-05      0.37002483E-07     -0.50061112E+01      0.52186316E-01
    0.326399236737         0.53914466E-02      0.31355703E-02     -0.85881790E-03     -0.51214308E-03     -0.40709371E-05      0.44591446E-07     -0.52276104E+01      0.57261191E-01
    0.332676145135         0.59510543E-02      0.30716961E-02     -0.92485401E-03     -0.49090939E-03     -0.46653045E-05      0.53599408E-07     -0.54636067E+01      0.62771055E-01
    0.338953053534         0.65513186E-02      0.29744885E-02     -0.99202639E-03     -0.46488743E-03     -0.53431768E-05      0.64302456E-07     -0.57158406E+01      0.68787279E-01
    0.345229961933         0.71950591E-02      0.28395293E-02     -0.10600480E-02     -0.43385504E-03     -0.61168203E-05      0.77038327E-07     -0.59863471E+01      0.75395082E-01
    0.351506870332         0.78855347E-02      0.26618133E-02     -0.11286081E-02     -0.39760501E-03     -0.70006311E-05      0.92224167E-07     -0.62775232E+01      0.82698166E-01
    0.357783778731         0.86265658E-02      0.24356197E-02     -0.11973733E-02     -0.35594712E-03     -0.80116170E-05      0.11038003E-06     -0.65922151E+01      0.90824221E-01
    0.364060687129         0.94226924E-02      0.21543422E-02     -0.12659877E-02     -0.30871034E-03     -0.91700192E-05      0.13216268E-06     -0.69338289E+01      0.99933638E-01
    0.370337595528         0.10279385E-01      0.18102661E-02     -0.13340744E-02     -0.25574495E-03     -0.10500130E-04      0.15840896E-06     -0.73064786E+01      0.11022832E+00
    0.376614503927         0.11203327E-01      0.13942680E-02     -0.14012363E-02     -0.19692459E-03     -0.12031383E-04      0.19019903E-06     -0.77151847E+01      0.12196608E+00
    0.382891412326         0.12202804E-01      0.89540335E-03     -0.14670577E-02     -0.13214828E-03     -0.13799823E-04      0.22894703E-06     -0.81661431E+01      0.13548103E+00
    0.389168320724         0.13288235E-01      0.30033595E-03     -0.15311056E-02     -0.61342458E-04     -0.15850136E-04      0.27653285E-06     -0.86670966E+01      0.15121239E+00
    0.395445229123         0.14472923E-01     -0.40748214E-03     -0.15929315E-02      0.15537233E-04     -0.18238493E-04      0.33551310E-06     -0.92278575E+01      0.16975454E+00
    0.401722137522         0.15774135E-01     -0.12489400E-02     -0.16520735E-02      0.98504113E-04     -0.21036627E-04      0.40937373E-06     -0.98610603E+01      0.19189668E+00
    0.407999045921         0.17214703E-01     -0.22510707E-02     -0.17080580E-02      0.18753882E-03     -0.24337857E-04      0.50309069E-06     -0.10583281E+02      0.21876824E+00
    0.414275954320         0.18825412E-01     -0.34496311E-02     -0.17604022E-02      0.28258780E-03     -0.28266149E-04      0.62382180E-06     -0.11416713E+02      0.25196198E+00
    0.420552862718         0.20648713E-01     -0.48933173E-02     -0.18086164E-02      0.38356192E-03     -0.32990262E-04      0.78229041E-06     -0.12391792E+02      0.29384368E+00
    0.426829771117         0.22744921E-01     -0.66504838E-02     -0.18522066E-02      0.49033525E-03     -0.38746974E-04      0.99488329E-06     -0.13551560E+02      0.34795544E+00
    0.433106679516         0.25202193E-01     -0.88210562E-02     -0.18906771E-02      0.60274408E-03     -0.45879900E-04      0.12883164E-05     -0.14958862E+02      0.42004774E+00
    0.439383587915         0.28154772E-01     -0.11557466E-01     -0.19235336E-02      0.72058604E-03     -0.54909591E-04      0.17076536E-05     -0.16709479E+02      0.51965422E+00
    0.445660496313         0.31817123E-01     -0.15105780E-01     -0.19502857E-02      0.84361952E-03     -0.66667254E-04      0.23344056E-05     -0.18957132E+02      0.66379867E+00
    0.451937404712         0.36553780E-01     -0.19892221E-01     -0.19704501E-02      0.97156324E-03     -0.82572534E-04      0.33283551E-05     -0.21965495E+02      0.88539085E+00
    0.458214313111         0.43037495E-01     -0.26727479E-01     -0.19835538E-02      0.11040961E-02     -0.10527647E-03      0.50383978E-05     -0.26228613E+02      0.12552680E+01
    0.464491221510         0.52660560E-01     -0.37369585E-01     -0.19891373E-02      0.12408572E-02     -0.14038727E-03      0.83506216E-05     -0.32794223E+02      0.19506907E+01
    0.470768129909         0.68844146E-01     -0.56473634E-01     -0.19867575E-02      0.13814464E-02     -0.20223438E-03      0.16095487E-04     -0.44343615E+02      0.35292321E+01
    0.477045038307         0.10283571E+00     -0.10154775E+00     -0.19759913E-02      0.15254243E-02     -0.34166527E-03      0.41779004E-04     -0.70397693E+02      0.86082658E+01
    0.483321946706         0.22541936E+00     -0.32950688E+00     -0.19564384E-02      0.16723140E-02     -0.95896687E-03      0.25875894E-03     -0.18587117E+03      0.50153793E+02
    0.489598855105        -0.58360549E+00     -0.10886629E+00     -0.19277252E-02      0.18216012E-02      0.90744213E-03      0.12464803E-02      0.16563118E+03      0.22751423E+03
    0.495875763504        -0.11353766E+00      0.78988453E-01     -0.18895070E-02      0.19727364E-02      0.36729874E-03      0.74114223E-04      0.63199842E+02      0.12752582E+02
    0.502152671902        -0.56848674E-01      0.52055016E-01     -0.18414720E-02      0.21251360E-02      0.21623621E-03      0.25060743E-04      0.35111707E+02      0.40692791E+01
    0.508429580301        -0.34479959E-01      0.36801439E-01     -0.17833438E-02      0.22781844E-02      0.14778023E-03      0.13139943E-04      0.22668122E+02      0.20155458E+01
    0.514706488700        -0.22265339E-01      0.26628250E-01     -0.17148846E-02      0.24312363E-02      0.10594930E-03      0.87169924E-05      0.15367985E+02      0.12644030E+01
    0.520983397099        -0.14388884E-01      0.18650445E-01     -0.16358977E-02      0.25836188E-02      0.74734424E-04      0.69448871E-05      0.10261211E+02      0.95354921E+00
    0.527260305498        -0.87342345E-02      0.11367207E-01     -0.15462303E-02      0.27346342E-02      0.47021382E-04      0.66525663E-05      0.61174071E+01      0.86548831E+00
    0.533537213896        -0.43379225E-02      0.35316029E-02     -0.14457761E-02      0.28835631E-02      0.17558992E-04      0.78993028E-05      0.21666881E+01      0.97473281E+00
    0.539814122295        -0.75352000E-03     -0.68727653E-02     -0.13344772E-02      0.30296672E-02     -0.21394600E-04      0.12366562E-04     -0.25064120E+01      0.14487627E+01
    0.546091030694         0.14526439E-02     -0.26322024E-01     -0.12123264E-02      0.31721928E-02     -0.93119021E-04      0.29819648E-04     -0.10367184E+02      0.33198992E+01
    0.552367939093        -0.25262064E-01     -0.11624103E+00     -0.10793690E-02      0.33103744E-02     -0.39498089E-03      0.23099348E-03     -0.41830338E+02      0.24463298E+02
    0.558644847491        -0.11183090E+00      0.85459544E-01     -0.93570433E-03      0.34434381E-02      0.44570396E-03      0.34090511E-03      0.44943795E+02      0.34376112E+02
    0.564921755890        -0.16603999E-01      0.30517821E-01     -0.78148697E-03      0.35706060E-02      0.13777642E-03      0.40038329E-04      0.13240901E+02      0.38478542E+01
    0.571198664289        -0.75787677E-02      0.74597147E-02     -0.61692785E-03      0.36910997E-02      0.36796736E-04      0.26699975E-04      0.33734892E+01      0.24478279E+01
    0.577475572688        -0.45066887E-01     -0.30324033E-01     -0.44229492E-03      0.38041447E-02     -0.11021024E-03      0.21349633E-03     -0.96477024E+01      0.18689272E+02
    0.583752481087        -0.20781533E-01      0.32048235E-01     -0.25791356E-03      0.39089748E-02      0.15251769E-03      0.85191453E-04      0.12760139E+02      0.71274014E+01
    0.590029389485        -0.30572397E-01      0.99708154E-02     -0.64166659E-04      0.40048359E-02      0.49436448E-04      0.14372837E-03      0.39565239E+01      0.11502945E+02
    0.596306297884        -0.27662493E-01      0.13788582E-01      0.13850567E-03      0.40909908E-02      0.62704650E-04      0.13724204E-03      0.48049921E+01      0.10516715E+02
    0.602583206283        -0.26415679E-01      0.15709595E-01      0.34960664E-03      0.41667235E-02      0.67757400E-04      0.13926784E-03      0.49758596E+01      0.10227329E+02
    0.608860114682        -0.25146242E-01      0.17378494E-01      0.56858375E-03      0.42313435E-02      0.72133649E-04      0.14160079E-03      0.50810906E+01      0.99743525E+01
    0.615137023081        -0.23723503E-01      0.18850831E-01      0.79483004E-03      0.42841900E-02      0.76159363E-04      0.14347358E-03      0.51503458E+01      0.97025306E+01
    0.621413931479        -0.22274598E-01      0.20191413E-01      0.10276857E-02      0.43246367E-02      0.80074454E-04      0.14551025E-03      0.52033713E+01      0.94554983E+01
    0.627690839878        -0.20789299E-01      0.21424253E-01      0.12664402E-02      0.43520954E-02      0.84000089E-04      0.14764487E-03      0.52496387E+01      0.92271595E+01
    0.633967748277        -0.19264286E-01      0.22561003E-01      0.15103341E-02      0.43660204E-02      0.88002700E-04      0.14984832E-03      0.52939892E+01      0.90144436E+01
    0.640244656676        -0.17689295E-01      0.23603903E-01      0.17585625E-02      0.43659124E-02      0.92124602E-04      0.15204383E-03      0.53391998E+01      0.88118958E+01
    0.646521565074        -0.16057971E-01      0.24543934E-01      0.20102770E-02      0.43513223E-02      0.96354465E-04      0.15414822E-03      0.53846767E+01      0.86144249E+01
    0.652798473473        -0.14373410E-01      0.25366490E-01      0.22645900E-02      0.43218549E-02      0.10063595E-03      0.15610303E-03      0.54274974E+01      0.84189479E+01
    0.659075381872        -0.12649640E-01      0.26058913E-01      0.25205773E-02      0.42771719E-02      0.10489060E-03      0.15789889E-03      0.54640040E+01      0.82253332E+01
    0.665352290271        -0.10907324E-01      0.26618086E-01      0.27772826E-02      0.42169954E-02      0.10905873E-03      0.15958086E-03      0.54919921E+01      0.80361916E+01
    0.671629198670        -0.91647476E-02      0.27052292E-01      0.30337213E-02      0.41411105E-02      0.11313357E-03      0.16121968E-03      0.55121507E+01      0.78550261E+01
