 
 # Omega; pulse ft; projected flux at t=    1000.25000000000     
    0.000000000000         0.20584359E-10      0.00000000E+00      0.00000000E+00      0.66963088E-07     -0.16940659E-20
    0.003140022642         0.15396239E-09      0.35382337E+01      0.34222781E-12      0.67560200E-07      0.65346105E-20
    0.006280045285         0.55451303E-09      0.19824179E+01     -0.78724240E-13      0.68165832E-07     -0.27069486E-20
    0.009420067927         0.12234864E-08      0.13598663E+01      0.10011812E-12      0.68780269E-07      0.50638446E-20
    0.012560090569         0.21629680E-08      0.10349094E+01     -0.41819248E-13      0.69403634E-07     -0.28045042E-20
    0.015700113211         0.33758810E-08      0.83640141E+00     -0.13613885E-12      0.70036051E-07     -0.11399583E-19
    0.018840135854         0.48659904E-08      0.70270553E+00     -0.82737950E-13      0.70677817E-07     -0.83217472E-20
    0.021980158496         0.66379073E-08      0.60651728E+00     -0.88684857E-13      0.71328993E-07     -0.10429714E-19
    0.025120181138         0.86970953E-08      0.53394636E+00     -0.99523901E-13      0.71989910E-07     -0.13418420E-19
    0.028260203780         0.11049877E-07      0.47719310E+00     -0.99182939E-14      0.72660577E-07     -0.15102250E-20
    0.031400226423         0.13703440E-07      0.43154863E+00      0.33055724E-13      0.73341388E-07      0.56177971E-20
    0.034540249065         0.16665851E-07      0.39400108E+00      0.94912743E-14      0.74032427E-07      0.17834014E-20
    0.037680271707         0.19946058E-07      0.36253713E+00      0.72752934E-13      0.74733977E-07      0.14997405E-19
    0.040820294349         0.23553907E-07      0.33575867E+00      0.30559592E-13      0.75446067E-07      0.68668399E-20
    0.043960316992         0.27500150E-07      0.31266809E+00     -0.79913060E-14      0.76169368E-07     -0.19467696E-20
    0.047100339634         0.31796458E-07      0.29252905E+00      0.32715385E-13      0.76903526E-07      0.86006104E-20
    0.050240362276         0.36455434E-07      0.27479280E+00      0.33325928E-13      0.77649274E-07      0.94170377E-20
    0.053380384919         0.41490627E-07      0.25903644E+00      0.15705461E-13      0.78406435E-07      0.47538070E-20
    0.056520407561         0.46916548E-07      0.24493375E+00      0.47118710E-13      0.79175705E-07      0.15231290E-19
    0.059660430203         0.52748678E-07      0.23222454E+00      0.51436246E-13      0.79956884E-07      0.17709937E-19
    0.062800452845         0.59003495E-07      0.22070298E+00      0.23830001E-13      0.80750590E-07      0.87188972E-20
    0.065940475488         0.65698477E-07      0.21020098E+00     -0.23736998E-13      0.81556863E-07     -0.92098289E-20
    0.069080498130         0.72852130E-07      0.20058209E+00     -0.23971362E-13      0.82376150E-07     -0.98446901E-20
    0.072220520772         0.80483997E-07      0.19173281E+00     -0.46824395E-13      0.83208540E-07     -0.20320933E-19
    0.075360543414         0.88614678E-07      0.18355969E+00     -0.17617007E-13      0.84054604E-07     -0.80670789E-20
    0.078500566057         0.97265847E-07      0.17598289E+00     -0.47050188E-13      0.84914251E-07     -0.22702386E-19
    0.081640588699         0.10646027E-06      0.16893669E+00     -0.40769921E-13      0.85788281E-07     -0.20703504E-19
    0.084780611341         0.11622182E-06      0.16236314E+00     -0.18561251E-13      0.86676449E-07     -0.99087966E-20
    0.087920633984         0.12657550E-06      0.15621474E+00     -0.14755787E-13      0.87579690E-07     -0.82726333E-20
    0.091060656626         0.13754746E-06      0.15044848E+00     -0.20595627E-13      0.88497734E-07     -0.12114887E-19
    0.094200679268         0.14916500E-06      0.14502912E+00     -0.64669875E-14      0.89431532E-07     -0.39878377E-20
    0.097340701910         0.16145662E-06      0.13992395E+00     -0.12252864E-13      0.90380756E-07     -0.79144641E-20
    0.100480724553         0.17445198E-06      0.13510658E+00     -0.18993993E-13      0.91346558E-07     -0.12841979E-19
    0.103620747195         0.18818198E-06      0.13055150E+00      0.23841627E-13      0.92328487E-07      0.16861250E-19
    0.106760769837         0.20267875E-06      0.12623848E+00      0.13113206E-13      0.93327755E-07      0.96945568E-20
    0.109900792479         0.21797565E-06      0.12214755E+00      0.30329406E-14      0.94344037E-07      0.23425755E-20
    0.113040815122         0.23410730E-06      0.11826261E+00      0.14449322E-13      0.95378322E-07      0.11653320E-19
    0.116180837764         0.25110960E-06      0.11456803E+00      0.25158744E-15      0.96430586E-07      0.21175824E-21
    0.119320860406         0.26901973E-06      0.11105075E+00     -0.50422707E-14      0.97501609E-07     -0.44270706E-20
    0.122460883048         0.28787616E-06      0.10769836E+00      0.11455663E-13      0.98591611E-07      0.10486996E-19
    0.125600905691         0.30771869E-06      0.10450012E+00      0.17554052E-13      0.99701208E-07      0.16747926E-19
    0.128740928333         0.32858842E-06      0.10144600E+00     -0.22553371E-14      0.10083077E-06     -0.22416595E-20
    0.131880950975         0.35052780E-06      0.98527165E-01     -0.36242212E-13      0.10198092E-06     -0.37512641E-19
    0.135020973618         0.37358059E-06      0.95735308E-01     -0.24802266E-13      0.10315202E-06     -0.26723724E-19
    0.138160996260         0.39779192E-06      0.93063130E-01     -0.22968269E-13      0.10434477E-06     -0.25752614E-19
    0.141301018902         0.42320825E-06      0.90503640E-01      0.24559610E-14      0.10555952E-06      0.28645265E-20
    0.144441041544         0.44987741E-06      0.88050778E-01      0.13383255E-13      0.10679706E-06      0.16232592E-19
    0.147581064187         0.47784857E-06      0.85698587E-01     -0.50526785E-14      0.10805773E-06     -0.63709451E-20
    0.150721086829         0.50717226E-06      0.83441972E-01     -0.15484382E-13      0.10934239E-06     -0.20290740E-19
    0.153861109471         0.53790037E-06      0.81275814E-01     -0.20657784E-14      0.11065139E-06     -0.28124141E-20
    0.157001132113         0.57008615E-06      0.79195811E-01     -0.19397896E-13      0.11198567E-06     -0.27429309E-19
    0.160141154756         0.60378418E-06      0.77197496E-01      0.73520685E-14      0.11334556E-06      0.10794707E-19
    0.163281177398         0.63905039E-06      0.75277205E-01      0.81625651E-14      0.11473212E-06      0.12440796E-19
    0.166421200040         0.67594205E-06      0.73431048E-01     -0.27706964E-14      0.11614569E-06     -0.43824029E-20
    0.169561222683         0.71451775E-06      0.71655833E-01      0.11735770E-13      0.11758734E-06      0.19258419E-19
    0.172701245325         0.75483738E-06      0.69948187E-01      0.74500988E-14      0.11905755E-06      0.12680679E-19
    0.175841267967         0.79696213E-06      0.68305285E-01     -0.29403934E-14      0.12055736E-06     -0.51897312E-20
    0.178981290609         0.84095448E-06      0.66724183E-01     -0.33697861E-14      0.12208735E-06     -0.61658043E-20
    0.182121313252         0.88687816E-06      0.65202359E-01     -0.29573608E-14      0.12364855E-06     -0.56082846E-20
    0.185261335894         0.93479813E-06      0.63737276E-01     -0.45649315E-14      0.12524174E-06     -0.89699466E-20
    0.188401358536         0.98478058E-06      0.62326634E-01     -0.47057724E-14      0.12686787E-06     -0.95787515E-20
    0.191541381178         0.10368929E-05      0.60968221E-01     -0.73210203E-14      0.12852788E-06     -0.15433536E-19
    0.194681403821         0.10912036E-05      0.59659942E-01     -0.40927974E-15      0.13022270E-06     -0.89335506E-21
    0.197821426463         0.11477823E-05      0.58399889E-01     -0.15397878E-14      0.13195345E-06     -0.34791217E-20
    0.200961449105         0.12066998E-05      0.57186115E-01      0.51873285E-14      0.13372101E-06      0.12129777E-19
    0.204101471747         0.12680280E-05      0.56016974E-01     -0.44501294E-14      0.13552671E-06     -0.10766583E-19
    0.207241494390         0.13318396E-05      0.54890665E-01      0.44547984E-14      0.13737137E-06      0.11148740E-19
    0.210381517032         0.13982084E-05      0.53805762E-01      0.33795026E-14      0.13925656E-06      0.87466078E-20
    0.213521539674         0.14672093E-05      0.52760586E-01      0.41211910E-14      0.14118304E-06      0.11027972E-19
    0.216661562317         0.15389178E-05      0.51753909E-01     -0.32656294E-14      0.14315260E-06     -0.90328123E-20
    0.219801584959         0.16134104E-05      0.50784165E-01      0.19955427E-14      0.14516599E-06      0.57042375E-20
    0.222941607601         0.16907644E-05      0.49850289E-01     -0.28747659E-14      0.14722521E-06     -0.84901818E-20
    0.226081630243         0.17710577E-05      0.48950823E-01     -0.30618311E-14      0.14933100E-06     -0.93405235E-20
    0.229221652886         0.18543692E-05      0.48084851E-01     -0.13915958E-14      0.15148561E-06     -0.43840572E-20
    0.232361675528         0.19407779E-05      0.47251006E-01     -0.27211359E-14      0.15368976E-06     -0.88508326E-20
    0.235501698170         0.20303639E-05      0.46448497E-01      0.67713912E-14      0.15594593E-06      0.22734232E-19
    0.238641720812         0.21232074E-05      0.45676061E-01      0.76579400E-14      0.15825493E-06      0.26532645E-19
    0.241781743455         0.22193892E-05      0.44932999E-01     -0.30091566E-14      0.16061937E-06     -0.10756657E-19
    0.244921766097         0.23189905E-05      0.44218155E-01     -0.76813928E-14      0.16304022E-06     -0.28322664E-19
    0.248061788739         0.24220926E-05      0.43530906E-01     -0.75609562E-14      0.16552024E-06     -0.28749489E-19
    0.251201811381         0.25287771E-05      0.42870201E-01     -0.92208605E-14      0.16806058E-06     -0.36147793E-19
    0.254341834024         0.26391259E-05      0.42235476E-01     -0.24679635E-14      0.17066413E-06     -0.99724895E-20
    0.257481856666         0.27532206E-05      0.41625790E-01     -0.29145583E-14      0.17333226E-06     -0.12136394E-19
    0.260621879308         0.28711432E-05      0.41040621E-01     -0.39379902E-14      0.17606800E-06     -0.16894337E-19
    0.263761901951         0.29929751E-05      0.40479138E-01      0.10979172E-13      0.17887302E-06      0.48515797E-19
    0.266901924593         0.31187981E-05      0.39940851E-01      0.87369966E-14      0.18175041E-06      0.39757609E-19
    0.270041947235         0.32486931E-05      0.39425040E-01      0.29090564E-14      0.18470223E-06      0.13628628E-19
    0.273181969877         0.33827410E-05      0.38931236E-01     -0.19177981E-14      0.18773163E-06     -0.92478792E-20
    0.276321992520         0.35210223E-05      0.38458827E-01     -0.21803802E-15      0.19084110E-06     -0.10819522E-20
    0.279462015162         0.36636166E-05      0.38007372E-01     -0.52425840E-14      0.19403390E-06     -0.26764256E-19
    0.282602037804         0.38106031E-05      0.37576343E-01     -0.76571495E-14      0.19731290E-06     -0.40207595E-19
    0.285742060446         0.39620603E-05      0.37165336E-01     -0.48824770E-14      0.20068158E-06     -0.26363900E-19
    0.288882083089         0.41180657E-05      0.36773911E-01     -0.83795281E-14      0.20414325E-06     -0.46517329E-19
    0.292022105731         0.42786958E-05      0.36401682E-01      0.23775298E-15      0.20770152E-06      0.13565762E-20
    0.295162128373         0.44440263E-05      0.36048308E-01      0.35800161E-14      0.21136030E-06      0.20990535E-19
    0.298302151016         0.46141316E-05      0.35713413E-01     -0.28156768E-14      0.21512332E-06     -0.16960511E-19
    0.301442173658         0.47890848E-05      0.35396753E-01     -0.34761830E-15      0.21899515E-06     -0.21506696E-20
    0.304582196300         0.49689578E-05      0.35097967E-01      0.17082477E-14      0.22297968E-06      0.10852610E-19
    0.307722218942         0.51538208E-05      0.34816898E-01     -0.25933324E-14      0.22708219E-06     -0.16914189E-19
    0.310862241585         0.53437427E-05      0.34553207E-01      0.20413162E-14      0.23130684E-06      0.13665024E-19
    0.314002264227         0.55387906E-05      0.34306813E-01      0.38958010E-14      0.23565957E-06      0.26760947E-19
    0.317142286869         0.57390298E-05      0.34077419E-01      0.30988275E-15      0.24014501E-06      0.21837568E-20
    0.320282309511         0.59445238E-05      0.33865000E-01     -0.20013997E-14      0.24476975E-06     -0.14465735E-19
    0.323422332154         0.61553339E-05      0.33669303E-01      0.34286046E-15      0.24953892E-06      0.25410988E-20
    0.326562354796         0.63715196E-05      0.33490379E-01     -0.50601923E-14      0.25445999E-06     -0.38447355E-19
    0.329702377438         0.65931380E-05      0.33328008E-01     -0.76223722E-15      0.25953861E-06     -0.59358481E-20
    0.332842400080         0.68202438E-05      0.33182308E-01      0.24878706E-16      0.26478317E-06      0.19852335E-21
    0.335982422723         0.70528895E-05      0.33053109E-01     -0.65164812E-15      0.27020002E-06     -0.53270431E-20
    0.339122445365         0.72911249E-05      0.32940596E-01     -0.24936136E-14      0.27579856E-06     -0.20878039E-19
    0.342262468007         0.75349972E-05      0.32844656E-01     -0.62598629E-15      0.28158601E-06     -0.53667478E-20
    0.345402490650         0.77845510E-05      0.32765530E-01     -0.54942505E-14      0.28757282E-06     -0.48221321E-19
    0.348542513292         0.80398277E-05      0.32703187E-01     -0.79561060E-15      0.29376741E-06     -0.71468405E-20
    0.351682535934         0.83008661E-05      0.32657903E-01     -0.19639913E-14      0.30018117E-06     -0.18052390E-19
    0.354822558576         0.85677017E-05      0.32629758E-01     -0.43969922E-14      0.30682413E-06     -0.41345796E-19
    0.357962581219         0.88403671E-05      0.32619079E-01     -0.16899096E-14      0.31370895E-06     -0.16252445E-19
    0.361102603861         0.91188913E-05      0.32626025E-01     -0.10665608E-14      0.32084711E-06     -0.10488650E-19
    0.364242626503         0.94033002E-05      0.32651001E-01     -0.58911664E-14      0.32825290E-06     -0.59226132E-19
    0.367382649145         0.96936162E-05      0.32694272E-01     -0.39800551E-15      0.33593974E-06     -0.40895809E-20
    0.370522671788         0.99898580E-05      0.32756305E-01      0.20861775E-14      0.34392359E-06      0.21903743E-19
    0.373662694430         0.10292041E-04      0.32837503E-01     -0.24468015E-14      0.35222033E-06     -0.26244786E-19
    0.376802717072         0.10600176E-04      0.32938387E-01     -0.14762841E-14      0.36084768E-06     -0.16173035E-19
    0.379942739715         0.10914271E-04      0.33059566E-01     -0.47323971E-17      0.36982502E-06     -0.52939559E-22
    0.383082762357         0.11234330E-04      0.33201532E-01     -0.28671004E-14      0.37917111E-06     -0.32743117E-19
    0.386222784999         0.11560353E-04      0.33365162E-01     -0.27080269E-14      0.38890987E-06     -0.31565212E-19
    0.389362807641         0.11892334E-04      0.33551037E-01     -0.14387445E-14      0.39906270E-06     -0.17112713E-19
    0.392502830284         0.12230266E-04      0.33760227E-01     -0.34117046E-14      0.40965759E-06     -0.41398735E-19
    0.395642852926         0.12574136E-04      0.33993366E-01     -0.45447699E-15      0.42071843E-06     -0.56248282E-20
    0.398782875568         0.12923926E-04      0.34251897E-01      0.74560606E-15      0.43227999E-06      0.94100066E-20
    0.401922898210         0.13279615E-04      0.34536424E-01     -0.14297821E-14      0.44436787E-06     -0.18396497E-19
    0.405062920853         0.13641178E-04      0.34848886E-01      0.77706819E-16      0.45702590E-06      0.10190865E-20
    0.408202943495         0.14008583E-04      0.35189792E-01      0.29016653E-15      0.47028089E-06      0.38778227E-20
    0.411342966137         0.14381797E-04      0.35561773E-01     -0.34216169E-14      0.48418911E-06     -0.46586812E-19
    0.414482988779         0.14760779E-04      0.35965099E-01     -0.29822583E-14      0.49877693E-06     -0.41359031E-19
    0.417623011422         0.15145484E-04      0.36403397E-01     -0.14900339E-14      0.51411847E-06     -0.21043475E-19
    0.420763034064         0.15535866E-04      0.36876461E-01     -0.41917265E-14      0.53023655E-06     -0.60271688E-19
    0.423903056706         0.15931868E-04      0.37389410E-01     -0.27146155E-14      0.54723179E-06     -0.39731139E-19
    0.427043079349         0.16333434E-04      0.37941084E-01     -0.46383389E-15      0.56511663E-06     -0.69086125E-20
    0.430183101991         0.16740499E-04      0.38538941E-01     -0.37833035E-14      0.58403298E-06     -0.57333543E-19
    0.433323124633         0.17152996E-04      0.39180004E-01     -0.21893231E-14      0.60396967E-06     -0.33748969E-19
    0.436463147275         0.17570851E-04      0.39875498E-01     -0.13980185E-14      0.62513509E-06     -0.21916978E-19
    0.439603169918         0.17993986E-04      0.40618979E-01     -0.14895451E-14      0.64746773E-06     -0.23743392E-19
    0.442743192560         0.18422319E-04      0.41428149E-01     -0.12251708E-14      0.67129048E-06     -0.19852335E-19
    0.445883215202         0.18855762E-04      0.42289650E-01     -0.85992108E-15      0.69643343E-06     -0.14161332E-19
    0.449023237844         0.19294222E-04      0.43233140E-01     -0.23838701E-14      0.72343210E-06     -0.39889958E-19
    0.452163260487         0.19737601E-04      0.44230578E-01     -0.27187729E-14      0.75187257E-06     -0.46216235E-19
    0.455303283129         0.20185796E-04      0.45335914E-01     -0.42544721E-14      0.78272646E-06     -0.73453638E-19
    0.458443305771         0.20638700E-04      0.46486657E-01     -0.54912900E-14      0.81498114E-06     -0.96270588E-19
    0.461583328413         0.21096200E-04      0.47795104E-01     -0.31186891E-14      0.85066797E-06     -0.55507128E-19
    0.464723351056         0.21558180E-04      0.49100569E-01     -0.34272076E-14      0.88700620E-06     -0.61912814E-19
    0.467863373698         0.22024515E-04      0.50703812E-01     -0.40660538E-14      0.92950230E-06     -0.74538899E-19
    0.471003396340         0.22495080E-04      0.52006865E-01      0.19796636E-14      0.96726780E-06      0.36819463E-19
    0.474143418983         0.22969743E-04      0.55583295E-01      0.20484918E-14      0.10486082E-05      0.38645878E-19
    0.477283441625         0.23448366E-04      0.59882761E-01      0.24350296E-15      0.11456727E-05      0.46586812E-20
    0.480423464267         0.23930807E-04      0.60090596E-01     -0.24316572E-14      0.11656340E-05     -0.47169147E-19
    0.483563486909         0.24416922E-04      0.61397368E-01     -0.55514832E-14      0.12072847E-05     -0.10916137E-18
    0.486703509552         0.24906558E-04      0.64019126E-01     -0.58256874E-14      0.12757968E-05     -0.11609645E-18
    0.489843532194         0.25399560E-04      0.66857804E-01     -0.27003881E-14      0.13500302E-05     -0.54527746E-19
    0.492983554836         0.25895769E-04      0.70118881E-01     -0.23395366E-14      0.14343459E-05     -0.47857362E-19
    0.496123577478         0.26395019E-04      0.73853408E-01     -0.29231540E-14      0.15301189E-05     -0.60562856E-19
    0.499263600121         0.26897142E-04      0.77984339E-01     -0.16073890E-14      0.16360862E-05     -0.33722499E-19
    0.502403622763         0.27401965E-04      0.82868800E-01     -0.19441217E-14      0.17601210E-05     -0.41292856E-19
    0.505543645405         0.27909310E-04      0.88272827E-01     -0.21275564E-14      0.18977544E-05     -0.45739779E-19
    0.508683668048         0.28418995E-04      0.94865488E-01     -0.11310010E-13      0.20639146E-05     -0.24606307E-18
