 
 # Omega; pulse ft; projected flux at t=    1000.25000000000     
    0.000000000000         0.20584359E-10      0.00000000E+00      0.00000000E+00      0.00000000E+00      0.00000000E+00
    0.003140022642         0.15396239E-09      0.00000000E+00      0.00000000E+00      0.00000000E+00      0.00000000E+00
    0.006280045285         0.55451303E-09      0.00000000E+00      0.00000000E+00      0.00000000E+00      0.00000000E+00
    0.009420067927         0.12234864E-08      0.00000000E+00      0.00000000E+00      0.00000000E+00      0.00000000E+00
    0.012560090569         0.21629680E-08      0.00000000E+00      0.00000000E+00      0.00000000E+00      0.00000000E+00
    0.015700113211         0.33758810E-08      0.00000000E+00      0.00000000E+00      0.00000000E+00      0.00000000E+00
    0.018840135854         0.48659904E-08      0.00000000E+00      0.00000000E+00      0.00000000E+00      0.00000000E+00
    0.021980158496         0.66379073E-08      0.00000000E+00      0.00000000E+00      0.00000000E+00      0.00000000E+00
    0.025120181138         0.86970953E-08      0.00000000E+00      0.00000000E+00      0.00000000E+00      0.00000000E+00
    0.028260203780         0.11049877E-07      0.00000000E+00      0.00000000E+00      0.00000000E+00      0.00000000E+00
    0.031400226423         0.13703440E-07      0.00000000E+00      0.00000000E+00      0.00000000E+00      0.00000000E+00
    0.034540249065         0.16665851E-07      0.00000000E+00      0.00000000E+00      0.00000000E+00      0.00000000E+00
    0.037680271707         0.19946058E-07      0.00000000E+00      0.00000000E+00      0.00000000E+00      0.00000000E+00
    0.040820294349         0.23553907E-07      0.00000000E+00      0.00000000E+00      0.00000000E+00      0.00000000E+00
    0.043960316992         0.27500150E-07      0.00000000E+00      0.00000000E+00      0.00000000E+00      0.00000000E+00
    0.047100339634         0.31796458E-07      0.00000000E+00      0.00000000E+00      0.00000000E+00      0.00000000E+00
    0.050240362276         0.36455434E-07      0.00000000E+00      0.00000000E+00      0.00000000E+00      0.00000000E+00
    0.053380384919         0.41490627E-07      0.00000000E+00      0.00000000E+00      0.00000000E+00      0.00000000E+00
    0.056520407561         0.46916548E-07      0.00000000E+00      0.00000000E+00      0.00000000E+00      0.00000000E+00
    0.059660430203         0.52748678E-07      0.00000000E+00      0.00000000E+00      0.00000000E+00      0.00000000E+00
    0.062800452845         0.59003495E-07      0.00000000E+00      0.00000000E+00      0.00000000E+00      0.00000000E+00
    0.065940475488         0.65698477E-07      0.00000000E+00      0.00000000E+00      0.00000000E+00      0.00000000E+00
    0.069080498130         0.72852130E-07      0.00000000E+00      0.00000000E+00      0.00000000E+00      0.00000000E+00
    0.072220520772         0.80483997E-07      0.00000000E+00      0.00000000E+00      0.00000000E+00      0.00000000E+00
    0.075360543414         0.88614678E-07      0.00000000E+00      0.00000000E+00      0.00000000E+00      0.00000000E+00
    0.078500566057         0.97265847E-07      0.00000000E+00      0.00000000E+00      0.00000000E+00      0.00000000E+00
    0.081640588699         0.10646027E-06      0.00000000E+00      0.00000000E+00      0.00000000E+00      0.00000000E+00
    0.084780611341         0.11622182E-06      0.00000000E+00      0.00000000E+00      0.00000000E+00      0.00000000E+00
    0.087920633984         0.12657550E-06      0.00000000E+00      0.00000000E+00      0.00000000E+00      0.00000000E+00
    0.091060656626         0.13754746E-06      0.00000000E+00      0.00000000E+00      0.00000000E+00      0.00000000E+00
    0.094200679268         0.14916500E-06      0.00000000E+00      0.00000000E+00      0.00000000E+00      0.00000000E+00
    0.097340701910         0.16145662E-06      0.00000000E+00      0.00000000E+00      0.00000000E+00      0.00000000E+00
    0.100480724553         0.17445198E-06      0.00000000E+00      0.00000000E+00      0.00000000E+00      0.00000000E+00
    0.103620747195         0.18818198E-06      0.00000000E+00      0.00000000E+00      0.00000000E+00      0.00000000E+00
    0.106760769837         0.20267875E-06      0.00000000E+00      0.00000000E+00      0.00000000E+00      0.00000000E+00
    0.109900792479         0.21797565E-06      0.00000000E+00      0.00000000E+00      0.00000000E+00      0.00000000E+00
    0.113040815122         0.23410730E-06      0.00000000E+00      0.00000000E+00      0.00000000E+00      0.00000000E+00
    0.116180837764         0.25110960E-06      0.00000000E+00      0.00000000E+00      0.00000000E+00      0.00000000E+00
    0.119320860406         0.26901973E-06      0.00000000E+00      0.00000000E+00      0.00000000E+00      0.00000000E+00
    0.122460883048         0.28787616E-06      0.00000000E+00      0.00000000E+00      0.00000000E+00      0.00000000E+00
    0.125600905691         0.30771869E-06      0.00000000E+00      0.00000000E+00      0.00000000E+00      0.00000000E+00
    0.128740928333         0.32858842E-06      0.00000000E+00      0.00000000E+00      0.00000000E+00      0.00000000E+00
    0.131880950975         0.35052780E-06      0.00000000E+00      0.00000000E+00      0.00000000E+00      0.00000000E+00
    0.135020973618         0.37358059E-06      0.00000000E+00      0.00000000E+00      0.00000000E+00      0.00000000E+00
    0.138160996260         0.39779192E-06      0.00000000E+00      0.00000000E+00      0.00000000E+00      0.00000000E+00
    0.141301018902         0.42320825E-06      0.00000000E+00      0.00000000E+00      0.00000000E+00      0.00000000E+00
    0.144441041544         0.44987741E-06      0.00000000E+00      0.00000000E+00      0.00000000E+00      0.00000000E+00
    0.147581064187         0.47784857E-06      0.00000000E+00      0.00000000E+00      0.00000000E+00      0.00000000E+00
    0.150721086829         0.50717226E-06      0.00000000E+00      0.00000000E+00      0.00000000E+00      0.00000000E+00
    0.153861109471         0.53790037E-06      0.00000000E+00      0.00000000E+00      0.00000000E+00      0.00000000E+00
    0.157001132113         0.57008615E-06      0.00000000E+00      0.00000000E+00      0.00000000E+00      0.00000000E+00
    0.160141154756         0.60378418E-06      0.00000000E+00      0.00000000E+00      0.00000000E+00      0.00000000E+00
    0.163281177398         0.63905039E-06      0.00000000E+00      0.00000000E+00      0.00000000E+00      0.00000000E+00
    0.166421200040         0.67594205E-06      0.00000000E+00      0.00000000E+00      0.00000000E+00      0.00000000E+00
    0.169561222683         0.71451775E-06      0.00000000E+00      0.00000000E+00      0.00000000E+00      0.00000000E+00
    0.172701245325         0.75483738E-06      0.00000000E+00      0.00000000E+00      0.00000000E+00      0.00000000E+00
    0.175841267967         0.79696213E-06      0.00000000E+00      0.00000000E+00      0.00000000E+00      0.00000000E+00
    0.178981290609         0.84095448E-06      0.00000000E+00      0.00000000E+00      0.00000000E+00      0.00000000E+00
    0.182121313252         0.88687816E-06      0.00000000E+00      0.00000000E+00      0.00000000E+00      0.00000000E+00
    0.185261335894         0.93479813E-06      0.00000000E+00      0.00000000E+00      0.00000000E+00      0.00000000E+00
    0.188401358536         0.98478058E-06      0.00000000E+00      0.00000000E+00      0.00000000E+00      0.00000000E+00
    0.191541381178         0.10368929E-05      0.00000000E+00      0.00000000E+00      0.00000000E+00      0.00000000E+00
    0.194681403821         0.10912036E-05      0.00000000E+00      0.00000000E+00      0.00000000E+00      0.00000000E+00
    0.197821426463         0.11477823E-05      0.00000000E+00      0.00000000E+00      0.00000000E+00      0.00000000E+00
    0.200961449105         0.12066998E-05      0.00000000E+00      0.00000000E+00      0.00000000E+00      0.00000000E+00
    0.204101471747         0.12680280E-05      0.00000000E+00      0.00000000E+00      0.00000000E+00      0.00000000E+00
    0.207241494390         0.13318396E-05      0.00000000E+00      0.00000000E+00      0.00000000E+00      0.00000000E+00
    0.210381517032         0.13982084E-05      0.00000000E+00      0.00000000E+00      0.00000000E+00      0.00000000E+00
    0.213521539674         0.14672093E-05      0.00000000E+00      0.00000000E+00      0.00000000E+00      0.00000000E+00
    0.216661562317         0.15389178E-05      0.00000000E+00      0.00000000E+00      0.00000000E+00      0.00000000E+00
    0.219801584959         0.16134104E-05      0.00000000E+00      0.00000000E+00      0.00000000E+00      0.00000000E+00
    0.222941607601         0.16907644E-05      0.00000000E+00      0.00000000E+00      0.00000000E+00      0.00000000E+00
    0.226081630243         0.17710577E-05      0.00000000E+00      0.00000000E+00      0.00000000E+00      0.00000000E+00
    0.229221652886         0.18543692E-05      0.00000000E+00      0.00000000E+00      0.00000000E+00      0.00000000E+00
    0.232361675528         0.19407779E-05      0.00000000E+00      0.00000000E+00      0.00000000E+00      0.00000000E+00
    0.235501698170         0.20303639E-05      0.00000000E+00      0.00000000E+00      0.00000000E+00      0.00000000E+00
    0.238641720812         0.21232074E-05      0.00000000E+00      0.00000000E+00      0.00000000E+00      0.00000000E+00
    0.241781743455         0.22193892E-05      0.00000000E+00      0.00000000E+00      0.00000000E+00      0.00000000E+00
    0.244921766097         0.23189905E-05      0.00000000E+00      0.00000000E+00      0.00000000E+00      0.00000000E+00
    0.248061788739         0.24220926E-05      0.00000000E+00      0.00000000E+00      0.00000000E+00      0.00000000E+00
    0.251201811381         0.25287771E-05      0.00000000E+00      0.00000000E+00      0.00000000E+00      0.00000000E+00
    0.254341834024         0.26391259E-05      0.00000000E+00      0.00000000E+00      0.00000000E+00      0.00000000E+00
    0.257481856666         0.27532206E-05      0.00000000E+00      0.00000000E+00      0.00000000E+00      0.00000000E+00
    0.260621879308         0.28711432E-05      0.00000000E+00      0.00000000E+00      0.00000000E+00      0.00000000E+00
    0.263761901951         0.29929751E-05      0.00000000E+00      0.00000000E+00      0.00000000E+00      0.00000000E+00
    0.266901924593         0.31187981E-05      0.00000000E+00      0.00000000E+00      0.00000000E+00      0.00000000E+00
    0.270041947235         0.32486931E-05      0.00000000E+00      0.00000000E+00      0.00000000E+00      0.00000000E+00
    0.273181969877         0.33827410E-05      0.00000000E+00      0.00000000E+00      0.00000000E+00      0.00000000E+00
    0.276321992520         0.35210223E-05      0.00000000E+00      0.00000000E+00      0.00000000E+00      0.00000000E+00
    0.279462015162         0.36636166E-05      0.00000000E+00      0.00000000E+00      0.00000000E+00      0.00000000E+00
    0.282602037804         0.38106031E-05      0.00000000E+00      0.00000000E+00      0.00000000E+00      0.00000000E+00
    0.285742060446         0.39620603E-05      0.00000000E+00      0.00000000E+00      0.00000000E+00      0.00000000E+00
    0.288882083089         0.41180657E-05      0.00000000E+00      0.00000000E+00      0.00000000E+00      0.00000000E+00
    0.292022105731         0.42786958E-05      0.00000000E+00      0.00000000E+00      0.00000000E+00      0.00000000E+00
    0.295162128373         0.44440263E-05      0.00000000E+00      0.00000000E+00      0.00000000E+00      0.00000000E+00
    0.298302151016         0.46141316E-05      0.00000000E+00      0.00000000E+00      0.00000000E+00      0.00000000E+00
    0.301442173658         0.47890848E-05      0.00000000E+00      0.00000000E+00      0.00000000E+00      0.00000000E+00
    0.304582196300         0.49689578E-05      0.00000000E+00      0.00000000E+00      0.00000000E+00      0.00000000E+00
    0.307722218942         0.51538208E-05      0.00000000E+00      0.00000000E+00      0.00000000E+00      0.00000000E+00
    0.310862241585         0.53437427E-05      0.00000000E+00      0.00000000E+00      0.00000000E+00      0.00000000E+00
    0.314002264227         0.55387906E-05      0.00000000E+00      0.00000000E+00      0.00000000E+00      0.00000000E+00
    0.317142286869         0.57390298E-05      0.00000000E+00      0.00000000E+00      0.00000000E+00      0.00000000E+00
    0.320282309511         0.59445238E-05      0.00000000E+00      0.00000000E+00      0.00000000E+00      0.00000000E+00
    0.323422332154         0.61553339E-05      0.00000000E+00      0.00000000E+00      0.00000000E+00      0.00000000E+00
    0.326562354796         0.63715196E-05      0.00000000E+00      0.00000000E+00      0.00000000E+00      0.00000000E+00
    0.329702377438         0.65931380E-05      0.00000000E+00      0.00000000E+00      0.00000000E+00      0.00000000E+00
    0.332842400080         0.68202438E-05      0.00000000E+00      0.00000000E+00      0.00000000E+00      0.00000000E+00
    0.335982422723         0.70528895E-05      0.00000000E+00      0.00000000E+00      0.00000000E+00      0.00000000E+00
    0.339122445365         0.72911249E-05      0.00000000E+00      0.00000000E+00      0.00000000E+00      0.00000000E+00
    0.342262468007         0.75349972E-05      0.00000000E+00      0.00000000E+00      0.00000000E+00      0.00000000E+00
    0.345402490650         0.77845510E-05      0.00000000E+00      0.00000000E+00      0.00000000E+00      0.00000000E+00
    0.348542513292         0.80398277E-05      0.00000000E+00      0.00000000E+00      0.00000000E+00      0.00000000E+00
    0.351682535934         0.83008661E-05      0.00000000E+00      0.00000000E+00      0.00000000E+00      0.00000000E+00
    0.354822558576         0.85677017E-05      0.00000000E+00      0.00000000E+00      0.00000000E+00      0.00000000E+00
    0.357962581219         0.88403671E-05      0.00000000E+00      0.00000000E+00      0.00000000E+00      0.00000000E+00
    0.361102603861         0.91188913E-05      0.00000000E+00      0.00000000E+00      0.00000000E+00      0.00000000E+00
    0.364242626503         0.94033002E-05      0.00000000E+00      0.00000000E+00      0.00000000E+00      0.00000000E+00
    0.367382649145         0.96936162E-05      0.00000000E+00      0.00000000E+00      0.00000000E+00      0.00000000E+00
    0.370522671788         0.99898580E-05      0.00000000E+00      0.00000000E+00      0.00000000E+00      0.00000000E+00
    0.373662694430         0.10292041E-04      0.00000000E+00      0.00000000E+00      0.00000000E+00      0.00000000E+00
    0.376802717072         0.10600176E-04      0.00000000E+00      0.00000000E+00      0.00000000E+00      0.00000000E+00
    0.379942739715         0.10914271E-04      0.00000000E+00      0.00000000E+00      0.00000000E+00      0.00000000E+00
    0.383082762357         0.11234330E-04      0.00000000E+00      0.00000000E+00      0.00000000E+00      0.00000000E+00
    0.386222784999         0.11560353E-04      0.00000000E+00      0.00000000E+00      0.00000000E+00      0.00000000E+00
    0.389362807641         0.11892334E-04      0.00000000E+00      0.00000000E+00      0.00000000E+00      0.00000000E+00
    0.392502830284         0.12230266E-04      0.00000000E+00      0.00000000E+00      0.00000000E+00      0.00000000E+00
    0.395642852926         0.12574136E-04      0.00000000E+00      0.00000000E+00      0.00000000E+00      0.00000000E+00
    0.398782875568         0.12923926E-04      0.00000000E+00      0.00000000E+00      0.00000000E+00      0.00000000E+00
    0.401922898210         0.13279615E-04      0.00000000E+00      0.00000000E+00      0.00000000E+00      0.00000000E+00
    0.405062920853         0.13641178E-04      0.00000000E+00      0.00000000E+00      0.00000000E+00      0.00000000E+00
    0.408202943495         0.14008583E-04      0.00000000E+00      0.00000000E+00      0.00000000E+00      0.00000000E+00
    0.411342966137         0.14381797E-04      0.00000000E+00      0.00000000E+00      0.00000000E+00      0.00000000E+00
    0.414482988779         0.14760779E-04      0.00000000E+00      0.00000000E+00      0.00000000E+00      0.00000000E+00
    0.417623011422         0.15145484E-04      0.00000000E+00      0.00000000E+00      0.00000000E+00      0.00000000E+00
    0.420763034064         0.15535866E-04      0.00000000E+00      0.00000000E+00      0.00000000E+00      0.00000000E+00
    0.423903056706         0.15931868E-04      0.00000000E+00      0.00000000E+00      0.00000000E+00      0.00000000E+00
    0.427043079349         0.16333434E-04      0.00000000E+00      0.00000000E+00      0.00000000E+00      0.00000000E+00
    0.430183101991         0.16740499E-04      0.00000000E+00      0.00000000E+00      0.00000000E+00      0.00000000E+00
    0.433323124633         0.17152996E-04      0.00000000E+00      0.00000000E+00      0.00000000E+00      0.00000000E+00
    0.436463147275         0.17570851E-04      0.00000000E+00      0.00000000E+00      0.00000000E+00      0.00000000E+00
    0.439603169918         0.17993986E-04      0.00000000E+00      0.00000000E+00      0.00000000E+00      0.00000000E+00
    0.442743192560         0.18422319E-04      0.00000000E+00      0.00000000E+00      0.00000000E+00      0.00000000E+00
    0.445883215202         0.18855762E-04      0.00000000E+00      0.00000000E+00      0.00000000E+00      0.00000000E+00
    0.449023237844         0.19294222E-04      0.00000000E+00      0.00000000E+00      0.00000000E+00      0.00000000E+00
    0.452163260487         0.19737601E-04      0.00000000E+00      0.00000000E+00      0.00000000E+00      0.00000000E+00
    0.455303283129         0.20185796E-04      0.00000000E+00      0.00000000E+00      0.00000000E+00      0.00000000E+00
    0.458443305771         0.20638700E-04      0.00000000E+00      0.00000000E+00      0.00000000E+00      0.00000000E+00
    0.461583328413         0.21096200E-04      0.00000000E+00      0.00000000E+00      0.00000000E+00      0.00000000E+00
    0.464723351056         0.21558180E-04      0.00000000E+00      0.00000000E+00      0.00000000E+00      0.00000000E+00
    0.467863373698         0.22024515E-04      0.00000000E+00      0.00000000E+00      0.00000000E+00      0.00000000E+00
    0.471003396340         0.22495080E-04      0.00000000E+00      0.00000000E+00      0.00000000E+00      0.00000000E+00
    0.474143418983         0.22969743E-04      0.00000000E+00      0.00000000E+00      0.00000000E+00      0.00000000E+00
    0.477283441625         0.23448366E-04      0.00000000E+00      0.00000000E+00      0.00000000E+00      0.00000000E+00
    0.480423464267         0.23930807E-04      0.00000000E+00      0.00000000E+00      0.00000000E+00      0.00000000E+00
    0.483563486909         0.24416922E-04      0.00000000E+00      0.00000000E+00      0.00000000E+00      0.00000000E+00
    0.486703509552         0.24906558E-04      0.00000000E+00      0.00000000E+00      0.00000000E+00      0.00000000E+00
    0.489843532194         0.25399560E-04      0.00000000E+00      0.00000000E+00      0.00000000E+00      0.00000000E+00
    0.492983554836         0.25895769E-04      0.00000000E+00      0.00000000E+00      0.00000000E+00      0.00000000E+00
    0.496123577478         0.26395019E-04      0.00000000E+00      0.00000000E+00      0.00000000E+00      0.00000000E+00
    0.499263600121         0.26897142E-04      0.00000000E+00      0.00000000E+00      0.00000000E+00      0.00000000E+00
    0.502403622763         0.27401965E-04      0.00000000E+00      0.00000000E+00      0.00000000E+00      0.00000000E+00
    0.505543645405         0.27909310E-04      0.00000000E+00      0.00000000E+00      0.00000000E+00      0.00000000E+00
    0.508683668048         0.28418995E-04      0.00000000E+00      0.00000000E+00      0.00000000E+00      0.00000000E+00
