 
 # Omega; pulse ft; proj flux t=    1000.25000000000     
    0.000000000000         0.10016161E-10      0.00000000E+00      0.00000000E+00      0.00000000E+00      0.00000000E+00      0.00000000E+00      0.00000000E+00
    0.003140022642         0.14711996E-09     -0.73078559E-05     -0.20113899E-15     -0.21221275E-13     -0.58408728E-24     -0.66635283E-16     -0.18340473E-26
    0.006280045285         0.55885518E-09      0.94178239E-07     -0.14640559E-16      0.51943325E-15     -0.80748942E-25     -0.65004250E-16     -0.20876008E-26
    0.009420067927         0.12464938E-08      0.59424001E-06      0.27284080E-16      0.48734964E-14      0.22376290E-24     -0.49701361E-16     -0.13849802E-26
    0.012560090569         0.22121576E-08      0.47794847E-06     -0.11925281E-16      0.52173149E-14     -0.13017711E-24     -0.33318874E-16     -0.17937393E-26
    0.015700113211         0.34588209E-08      0.66525925E-06      0.47811095E-17      0.90836186E-14      0.65282482E-25     -0.47961061E-17     -0.15887508E-26
    0.018840135854         0.49903140E-08      0.96156808E-06      0.86696305E-18      0.15785799E-13      0.14232694E-25      0.44771659E-16     -0.15440598E-26
    0.021980158496         0.68113284E-08      0.22372699E-05     -0.93725495E-17      0.42969674E-13     -0.18001198E-24      0.17969741E-15     -0.21093015E-26
    0.025120181138         0.89274221E-08      0.33222677E-05     -0.13140259E-17      0.73178012E-13     -0.28943424E-25      0.40947802E-15     -0.22001845E-26
    0.028260203780         0.11345027E-07      0.27348103E-05     -0.32870532E-17      0.68045612E-13     -0.81786129E-25      0.62314278E-15     -0.24569948E-26
    0.031400226423         0.14071456E-07      0.17592652E-05     -0.32945093E-17      0.48863013E-13     -0.91503911E-25      0.77657375E-15     -0.27443192E-26
    0.034540249065         0.17114912E-07      0.13568945E-05     -0.11307586E-17      0.41671388E-13     -0.34726559E-25      0.90742285E-15     -0.28533613E-26
    0.037680271707         0.20484497E-07      0.12297763E-05     -0.64324338E-18      0.41436217E-13     -0.21673512E-25      0.10375335E-14     -0.29214167E-26
    0.040820294349         0.24190226E-07      0.12442879E-05     -0.25317013E-17      0.45701174E-13     -0.92986293E-25      0.11810362E-14     -0.32133957E-26
    0.043960316992         0.28243033E-07      0.13525968E-05     -0.25723637E-18      0.53859404E-13     -0.10242962E-25      0.13501560E-14     -0.32455589E-26
    0.047100339634         0.32654785E-07      0.14053048E-05     -0.17467875E-18      0.60385965E-13     -0.75059477E-26      0.15397693E-14     -0.32691277E-26
    0.050240362276         0.37438300E-07      0.13223969E-05     -0.13764003E-17      0.61075618E-13     -0.63569793E-25      0.17315481E-14     -0.34687383E-26
    0.053380384919         0.42607352E-07      0.11434891E-05     -0.10812178E-17      0.56568876E-13     -0.53488289E-25      0.19091757E-14     -0.36366927E-26
    0.056520407561         0.48176692E-07      0.10811325E-05      0.90862953E-18      0.57115408E-13      0.48002208E-25      0.20885193E-14     -0.34859647E-26
    0.059660430203         0.54162061E-07      0.15673509E-05     -0.25509767E-18      0.88189670E-13     -0.14353505E-25      0.23654369E-14     -0.35310350E-26
    0.062800452845         0.60580205E-07      0.13829525E-05     -0.23269178E-18      0.82683320E-13     -0.13912068E-25      0.26250644E-14     -0.35747193E-26
    0.065940475488         0.67448891E-07      0.23562563E-06      0.83210895E-19      0.14937845E-13      0.52752811E-26      0.26719696E-14     -0.35581548E-26
    0.069080498130         0.74786924E-07     -0.14998004E-06     -0.27638885E-18     -0.10063437E-13     -0.18545280E-25      0.26403701E-14     -0.36163874E-26
    0.072220520772         0.82614162E-07      0.34724119E-07     -0.31911987E-18      0.24618852E-14     -0.22625095E-25      0.26481005E-14     -0.36874307E-26
    0.075360543414         0.90951538E-07      0.13133358E-06     -0.45815336E-19      0.98239126E-14     -0.34270432E-26      0.26789478E-14     -0.36981917E-26
    0.078500566057         0.99821071E-07      0.27386079E-06     -0.20078280E-18      0.21583505E-13     -0.15824086E-25      0.27467205E-14     -0.37478796E-26
    0.081640588699         0.10924589E-06      0.74728174E-06     -0.12409825E-18      0.61976353E-13     -0.10292178E-25      0.29413277E-14     -0.37801973E-26
    0.084780611341         0.11925024E-06      0.31517225E-05      0.34513499E-18      0.27475991E-12      0.30088073E-25      0.38040800E-14     -0.36857201E-26
    0.087920633984         0.12985951E-06      0.65665348E-05     -0.81017084E-19      0.60112098E-12     -0.74165553E-26      0.56916135E-14     -0.37090082E-26
    0.091060656626         0.14110026E-06      0.65539762E-05     -0.18687309E-18      0.62942586E-12     -0.17946778E-25      0.76680249E-14     -0.37653615E-26
    0.094200679268         0.15300022E-06      0.37599607E-05     -0.24455309E-18      0.37849836E-12     -0.24618062E-25      0.88565184E-14     -0.38426628E-26
    0.097340701910         0.16558830E-06      0.22537396E-05     -0.22705425E-18      0.23761924E-12     -0.23939082E-25      0.96026481E-14     -0.39178321E-26
    0.100480724553         0.17889464E-06      0.21669463E-05     -0.35229717E-18      0.23911421E-12     -0.38874642E-25      0.10353472E-13     -0.40398993E-26
    0.103620747195         0.19295060E-06      0.24263765E-05     -0.70650871E-19      0.28002723E-12     -0.81537914E-26      0.11232764E-13     -0.40655024E-26
    0.106760769837         0.20778877E-06      0.28898865E-05     -0.20712764E-18      0.34860518E-12     -0.24985676E-25      0.12327392E-13     -0.41439580E-26
    0.109900792479         0.22344301E-06      0.33640133E-05     -0.34162849E-18      0.42390285E-12     -0.43048965E-25      0.13658457E-13     -0.42791327E-26
    0.113040815122         0.23994847E-06      0.34967592E-05     -0.94943642E-19      0.46003525E-12     -0.12490829E-25      0.15102978E-13     -0.43183542E-26
    0.116180837764         0.25734155E-06      0.30787856E-05     -0.17629395E-18      0.42266621E-12     -0.24202237E-25      0.16430159E-13     -0.43943498E-26
    0.119320860406         0.27565998E-06      0.23735332E-05     -0.17918409E-18      0.33985631E-12     -0.25656621E-25      0.17497316E-13     -0.44749121E-26
    0.122460883048         0.29494280E-06      0.16996106E-05      0.18132347E-18      0.25370703E-12      0.27066811E-25      0.18293962E-13     -0.43899217E-26
    0.125600905691         0.31523035E-06      0.13441007E-05     -0.44682630E-19      0.20907868E-12     -0.69505096E-26      0.18950473E-13     -0.44117465E-26
    0.128740928333         0.33656432E-06      0.13919367E-05     -0.43392480E-21      0.22553482E-12     -0.70308623E-28      0.19658658E-13     -0.44119673E-26
    0.131880950975         0.35898777E-06      0.15487030E-05     -0.16391098E-18      0.26128134E-12     -0.27653386E-25      0.20479087E-13     -0.44987995E-26
    0.135020973618         0.38254506E-06      0.16318672E-05     -0.22758237E-18      0.28655556E-12     -0.39963421E-25      0.21378878E-13     -0.46242856E-26
    0.138160996260         0.40728195E-06      0.16734026E-05     -0.18273393E-18      0.30574040E-12     -0.33386552E-25      0.22338910E-13     -0.47291201E-26
    0.141301018902         0.43324553E-06      0.17070472E-05     -0.13947153E-18      0.32439713E-12     -0.26504342E-25      0.23357524E-13     -0.48123443E-26
    0.144441041544         0.46048430E-06      0.17648555E-05     -0.13167717E-18      0.34871936E-12     -0.26018208E-25      0.24452511E-13     -0.48940421E-26
    0.147581064187         0.48904809E-06      0.18186699E-05     -0.16152109E-18      0.37352312E-12     -0.33173617E-25      0.25625382E-13     -0.49982080E-26
    0.150721086829         0.51898811E-06      0.17861697E-05     -0.21818652E-19      0.38119640E-12     -0.46564397E-26      0.26822347E-13     -0.50128293E-26
    0.153861109471         0.55035695E-06      0.16848006E-05     -0.20387538E-18      0.37351390E-12     -0.45198400E-25      0.27995189E-13     -0.51547533E-26
    0.157001132113         0.58320856E-06      0.15720727E-05     -0.19753915E-19      0.36193985E-12     -0.45479635E-26      0.29131689E-13     -0.51690341E-26
    0.160141154756         0.61759825E-06      0.14507505E-05      0.19480863E-19      0.34676761E-12      0.46564397E-26      0.30220547E-13     -0.51544127E-26
    0.163281177398         0.65358268E-06      0.13588839E-05     -0.11101225E-18      0.33712382E-12     -0.27540892E-25      0.31279123E-13     -0.52408918E-26
    0.166421200040         0.69121986E-06      0.12863729E-05     -0.81016101E-19      0.33114419E-12     -0.20855546E-25      0.32318924E-13     -0.53063786E-26
    0.169561222683         0.73056915E-06      0.11990875E-05     -0.24327815E-19      0.32020516E-12     -0.64965168E-26      0.33324375E-13     -0.53267778E-26
    0.172701245325         0.77169120E-06      0.11254567E-05     -0.76858472E-19      0.31168761E-12     -0.21285433E-25      0.34303081E-13     -0.53936146E-26
    0.175841267967         0.81464799E-06      0.10751013E-05     -0.10305082E-18      0.30870328E-12     -0.29589886E-25      0.35272416E-13     -0.54865275E-26
    0.178981290609         0.85950279E-06      0.10497225E-05      0.57773939E-20      0.31243294E-12      0.17195480E-26      0.36253463E-13     -0.54811281E-26
    0.182121313252         0.90632014E-06      0.10427536E-05     -0.52272849E-19      0.32162160E-12     -0.16122772E-25      0.37263362E-13     -0.55317540E-26
    0.185261335894         0.95516582E-06      0.10147965E-05     -0.78718641E-19      0.32427660E-12     -0.25154416E-25      0.38281598E-13     -0.56107394E-26
    0.188401358536         0.10061068E-05      0.95485386E-06     -0.43844542E-19      0.31603826E-12     -0.14511700E-25      0.39273965E-13     -0.56563065E-26
    0.191541381178         0.10592114E-05      0.88835443E-06     -0.86368911E-19      0.30447314E-12     -0.29601939E-25      0.40230018E-13     -0.57492572E-26
    0.194681403821         0.11145489E-05      0.81061797E-06     -0.32541679E-19      0.28762960E-12     -0.11546685E-25      0.41133181E-13     -0.57855141E-26
    0.197821426463         0.11721899E-05      0.73046121E-06     -0.64522026E-19      0.26826528E-12     -0.23696015E-25      0.41975540E-13     -0.58599201E-26
    0.200961449105         0.12322059E-05      0.66801261E-06     -0.99799721E-19      0.25386210E-12     -0.37926480E-25      0.42772673E-13     -0.59790101E-26
    0.204101471747         0.12946697E-05      0.61522971E-06     -0.84686145E-19      0.24187602E-12     -0.33294146E-25      0.43532169E-13     -0.60835545E-26
    0.207241494390         0.13596549E-05      0.57347365E-06      0.31064074E-19      0.23318904E-12      0.12631446E-25      0.44264388E-13     -0.60438914E-26
    0.210381517032         0.14272364E-05      0.54437016E-06     -0.30070198E-19      0.22888920E-12     -0.12643499E-25      0.44983105E-13     -0.60835923E-26
    0.213521539674         0.14974896E-05      0.52358084E-06      0.20112434E-19      0.22758757E-12      0.87423751E-26      0.45697736E-13     -0.60561411E-26
    0.216661562317         0.15704912E-05      0.50449536E-06     -0.68233676E-20      0.22664884E-12     -0.30654560E-26      0.46409418E-13     -0.60657667E-26
    0.219801584959         0.16463186E-05      0.47203055E-06     -0.58236510E-19      0.21912697E-12     -0.27034670E-25      0.47097482E-13     -0.61506561E-26
    0.222941607601         0.17250498E-05      0.42063012E-06     -0.44057568E-19      0.20172213E-12     -0.21128746E-25      0.47730894E-13     -0.62170009E-26
    0.226081630243         0.18067639E-05      0.37732245E-06     -0.12677999E-19      0.18689232E-12     -0.62795644E-26      0.48317740E-13     -0.62367189E-26
    0.229221652886         0.18915405E-05      0.35563806E-06     -0.37258124E-19      0.18189088E-12     -0.19055646E-25      0.48888881E-13     -0.62965540E-26
    0.232361675528         0.19794597E-05      0.34296520E-06     -0.28131646E-19      0.18108184E-12     -0.14853199E-25      0.49457482E-13     -0.63431934E-26
    0.235501698170         0.20706024E-05      0.33619251E-06      0.27183059E-19      0.18320334E-12      0.14813022E-25      0.50032745E-13     -0.62966802E-26
    0.238641720812         0.21650498E-05      0.32562734E-06     -0.24614758E-19      0.18309862E-12     -0.13840755E-25      0.50607679E-13     -0.63401404E-26
    0.241781743455         0.22628837E-05      0.30738953E-06     -0.45435257E-19      0.17830785E-12     -0.26355690E-25      0.51167570E-13     -0.64228979E-26
    0.244921766097         0.23641860E-05      0.28800827E-06      0.16654258E-20      0.17230659E-12      0.99637363E-27      0.51708616E-13     -0.64197693E-26
    0.248061788739         0.24690392E-05      0.26607704E-06     -0.16835279E-19      0.16414142E-12     -0.10385588E-25      0.52224024E-13     -0.64523803E-26
    0.251201811381         0.25775257E-05      0.24500367E-06     -0.25965067E-19      0.15581006E-12     -0.16512482E-25      0.52713271E-13     -0.65042298E-26
    0.254341834024         0.26897283E-05      0.22731710E-06     -0.40946210E-20      0.14899284E-12     -0.26837806E-26      0.53181112E-13     -0.65126570E-26
    0.257481856666         0.28057298E-05      0.20896300E-06     -0.22245501E-19      0.14112738E-12     -0.15023948E-25      0.53624255E-13     -0.65598325E-26
    0.260621879308         0.29256127E-05      0.19966524E-06     -0.12741655E-19      0.13891563E-12     -0.88649129E-26      0.54060453E-13     -0.65876685E-26
    0.263761901951         0.30494598E-05      0.20264381E-06     -0.22875847E-20      0.14520677E-12     -0.16391953E-26      0.54516406E-13     -0.65928156E-26
    0.266901924593         0.31773534E-05      0.19966906E-06     -0.30602039E-19      0.14732188E-12     -0.22579112E-25      0.54979000E-13     -0.66637146E-26
    0.270041947235         0.33093756E-05      0.18451683E-06     -0.26590220E-19      0.14015013E-12     -0.20196654E-25      0.55419074E-13     -0.67271325E-26
    0.273181969877         0.34456081E-05      0.16436247E-06     -0.18309180E-19      0.12848700E-12     -0.14312827E-25      0.55822527E-13     -0.67720751E-26
    0.276321992520         0.35861323E-05      0.14627297E-06     -0.30468203E-19      0.11765696E-12     -0.24507577E-25      0.56191972E-13     -0.68490295E-26
    0.279462015162         0.37310288E-05      0.13805568E-06     -0.36752700E-19      0.11423595E-12     -0.30411493E-25      0.56550676E-13     -0.69445222E-26
    0.282602037804         0.38803777E-05      0.13625284E-06     -0.17413214E-19      0.11595432E-12     -0.14819049E-25      0.56914775E-13     -0.69910544E-26
    0.285742060446         0.40342581E-05      0.13394318E-06     -0.25394637E-19      0.11720680E-12     -0.22221542E-25      0.57282807E-13     -0.70608305E-26
    0.288882083089         0.41927487E-05      0.13109090E-06     -0.23827807E-19      0.11792162E-12     -0.21434086E-25      0.57653083E-13     -0.71281340E-26
    0.292022105731         0.43559267E-05      0.12527944E-06     -0.74420677E-20      0.11582100E-12     -0.68802010E-26      0.58016764E-13     -0.71497380E-26
    0.295162128373         0.45238687E-05      0.11761980E-06     -0.17581606E-19      0.11173069E-12     -0.16701311E-25      0.58367601E-13     -0.72021805E-26
    0.298302151016         0.46966498E-05      0.11175100E-06     -0.27379009E-20      0.10905005E-12     -0.26717277E-26      0.58710020E-13     -0.72105698E-26
    0.301442173658         0.48743441E-05      0.10419989E-06     -0.88674922E-20      0.10442924E-12     -0.88870099E-26      0.59037931E-13     -0.72384752E-26
    0.304582196300         0.50570242E-05      0.93609106E-07     -0.95771193E-20      0.96327723E-13     -0.98552601E-26      0.59340402E-13     -0.72694210E-26
    0.307722218942         0.52447612E-05      0.87741044E-07     -0.60396463E-20      0.92685615E-13     -0.63800053E-26      0.59631437E-13     -0.72894543E-26
    0.310862241585         0.54376246E-05      0.88021562E-07     -0.28701728E-20      0.95427380E-13     -0.31116588E-26      0.59931081E-13     -0.72992250E-26
    0.314002264227         0.56356824E-05      0.89824099E-07     -0.72685876E-20      0.99919275E-13     -0.80854916E-26      0.60244830E-13     -0.73246136E-26
    0.317142286869         0.58390005E-05      0.89473457E-07     -0.75151848E-20      0.10209894E-12     -0.85756432E-26      0.60565423E-13     -0.73515413E-26
    0.320282309511         0.60476432E-05      0.81741498E-07     -0.25575900E-20      0.95661784E-13     -0.29931385E-26      0.60865803E-13     -0.73609399E-26
    0.323422332154         0.62616725E-05      0.71634344E-07     -0.85880565E-20      0.85957605E-13     -0.10305235E-25      0.61135712E-13     -0.73932985E-26
    0.326562354796         0.64811485E-05      0.65493737E-07     -0.12997820E-19      0.80561640E-13     -0.15988181E-25      0.61388677E-13     -0.74435018E-26
    0.329702377438         0.67061290E-05      0.62043754E-07     -0.37351295E-20      0.78215092E-13     -0.47086689E-26      0.61634274E-13     -0.74582871E-26
    0.332842400080         0.69366693E-05      0.61219533E-07     -0.10342063E-19      0.79076061E-13     -0.13358638E-25      0.61882575E-13     -0.75002335E-26
    0.335982422723         0.71728224E-05      0.61062124E-07     -0.35631774E-20      0.80795673E-13     -0.47146954E-26      0.62136275E-13     -0.75150378E-26
    0.339122445365         0.74146388E-05      0.58663980E-07     -0.29647932E-20      0.79496437E-13     -0.40176356E-26      0.62385896E-13     -0.75276533E-26
    0.342262468007         0.76621663E-05      0.56461194E-07     -0.82943890E-20      0.78340264E-13     -0.11508517E-25      0.62631886E-13     -0.75637903E-26
    0.345402490650         0.79154497E-05      0.54340265E-07     -0.24057587E-20      0.77181738E-13     -0.34169991E-26      0.62874238E-13     -0.75745197E-26
    0.348542513292         0.81745312E-05      0.49558567E-07     -0.71626212E-20      0.72039139E-13     -0.10411703E-25      0.63100443E-13     -0.76072127E-26
    0.351682535934         0.84394499E-05      0.44545590E-07     -0.15702357E-19      0.66253790E-13     -0.23354516E-25      0.63308481E-13     -0.76805464E-26
    0.354822558576         0.87102417E-05      0.40392040E-07     -0.59387951E-20      0.61455032E-13     -0.90356625E-26      0.63501451E-13     -0.77089186E-26
    0.357962581219         0.89869396E-05      0.39209869E-07     -0.56997314E-20      0.61011577E-13     -0.88689306E-26      0.63693029E-13     -0.77367672E-26
    0.361102603861         0.92695729E-05      0.41891190E-07     -0.99001146E-20      0.66649130E-13     -0.15751140E-25      0.63902309E-13     -0.77862262E-26
    0.364242626503         0.95581680E-05      0.42960571E-07     -0.48775431E-20      0.69870944E-13     -0.79328215E-26      0.64121705E-13     -0.78111354E-26
    0.367382649145         0.98527473E-05      0.40453799E-07     -0.65152113E-20      0.67242011E-13     -0.10829537E-25      0.64332847E-13     -0.78451404E-26
    0.370522671788         0.10153330E-04      0.36242639E-07     -0.10852011E-19      0.61553989E-13     -0.18430903E-25      0.64526128E-13     -0.79030139E-26
    0.373662694430         0.10459931E-04      0.32101102E-07      0.19289625E-20      0.55694422E-13      0.33466905E-26      0.64701009E-13     -0.78925052E-26
    0.376802717072         0.10772563E-04      0.30160866E-07      0.18773844E-20      0.53443082E-13      0.33266023E-26      0.64868822E-13     -0.78820596E-26
    0.379942739715         0.11091232E-04      0.29922265E-07     -0.55325724E-20      0.54137574E-13     -0.10009939E-25      0.65038815E-13     -0.79134910E-26
    0.383082762357         0.11415944E-04      0.29387172E-07     -0.18761509E-20      0.54277479E-13     -0.34652107E-26      0.65209248E-13     -0.79243718E-26
