 
 # Omega; pulse ft; projected flux at t=    1000.25000000000     
    0.000000000000         0.20584359E-10      0.00000000E+00      0.00000000E+00      0.57286721E-07     -0.84703295E-20
    0.003140022642         0.15396239E-09      0.30283592E+01     -0.29135436E-12      0.57824489E-07     -0.55632161E-20
    0.006280045285         0.55451303E-09      0.16975389E+01     -0.20375686E-12      0.58370211E-07     -0.70062198E-20
    0.009420067927         0.12234864E-08      0.11650011E+01      0.76662952E-13      0.58924240E-07      0.38775125E-20
    0.012560090569         0.21629680E-08      0.88703224E+00      0.18221866E-13      0.59486617E-07      0.12220043E-20
    0.015700113211         0.33758810E-08      0.71723480E+00     -0.25162657E-12      0.60057638E-07     -0.21069945E-19
    0.018840135854         0.48659904E-08      0.60287851E+00     -0.77234971E-13      0.60637259E-07     -0.77682599E-20
    0.021980158496         0.66379073E-08      0.52061001E+00     -0.20801334E-12      0.61225934E-07     -0.24463246E-19
    0.025120181138         0.86970953E-08      0.45854289E+00     -0.17054305E-12      0.61823555E-07     -0.22993656E-19
    0.028260203780         0.11049877E-07      0.41000903E+00     -0.22708995E-13      0.62430686E-07     -0.34578218E-20
    0.031400226423         0.13703440E-07      0.37097532E+00     -0.10902573E-13      0.63046997E-07     -0.18528846E-20
    0.034540249065         0.16665851E-07      0.33887040E+00     -0.13188513E-12      0.63673426E-07     -0.24781090E-19
    0.037680271707         0.19946058E-07      0.31196661E+00      0.12966982E-13      0.64309290E-07      0.26730341E-20
    0.040820294349         0.23553907E-07      0.28907341E+00      0.15645156E-14      0.64955737E-07      0.35155176E-21
    0.043960316992         0.27500150E-07      0.26933110E+00     -0.78801034E-14      0.65612003E-07     -0.19196794E-20
    0.047100339634         0.31796458E-07      0.25211656E+00      0.26979376E-13      0.66279408E-07      0.70926602E-20
    0.050240362276         0.36455434E-07      0.23695409E+00     -0.54411322E-14      0.66957041E-07     -0.15375220E-20
    0.053380384919         0.41490627E-07      0.22348726E+00     -0.75329236E-13      0.67646232E-07     -0.22801027E-19
    0.056520407561         0.46916548E-07      0.21143202E+00      0.30561205E-13      0.68346152E-07      0.98790181E-20
    0.059660430203         0.52748678E-07      0.20057063E+00      0.17409283E-13      0.69058172E-07      0.59941643E-20
    0.062800452845         0.59003495E-07      0.19072242E+00      0.65314617E-14      0.69781332E-07      0.23897248E-20
    0.065940475488         0.65698477E-07      0.18174804E+00     -0.17313469E-13      0.70517273E-07     -0.67175338E-20
    0.069080498130         0.72852130E-07      0.17352639E+00     -0.43155098E-13      0.71264766E-07     -0.17723172E-19
    0.072220520772         0.80483997E-07      0.16596471E+00     -0.47943232E-13      0.72025653E-07     -0.20806488E-19
    0.075360543414         0.88614678E-07      0.15897875E+00     -0.18198671E-13      0.72798641E-07     -0.83334311E-20
    0.078500566057         0.97265847E-07      0.15250453E+00     -0.36678592E-13      0.73585604E-07     -0.17697943E-19
    0.081640588699         0.10646027E-06      0.14648161E+00     -0.39644346E-13      0.74385292E-07     -0.20131922E-19
    0.084780611341         0.11622182E-06      0.14086438E+00     -0.41564867E-14      0.75199486E-07     -0.22189120E-20
    0.087920633984         0.12657550E-06      0.13560866E+00     -0.31438487E-13      0.76027171E-07     -0.17625564E-19
    0.091060656626         0.13754746E-06      0.13068118E+00     -0.38878008E-13      0.76870089E-07     -0.22869062E-19
    0.094200679268         0.14916500E-06      0.12604800E+00     -0.12733433E-13      0.77726913E-07     -0.78520120E-20
    0.097340701910         0.16145662E-06      0.12168527E+00     -0.24704222E-13      0.78599885E-07     -0.15957141E-19
    0.100480724553         0.17445198E-06      0.11756631E+00     -0.41230117E-14      0.79487447E-07     -0.27875987E-20
    0.103620747195         0.18818198E-06      0.11367317E+00      0.22102396E-13      0.80391812E-07      0.15631232E-19
    0.106760769837         0.20267875E-06      0.10998514E+00      0.15231235E-13      0.81311707E-07      0.11260410E-19
    0.109900792479         0.21797565E-06      0.10648804E+00     -0.89488882E-14      0.82248978E-07     -0.69119212E-20
    0.113040815122         0.23410730E-06      0.10316575E+00      0.50872116E-15      0.83202764E-07      0.41028158E-21
    0.116180837764         0.25110960E-06      0.10000707E+00      0.32627746E-14      0.84174790E-07      0.27462396E-20
    0.119320860406         0.26901973E-06      0.96998724E-01      0.60437531E-14      0.85164052E-07      0.53063636E-20
    0.122460883048         0.28787616E-06      0.94132094E-01      0.14436593E-13      0.86172477E-07      0.13215865E-19
    0.125600905691         0.30771869E-06      0.91396249E-01      0.12638189E-13      0.87199103E-07      0.12057812E-19
    0.128740928333         0.32858842E-06      0.88784315E-01      0.24717996E-13      0.88245875E-07      0.24568091E-19
    0.131880950975         0.35052780E-06      0.86287201E-01     -0.41412821E-14      0.89311899E-07     -0.42864499E-20
    0.135020973618         0.37358059E-06      0.83899197E-01      0.60418434E-15      0.90398957E-07      0.65099114E-21
    0.138160996260         0.39779192E-06      0.81612840E-01     -0.51981635E-14      0.91506414E-07     -0.58283146E-20
    0.141301018902         0.42320825E-06      0.79423264E-01      0.38084061E-15      0.92635854E-07      0.44419599E-21
    0.144441041544         0.44987741E-06      0.77324352E-01      0.14717216E-14      0.93786948E-07      0.17850558E-20
    0.147581064187         0.47784857E-06      0.75311908E-01     -0.15493263E-13      0.94961124E-07     -0.19535525E-19
    0.150721086829         0.50717226E-06      0.73380832E-01     -0.11154689E-13      0.96158272E-07     -0.14617109E-19
    0.153861109471         0.53790037E-06      0.71527346E-01     -0.14969603E-13      0.97379521E-07     -0.20380076E-19
    0.157001132113         0.57008615E-06      0.69747430E-01     -0.12450688E-13      0.98625328E-07     -0.17605712E-19
    0.160141154756         0.60378418E-06      0.68037507E-01     -0.72731957E-14      0.99896371E-07     -0.10678902E-19
    0.163281177398         0.63905039E-06      0.66394233E-01     -0.49442133E-14      0.10119333E-06     -0.75356154E-20
    0.166421200040         0.67594205E-06      0.64814514E-01     -0.20625947E-14      0.10251694E-06     -0.32624003E-20
    0.169561222683         0.71451775E-06      0.63295599E-01      0.54621084E-14      0.10386818E-06      0.89633291E-20
    0.172701245325         0.75483738E-06      0.61834522E-01      0.83724919E-14      0.10524742E-06      0.14250668E-19
    0.175841267967         0.79696213E-06      0.60429031E-01     -0.72127278E-14      0.10665594E-06     -0.12730310E-19
    0.178981290609         0.84095448E-06      0.59076407E-01     -0.87260011E-14      0.10809397E-06     -0.15966240E-19
    0.182121313252         0.88687816E-06      0.57774869E-01     -0.58998912E-14      0.10956320E-06     -0.11188445E-19
    0.185261335894         0.93479813E-06      0.56521803E-01     -0.32338440E-14      0.11106356E-06     -0.63544015E-20
    0.188401358536         0.98478058E-06      0.55315741E-01     -0.90848227E-14      0.11259698E-06     -0.18492450E-19
    0.191541381178         0.10368929E-05      0.54154351E-01      0.11928343E-14      0.11416348E-06      0.25146291E-20
    0.194681403821         0.10912036E-05      0.53036324E-01      0.47150542E-14      0.11576500E-06      0.10291781E-19
    0.197821426463         0.11477823E-05      0.51959525E-01     -0.26351385E-14      0.11740157E-06     -0.59540460E-20
    0.200961449105         0.12066998E-05      0.50922896E-01      0.48229703E-14      0.11907542E-06      0.11277780E-19
    0.204101471747         0.12680280E-05      0.49924407E-01     -0.40460073E-14      0.12078643E-06     -0.97888554E-20
    0.207241494390         0.13318396E-05      0.48963260E-01      0.94860301E-15      0.12253723E-06      0.23740084E-20
    0.210381517032         0.13982084E-05      0.48037460E-01      0.34517333E-14      0.12432742E-06      0.89335506E-20
    0.213521539674         0.14672093E-05      0.47146377E-01      0.54640093E-14      0.12615987E-06      0.14621245E-19
    0.216661562317         0.15389178E-05      0.46288255E-01     -0.40503374E-14      0.12803446E-06     -0.11203334E-19
    0.219801584959         0.16134104E-05      0.45462429E-01      0.13079833E-14      0.12995386E-06      0.37388564E-20
    0.222941607601         0.16907644E-05      0.44667374E-01      0.42370868E-14      0.13191826E-06      0.12513588E-19
    0.226081630243         0.17710577E-05      0.43902506E-01     -0.14295053E-14      0.13393044E-06     -0.43608962E-20
    0.229221652886         0.18543692E-05      0.43166392E-01     -0.16058491E-14      0.13599059E-06     -0.50590366E-20
    0.232361675528         0.19407779E-05      0.42458583E-01     -0.16642162E-14      0.13810182E-06     -0.54130699E-20
    0.235501698170         0.20303639E-05      0.41777725E-01      0.29249729E-14      0.14026431E-06      0.98202882E-20
    0.238641720812         0.21232074E-05      0.41123417E-01      0.37635542E-14      0.14248127E-06      0.13039675E-19
    0.241781743455         0.22193892E-05      0.40494417E-01     -0.79602421E-16      0.14475303E-06     -0.28455013E-21
    0.244921766097         0.23189905E-05      0.39890450E-01     -0.10398596E-13      0.14708320E-06     -0.38341476E-19
    0.248061788739         0.24220926E-05      0.39310338E-01     -0.97068094E-14      0.14947212E-06     -0.36908799E-19
    0.251201811381         0.25287771E-05      0.38753816E-01     -0.95778788E-14      0.15192345E-06     -0.37547382E-19
    0.254341834024         0.26391259E-05      0.38219870E-01     -0.59529180E-14      0.15443796E-06     -0.24054412E-19
    0.257481856666         0.27532206E-05      0.37708197E-01     -0.32212702E-14      0.15701918E-06     -0.13413561E-19
    0.260621879308         0.28711432E-05      0.37217960E-01     -0.52807322E-14      0.15966844E-06     -0.22654823E-19
    0.263761901951         0.29929751E-05      0.36748867E-01      0.70166964E-14      0.16238935E-06      0.31006038E-19
    0.266901924593         0.31187981E-05      0.36300142E-01      0.29513540E-14      0.16518341E-06      0.13430104E-19
    0.270041947235         0.32486931E-05      0.35871537E-01      0.22006845E-14      0.16805444E-06      0.10309979E-19
    0.273181969877         0.33827410E-05      0.35462391E-01     -0.25051452E-14      0.17100440E-06     -0.12080146E-19
    0.276321992520         0.35210223E-05      0.35072460E-01     -0.61517393E-14      0.17403720E-06     -0.30526273E-19
    0.279462015162         0.36636166E-05      0.34701202E-01     -0.65595491E-14      0.17715536E-06     -0.33487580E-19
    0.282602037804         0.38106031E-05      0.34348330E-01     -0.49117413E-14      0.18036265E-06     -0.25791491E-19
    0.285742060446         0.39620603E-05      0.34013446E-01     -0.76601212E-14      0.18366233E-06     -0.41362339E-19
    0.288882083089         0.41180657E-05      0.33696252E-01     -0.83705877E-14      0.18705822E-06     -0.46467698E-19
    0.292022105731         0.42786958E-05      0.33396465E-01      0.20899067E-14      0.19055429E-06      0.11924636E-19
    0.295162128373         0.44440263E-05      0.33113764E-01     -0.16850454E-14      0.19415433E-06     -0.98798452E-20
    0.298302151016         0.46141316E-05      0.32848013E-01     -0.14281622E-16      0.19786330E-06     -0.86026784E-22
    0.301442173658         0.47890848E-05      0.32598822E-01      0.72946364E-15      0.20168471E-06      0.45130974E-20
    0.304582196300         0.49689578E-05      0.32366198E-01     -0.26977814E-14      0.20562458E-06     -0.17139182E-19
    0.307722218942         0.51538208E-05      0.32149782E-01     -0.27465378E-14      0.20968677E-06     -0.17913423E-19
    0.310862241585         0.53437427E-05      0.31949590E-01      0.22251829E-14      0.21387765E-06      0.14895868E-19
    0.314002264227         0.55387906E-05      0.31765407E-01     -0.53658783E-15      0.21820221E-06     -0.36859168E-20
    0.317142286869         0.57390298E-05      0.31597166E-01      0.42162835E-15      0.22266656E-06      0.29712328E-20
    0.320282309511         0.59445238E-05      0.31444827E-01     -0.15710896E-14      0.22727720E-06     -0.11355535E-19
    0.323422332154         0.61553339E-05      0.31308300E-01     -0.46268304E-14      0.23204042E-06     -0.34291599E-19
    0.326562354796         0.63715196E-05      0.31187643E-01     -0.38286756E-14      0.23696380E-06     -0.29090288E-19
    0.329702377438         0.65931380E-05      0.31082771E-01     -0.19689004E-14      0.24205406E-06     -0.15332620E-19
    0.332842400080         0.68202438E-05      0.30993875E-01     -0.31430099E-14      0.24732025E-06     -0.25080116E-19
    0.335982422723         0.70528895E-05      0.30920861E-01     -0.89206985E-15      0.25276949E-06     -0.72924243E-20
    0.339122445365         0.72911249E-05      0.30864016E-01     -0.33606481E-14      0.25841218E-06     -0.28137376E-19
    0.342262468007         0.75349972E-05      0.30823277E-01     -0.52425387E-14      0.26425619E-06     -0.44945686E-19
    0.345402490650         0.77845510E-05      0.30799039E-01     -0.35090218E-14      0.27031355E-06     -0.30797589E-19
    0.348542513292         0.80398277E-05      0.30791278E-01     -0.44642595E-15      0.27659304E-06     -0.40101716E-20
    0.351682535934         0.83008661E-05      0.30800497E-01     -0.41835606E-14      0.28310848E-06     -0.38453972E-19
    0.354822558576         0.85677017E-05      0.30826671E-01     -0.46925647E-14      0.28986934E-06     -0.44125123E-19
    0.357962581219         0.88403671E-05      0.30870493E-01     -0.21722495E-14      0.29689219E-06     -0.20891274E-19
    0.361102603861         0.91188913E-05      0.30931912E-01     -0.34614442E-14      0.30418706E-06     -0.34040137E-19
    0.364242626503         0.94033002E-05      0.31011821E-01     -0.50525803E-14      0.31177361E-06     -0.50795507E-19
    0.367382649145         0.96936162E-05      0.31110136E-01     -0.77604635E-15      0.31966245E-06     -0.79740211E-20
    0.370522671788         0.99898580E-05      0.31227994E-01     -0.13405739E-14      0.32787715E-06     -0.14075305E-19
    0.373662694430         0.10292041E-04      0.31365273E-01     -0.10302972E-14      0.33642896E-06     -0.11051133E-19
    0.376802717072         0.10600176E-04      0.31523422E-01     -0.20247563E-14      0.34534641E-06     -0.22181675E-19
    0.379942739715         0.10914271E-04      0.31702203E-01     -0.20633251E-14      0.35464070E-06     -0.23081648E-19
    0.383082762357         0.11234330E-04      0.31903517E-01     -0.30791778E-14      0.36434741E-06     -0.35165102E-19
    0.386222784999         0.11560353E-04      0.32126845E-01     -0.31576616E-14      0.37447585E-06     -0.36806229E-19
    0.389362807641         0.11892334E-04      0.32374783E-01     -0.35818395E-14      0.38507209E-06     -0.42603110E-19
    0.392502830284         0.12230266E-04      0.32646363E-01     -0.45743891E-14      0.39614161E-06     -0.55507128E-19
    0.395642852926         0.12574136E-04      0.32945140E-01      0.90895398E-16      0.40774507E-06      0.11249656E-20
    0.398782875568         0.12923926E-04      0.33269413E-01     -0.17554776E-14      0.41988043E-06     -0.22155206E-19
    0.401922898210         0.13279615E-04      0.33624078E-01     -0.11201674E-14      0.43262904E-06     -0.14412795E-19
    0.405062920853         0.13641178E-04      0.34006349E-01     -0.17872568E-14      0.44597646E-06     -0.23438990E-19
    0.408202943495         0.14008583E-04      0.34423008E-01     -0.31878705E-14      0.46003349E-06     -0.42603110E-19
    0.411342966137         0.14381797E-04      0.34869586E-01     -0.39581886E-14      0.47476469E-06     -0.53892471E-19
    0.414482988779         0.14760779E-04      0.35355609E-01     -0.27331801E-14      0.49032430E-06     -0.37904724E-19
    0.417623011422         0.15145484E-04      0.35873945E-01     -0.33174341E-14      0.50664112E-06     -0.46851510E-19
    0.420763034064         0.15535866E-04      0.36438240E-01     -0.34249921E-14      0.52393548E-06     -0.49247025E-19
    0.423903056706         0.15931868E-04      0.37036995E-01     -0.34380306E-14      0.54207383E-06     -0.50319051E-19
    0.427043079349         0.16333434E-04      0.37690335E-01     -0.12759875E-14      0.56138182E-06     -0.19005302E-19
    0.430183101991         0.16740499E-04      0.38379142E-01     -0.33850610E-14      0.58161133E-06     -0.51298433E-19
    0.433323124633         0.17152996E-04      0.39134554E-01     -0.16089378E-14      0.60326905E-06     -0.24802183E-19
    0.436463147275         0.17570851E-04      0.39922821E-01     -0.30763160E-14      0.62587699E-06     -0.48227938E-19
    0.439603169918         0.17993986E-04      0.40795736E-01     -0.10561323E-14      0.65028523E-06     -0.16834780E-19
    0.442743192560         0.18422319E-04      0.41687761E-01     -0.50640392E-15      0.67549717E-06     -0.82056317E-20
    0.445883215202         0.18855762E-04      0.42694779E-01     -0.27147789E-14      0.70310515E-06     -0.44707458E-19
    0.449023237844         0.19294222E-04      0.43666827E-01     -0.39910446E-14      0.73068911E-06     -0.66783254E-19
    0.452163260487         0.19737601E-04      0.44816409E-01     -0.23030156E-14      0.76183108E-06     -0.39148804E-19
    0.455303283129         0.20185796E-04      0.45614536E-01     -0.53859316E-14      0.78753687E-06     -0.92988336E-19
    0.458443305771         0.20638700E-04      0.46730717E-01     -0.64198420E-14      0.81925988E-06     -0.11254950E-18
    0.461583328413         0.21096200E-04      0.51250273E-01     -0.34503380E-14      0.91216383E-06     -0.61409889E-19
    0.464723351056         0.21558180E-04      0.53459107E-01     -0.45539809E-14      0.96574358E-06     -0.82268075E-19
    0.467863373698         0.22024515E-04      0.53794856E-01     -0.41035955E-14      0.98616731E-06     -0.75227114E-19
    0.471003396340         0.22495080E-04      0.55656924E-01      0.20792872E-14      0.10351547E-05      0.38672348E-19
    0.474143418983         0.22969743E-04      0.57610886E-01      0.75766136E-16      0.10868597E-05      0.14293681E-20
    0.477283441625         0.23448366E-04      0.59935664E-01      0.21583217E-15      0.11466848E-05      0.41292856E-20
    0.480423464267         0.23930807E-04      0.62490355E-01     -0.26690917E-14      0.12121843E-05     -0.51774889E-19
    0.483563486909         0.24416922E-04      0.65343609E-01     -0.72206974E-14      0.12848815E-05     -0.14198390E-18
    0.486703509552         0.24906558E-04      0.68541674E-01     -0.69600096E-14      0.13659238E-05     -0.13870165E-18
    0.489843532194         0.25399560E-04      0.72081548E-01     -0.23176146E-14      0.14555109E-05     -0.46798570E-19
    0.492983554836         0.25895769E-04      0.76111053E-01     -0.40398413E-14      0.15569212E-05     -0.82638652E-19
    0.496123577478         0.26395019E-04      0.80584510E-01     -0.37076018E-14      0.16695761E-05     -0.76815300E-19
    0.499263600121         0.26897142E-04      0.85760149E-01     -0.19076704E-14      0.17992201E-05     -0.40022307E-19
    0.502403622763         0.27401965E-04      0.91563621E-01     -0.37013086E-14      0.19447977E-05     -0.78615245E-19
    0.505543645405         0.27909310E-04      0.98416108E-01     -0.20389082E-14      0.21158222E-05     -0.43833955E-19
    0.508683668048         0.28418995E-04      0.10624173E+00     -0.12336865E-13      0.23114186E-05     -0.26840357E-18
