 
 # Omega; pulse ft; proj flux t=    1000.25000000000     
    0.000000000000         0.45239627E-10      0.00000000E+00      0.00000000E+00      0.67392934E-07      0.13552527E-19
    0.003140022642         0.18021395E-09      0.30422313E+01     -0.41926556E-12      0.67993970E-07     -0.93705992E-20
    0.006280045285         0.58555420E-09      0.18893807E+01     -0.21245168E-12      0.68603512E-07     -0.77141313E-20
    0.009420067927         0.12625127E-08      0.13262943E+01      0.20683462E-12      0.69222005E-07      0.10795121E-19
    0.012560090569         0.22131784E-08      0.10179257E+01     -0.22612239E-13      0.69849333E-07     -0.15516357E-20
    0.015700113211         0.34404797E-08      0.82596928E+00     -0.24825299E-12      0.70485966E-07     -0.21185233E-19
    0.018840135854         0.49481878E-08      0.69547148E+00     -0.99992144E-13      0.71131834E-07     -0.10227054E-19
    0.021980158496         0.67409214E-08      0.60108622E+00     -0.11938362E-12      0.71787323E-07     -0.14257905E-19
    0.025120181138         0.88241530E-08      0.52963969E+00     -0.25346031E-12      0.72452492E-07     -0.34672309E-19
    0.028260203780         0.11204215E-07      0.47364444E+00      0.48442234E-13      0.73127567E-07      0.74791603E-20
    0.031400226423         0.13888307E-07      0.42854113E+00     -0.16780900E-13      0.73812781E-07     -0.28903759E-20
    0.034540249065         0.16884505E-07      0.39139879E+00     -0.40622671E-13      0.74508341E-07     -0.77331048E-20
    0.037680271707         0.20201772E-07      0.36024937E+00      0.57652425E-13      0.75214440E-07      0.12036925E-19
    0.040820294349         0.23849967E-07      0.33372341E+00     -0.25884880E-14      0.75931305E-07     -0.58895260E-21
    0.043960316992         0.27839854E-07      0.31083892E+00     -0.16115451E-13      0.76659165E-07     -0.39743960E-20
    0.047100339634         0.32183120E-07      0.29087366E+00      0.32854686E-13      0.77398233E-07      0.87422651E-20
    0.050240362276         0.36892382E-07      0.27328491E+00     -0.17945917E-13      0.78148767E-07     -0.51318285E-20
    0.053380384919         0.41981203E-07      0.25765676E+00     -0.12349755E-13      0.78910950E-07     -0.37822834E-20
    0.056520407561         0.47464107E-07      0.24366603E+00      0.21272267E-13      0.79685182E-07      0.69565890E-20
    0.059660430203         0.53356591E-07      0.23105632E+00      0.16524538E-13      0.80471499E-07      0.57551091E-20
    0.062800452845         0.59675142E-07      0.21962362E+00     -0.19112312E-14      0.81270378E-07     -0.70723942E-21
    0.065940475488         0.66437253E-07      0.20920175E+00     -0.35154753E-13      0.82081908E-07     -0.13793237E-19
    0.069080498130         0.73661441E-07      0.19965576E+00     -0.42353271E-13      0.82906606E-07     -0.17587101E-19
    0.072220520772         0.81367256E-07      0.19087299E+00     -0.66259189E-13      0.83744457E-07     -0.29070849E-19
    0.075360543414         0.89575309E-07      0.18276083E+00     -0.15168369E-13      0.84596025E-07     -0.70211090E-20
    0.078500566057         0.98307280E-07      0.17524036E+00     -0.47091980E-13      0.85461316E-07     -0.22965843E-19
    0.081640588699         0.10758594E-06      0.16824624E+00     -0.53241483E-13      0.86341046E-07     -0.27322603E-19
    0.084780611341         0.11743516E-06      0.16172122E+00     -0.12809869E-13      0.87235078E-07     -0.69098532E-20
    0.087920633984         0.12787995E-06      0.15561788E+00     -0.41622318E-13      0.88144189E-07     -0.23575475E-19
    0.091060656626         0.13894644E-06      0.14989401E+00     -0.14499804E-13      0.89068363E-07     -0.86159133E-20
    0.094200679268         0.15066195E-06      0.14451400E+00     -0.15698051E-14      0.90008184E-07     -0.97772748E-21
    0.097340701910         0.16305493E-06      0.13944590E+00     -0.13838292E-13      0.90963629E-07     -0.90270220E-20
    0.100480724553         0.17615507E-06      0.13466336E+00     -0.22427033E-13      0.91935739E-07     -0.15311113E-19
    0.103620747195         0.18999324E-06      0.13014117E+00      0.25171328E-13      0.92924167E-07      0.17972980E-19
    0.106760769837         0.20460153E-06      0.12585908E+00      0.26955301E-13      0.93929987E-07      0.20117032E-19
    0.109900792479         0.22001329E-06      0.12179731E+00      0.65529521E-14      0.94952923E-07      0.51086675E-20
    0.113040815122         0.23626311E-06      0.11793999E+00      0.74514300E-14      0.95994040E-07      0.60648883E-20
    0.116180837764         0.25338685E-06      0.11427141E+00      0.51423563E-15      0.97053163E-07      0.43675136E-21
    0.119320860406         0.27142164E-06      0.11077884E+00     -0.76617556E-14      0.98131277E-07     -0.67870169E-20
    0.122460883048         0.29040593E-06      0.10744974E+00      0.27745659E-13      0.99228407E-07      0.25622747E-19
    0.125600905691         0.31037944E-06      0.10427364E+00      0.15163548E-13      0.10034535E-06      0.14592293E-19
    0.128740928333         0.33138323E-06      0.10124040E+00      0.15705376E-13      0.10148230E-06      0.15742901E-19
    0.131880950975         0.35345968E-06      0.98341451E-01     -0.20042489E-13      0.10264008E-06     -0.20918571E-19
    0.135020973618         0.37665248E-06      0.95568327E-01     -0.21986707E-13      0.10381883E-06     -0.23884840E-19
    0.138160996260         0.40100669E-06      0.92914029E-01     -0.12793894E-13      0.10501951E-06     -0.14460771E-19
    0.141301018902         0.42656868E-06      0.90371366E-01      0.65393834E-14      0.10624220E-06      0.76878166E-20
    0.144441041544         0.45338618E-06      0.87934577E-01      0.90380876E-14      0.10748798E-06      0.11047824E-19
    0.147581064187         0.48150828E-06      0.85597498E-01      0.51952634E-15      0.10875688E-06      0.66009013E-21
    0.150721086829         0.51098541E-06      0.83355333E-01     -0.93077608E-14      0.11005009E-06     -0.12288595E-19
    0.153861109471         0.54186934E-06      0.81202760E-01     -0.85294872E-14      0.11136765E-06     -0.11697988E-19
    0.157001132113         0.57421319E-06      0.79135761E-01     -0.11412216E-13      0.11271084E-06     -0.16254099E-19
    0.160141154756         0.60807142E-06      0.77149646E-01      0.10125226E-13      0.11407963E-06      0.14971969E-19
    0.163281177398         0.64349984E-06      0.75241028E-01      0.23348228E-14      0.11547543E-06      0.35833464E-20
    0.166421200040         0.68055556E-06      0.73405831E-01      0.25316775E-14      0.11689826E-06      0.40316783E-20
    0.169561222683         0.71929702E-06      0.71641109E-01      0.93574799E-14      0.11834954E-06      0.15458351E-19
    0.172701245325         0.75978397E-06      0.69943310E-01      0.11571208E-13      0.11982940E-06      0.19824211E-19
    0.175841267967         0.80207741E-06      0.68309810E-01      0.30753134E-14      0.12133919E-06      0.54627008E-20
    0.178981290609         0.84623967E-06      0.66737537E-01      0.15669983E-14      0.12287922E-06      0.28852060E-20
    0.182121313252         0.89233427E-06      0.65224172E-01     -0.55490798E-15      0.12445086E-06     -0.10587912E-20
    0.185261335894         0.94042601E-06      0.63767017E-01     -0.10915546E-13      0.12605454E-06     -0.21577833E-19
    0.188401358536         0.99058087E-06      0.62363952E-01     -0.94695536E-15      0.12769153E-06     -0.19389114E-20
    0.191541381178         0.10428660E-05      0.61012654E-01     -0.44084950E-15      0.12936249E-06     -0.93471409E-21
    0.194681403821         0.10973497E-05      0.59711165E-01     -0.38754244E-14      0.13106861E-06     -0.85067254E-20
    0.197821426463         0.11541015E-05      0.58457499E-01      0.50826773E-14      0.13281082E-06      0.11547441E-19
    0.200961449105         0.12131919E-05      0.57249805E-01      0.70089087E-14      0.13459015E-06      0.16477438E-19
    0.204101471747         0.12746923E-05      0.56086392E-01     -0.13162232E-14      0.13640783E-06     -0.32011890E-20
    0.207241494390         0.13386756E-05      0.54965537E-01      0.71390267E-14      0.13826480E-06      0.17958091E-19
    0.210381517032         0.14052151E-05      0.53885769E-01      0.79375627E-14      0.14016250E-06      0.20646428E-19
    0.213521539674         0.14743854E-05      0.52845483E-01      0.72265079E-14      0.14210185E-06      0.19432127E-19
    0.216661562317         0.15462618E-05      0.51843411E-01      0.76193270E-15      0.14408450E-06      0.21175824E-20
    0.219801584959         0.16209206E-05      0.50878055E-01      0.15680684E-14      0.14611135E-06      0.45031713E-20
    0.222941607601         0.16984387E-05      0.49948311E-01      0.55428794E-15      0.14818427E-06      0.16444351E-20
    0.226081630243         0.17788939E-05      0.49052786E-01      0.27859462E-15      0.15030416E-06      0.85365039E-21
    0.229221652886         0.18623645E-05      0.48190528E-01      0.64313754E-15      0.15247312E-06      0.20348643E-20
    0.232361675528         0.19489296E-05      0.47360227E-01     -0.19186074E-14      0.15469204E-06     -0.62667203E-20
    0.235501698170         0.20386687E-05      0.46561062E-01      0.61961366E-14      0.15696326E-06      0.20887965E-19
    0.238641720812         0.21316617E-05      0.45791819E-01      0.58412390E-14      0.15928774E-06      0.20318865E-19
    0.241781743455         0.22279893E-05      0.45051775E-01     -0.80493803E-15      0.16166799E-06     -0.28885147E-20
    0.244921766097         0.23277321E-05      0.44339816E-01     -0.92778178E-14      0.16410509E-06     -0.34337922E-19
    0.248061788739         0.24309714E-05      0.43655298E-01     -0.78740709E-14      0.16660172E-06     -0.30049817E-19
    0.251201811381         0.25377883E-05      0.42997209E-01     -0.66431994E-14      0.16915912E-06     -0.26135599E-19
    0.254341834024         0.26482643E-05      0.42364966E-01     -0.30249407E-14      0.17178013E-06     -0.12265434E-19
    0.257481856666         0.27624808E-05      0.41757662E-01     -0.26307815E-14      0.17446622E-06     -0.10991576E-19
    0.260621879308         0.28805194E-05      0.41174761E-01     -0.61022353E-14      0.17722034E-06     -0.26264639E-19
    0.263761901951         0.30024614E-05      0.40615458E-01      0.93277779E-14      0.18004425E-06      0.41349104E-19
    0.266901924593         0.31283879E-05      0.40079254E-01      0.49400889E-14      0.18294101E-06      0.22548943E-19
    0.270041947235         0.32583797E-05      0.39565452E-01      0.32679763E-14      0.18591273E-06      0.15355781E-19
    0.273181969877         0.33925174E-05      0.39073577E-01      0.90379631E-15      0.18896256E-06      0.43708224E-20
    0.276321992520         0.35308809E-05      0.38603033E-01     -0.10811619E-14      0.19209302E-06     -0.53799827E-20
    0.279462015162         0.36735498E-05      0.38153380E-01     -0.18841402E-14      0.19530741E-06     -0.96449259E-20
    0.282602037804         0.38206029E-05      0.37724096E-01     -0.76616184E-14      0.19860858E-06     -0.40336635E-19
    0.285742060446         0.39721182E-05      0.37314788E-01     -0.60913098E-14      0.20200007E-06     -0.32974728E-19
    0.288882083089         0.41281729E-05      0.36925014E-01     -0.93638296E-14      0.20548517E-06     -0.52109070E-19
    0.292022105731         0.42888434E-05      0.36554405E-01      0.26033097E-14      0.20906760E-06      0.14889251E-19
    0.295162128373         0.44542050E-05      0.36202611E-01     -0.66099219E-15      0.21275119E-06     -0.38844402E-20
    0.298302151016         0.46243316E-05      0.35869276E-01     -0.25145983E-14      0.21653980E-06     -0.15180419E-19
    0.301442173658         0.47992961E-05      0.35554141E-01     -0.65533389E-15      0.22043791E-06     -0.40631112E-20
    0.304582196300         0.49791702E-05      0.35256877E-01     -0.16849940E-14      0.22444960E-06     -0.10726878E-19
    0.307722218942         0.51640238E-05      0.34977304E-01     -0.23836631E-14      0.22858001E-06     -0.15577465E-19
    0.310862241585         0.53539254E-05      0.34715119E-01      0.38666843E-14      0.23283354E-06      0.25933767E-19
    0.314002264227         0.55489418E-05      0.34470210E-01      0.31780583E-14      0.23721594E-06      0.21870655E-19
    0.317142286869         0.57491382E-05      0.34242321E-01     -0.10217525E-15      0.24173210E-06     -0.72130149E-21
    0.320282309511         0.59545777E-05      0.34031393E-01     -0.17978528E-14      0.24638842E-06     -0.13016514E-19
    0.323422332154         0.61653214E-05      0.33837221E-01     -0.78534048E-15      0.25119035E-06     -0.58299690E-20
    0.326562354796         0.63814285E-05      0.33659812E-01     -0.46471046E-14      0.25614508E-06     -0.35363626E-19
    0.329702377438         0.66029559E-05      0.33499000E-01     -0.81710480E-15      0.26125867E-06     -0.63725994E-20
    0.332842400080         0.68299581E-05      0.33354862E-01      0.66248855E-17      0.26653920E-06      0.52939559E-22
    0.335982422723         0.70624875E-05      0.33227277E-01     -0.19078256E-15      0.27199344E-06     -0.15617170E-20
    0.339122445365         0.73005935E-05      0.33116387E-01     -0.16513071E-14      0.27763047E-06     -0.13843695E-19
    0.342262468007         0.75443232E-05      0.33022133E-01     -0.22842227E-14      0.28345797E-06     -0.19607489E-19
    0.345402490650         0.77937209E-05      0.32944715E-01     -0.37293148E-14      0.28948608E-06     -0.32769587E-19
    0.348542513292         0.80488281E-05      0.32884150E-01      0.44887015E-16      0.29572365E-06      0.40366414E-21
    0.351682535934         0.83096834E-05      0.32840673E-01     -0.20992696E-14      0.30218177E-06     -0.19316322E-19
    0.354822558576         0.85763220E-05      0.32814415E-01     -0.35151830E-14      0.30887095E-06     -0.33087225E-19
    0.357962581219         0.88487764E-05      0.32805668E-01     -0.23667872E-14      0.31580356E-06     -0.22783863E-19
    0.361102603861         0.91270757E-05      0.32814634E-01     -0.25561061E-14      0.32299153E-06     -0.25159526E-19
    0.364242626503         0.94112456E-05      0.32841685E-01     -0.28556256E-14      0.33044890E-06     -0.28732946E-19
    0.367382649145         0.97013084E-05      0.32887131E-01     -0.38610673E-17      0.33818956E-06     -0.39704669E-22
    0.370522671788         0.99972828E-05      0.32951408E-01      0.67262321E-15      0.34622922E-06      0.70674312E-20
    0.373662694430         0.10299184E-04      0.33034961E-01      0.23427627E-15      0.35458423E-06      0.25146291E-20
    0.376802717072         0.10607023E-04      0.33138283E-01     -0.20693269E-14      0.36327210E-06     -0.22684601E-19
    0.379942739715         0.10920809E-04      0.33262025E-01     -0.37836514E-15      0.37231272E-06     -0.42351647E-20
    0.383082762357         0.11240543E-04      0.33406661E-01     -0.11142385E-14      0.38172474E-06     -0.12731964E-19
    0.386222784999         0.11566227E-04      0.33573080E-01     -0.24717346E-14      0.39153227E-06     -0.28825590E-19
    0.389362807641         0.11897856E-04      0.33761885E-01     -0.18240107E-14      0.40175702E-06     -0.21705219E-19
    0.392502830284         0.12235421E-04      0.33974145E-01     -0.27561238E-14      0.41242712E-06     -0.33457801E-19
    0.395642852926         0.12578910E-04      0.34210508E-01      0.22447986E-16      0.42356666E-06      0.27793269E-21
    0.398782875568         0.12928306E-04      0.34472423E-01      0.24425788E-15      0.43521062E-06      0.30837293E-20
    0.401922898210         0.13283588E-04      0.34760511E-01     -0.75889468E-15      0.44738491E-06     -0.97673487E-20
    0.405062920853         0.13644729E-04      0.35076727E-01     -0.74962520E-15      0.46013369E-06     -0.98335231E-20
    0.408202943495         0.14011700E-04      0.35421572E-01     -0.24218071E-14      0.47348373E-06     -0.32372540E-19
    0.411342966137         0.14384465E-04      0.35797719E-01     -0.27260951E-14      0.48749206E-06     -0.37123866E-19
    0.414482988779         0.14762986E-04      0.36205450E-01     -0.24226629E-14      0.50218530E-06     -0.33603385E-19
    0.417623011422         0.15147219E-04      0.36648396E-01     -0.17794028E-14      0.51763782E-06     -0.25133056E-19
    0.420763034064         0.15537114E-04      0.37126379E-01     -0.31412412E-14      0.53387295E-06     -0.45170679E-19
    0.423903056706         0.15932619E-04      0.37644540E-01     -0.23527970E-14      0.55099183E-06     -0.34437183E-19
    0.427043079349         0.16333675E-04      0.38201731E-01      0.63976143E-16      0.56900727E-06      0.95291207E-21
    0.430183101991         0.16740219E-04      0.38805461E-01     -0.33728906E-14      0.58806209E-06     -0.51113144E-19
    0.433323124633         0.17152184E-04      0.39452724E-01     -0.14939617E-14      0.60814494E-06     -0.23028708E-19
    0.436463147275         0.17569496E-04      0.40154878E-01     -0.11634166E-14      0.62946645E-06     -0.18237678E-19
    0.439603169918         0.17992079E-04      0.40905348E-01     -0.17853186E-14      0.65196332E-06     -0.28455013E-19
    0.442743192560         0.18419849E-04      0.41722107E-01     -0.10521544E-14      0.67596303E-06     -0.17046538E-19
    0.445883215202         0.18852719E-04      0.42591502E-01     -0.17490564E-14      0.70129115E-06     -0.28799120E-19
    0.449023237844         0.19290597E-04      0.43543670E-01     -0.21137684E-14      0.72849137E-06     -0.35363626E-19
    0.452163260487         0.19733385E-04      0.44550009E-01     -0.25931981E-14      0.75714082E-06     -0.44072183E-19
    0.455303283129         0.20180982E-04      0.45665319E-01     -0.50835816E-14      0.78822563E-06     -0.87747319E-19
    0.458443305771         0.20633280E-04      0.46825919E-01     -0.53628520E-14      0.82071334E-06     -0.93994187E-19
    0.461583328413         0.21090167E-04      0.48145812E-01     -0.35390957E-14      0.85666489E-06     -0.62971606E-19
    0.464723351056         0.21551527E-04      0.49461358E-01     -0.35572469E-14      0.89324817E-06     -0.64242155E-19
    0.467863373698         0.22017237E-04      0.51077554E-01     -0.39648463E-14      0.93604431E-06     -0.72659545E-19
    0.471003396340         0.22487171E-04      0.52385169E-01      0.25284825E-14      0.97396125E-06      0.47010329E-19
    0.474143418983         0.22961198E-04      0.55981800E-01      0.19650383E-14      0.10557333E-05      0.37057691E-19
    0.477283441625         0.23439180E-04      0.60366912E-01      0.80830372E-15      0.11544830E-05      0.15458351E-19
    0.480423464267         0.23920978E-04      0.60602807E-01     -0.22743016E-14      0.11750870E-05     -0.44098653E-19
    0.483563486909         0.24406446E-04      0.61901878E-01     -0.56023479E-14      0.12166829E-05     -0.11011428E-18
    0.486703509552         0.24895433E-04      0.64545702E-01     -0.61923928E-14      0.12857161E-05     -0.12334917E-18
    0.489843532194         0.25387784E-04      0.67409381E-01     -0.24157389E-14      0.13605368E-05     -0.48757334E-19
    0.492983554836         0.25883341E-04      0.70702473E-01     -0.18357609E-14      0.14455897E-05     -0.37534147E-19
    0.496123577478         0.26381938E-04      0.74474240E-01     -0.27456503E-14      0.15422169E-05     -0.56857087E-19
    0.499263600121         0.26883410E-04      0.78648337E-01     -0.85586059E-15      0.16491742E-05     -0.17946511E-19
    0.502403622763         0.27387581E-04      0.83584754E-01     -0.25261917E-14      0.17743959E-05     -0.53627773E-19
    0.505543645405         0.27894277E-04      0.89049014E-01     -0.15792808E-14      0.19134103E-05     -0.33934257E-19
    0.508683668048         0.28403316E-04      0.95717060E-01     -0.10663767E-13      0.20812926E-05     -0.23187527E-18
