 
 # Omega; pulse ft; proj flux t=    1000.25000000000     
    0.000000000000         0.10016161E-10      0.00000000E+00      0.00000000E+00      0.00000000E+00      0.00000000E+00      0.00000000E+00      0.00000000E+00
    0.003140022642         0.14711996E-09      0.34086915E-01     -0.64708327E-10      0.98984955E-10     -0.18790644E-18      0.31081500E-12     -0.59003047E-21
    0.006280045285         0.55885518E-09      0.42187127E-01     -0.45425451E-10      0.23268004E-09     -0.25054078E-18      0.10414356E-11     -0.13767342E-20
    0.009420067927         0.12464938E-08      0.32979242E-01     -0.54653172E-11      0.27047021E-09     -0.44822300E-19      0.18907182E-11     -0.15174772E-20
    0.012560090569         0.22121576E-08      0.25337002E-01     -0.91756952E-11      0.27658027E-09     -0.10016245E-18      0.27591865E-11     -0.18319896E-20
    0.015700113211         0.34588209E-08      0.20710481E-01     -0.14598986E-10      0.28278616E-09     -0.19933826E-18      0.36471414E-11     -0.24579162E-20
    0.018840135854         0.49903140E-08      0.17485847E-01     -0.80436177E-11      0.28706034E-09     -0.13204986E-18      0.45485174E-11     -0.28725558E-20
    0.021980158496         0.68113284E-08      0.15180334E-01     -0.59271382E-11      0.29155803E-09     -0.11383839E-18      0.54640162E-11     -0.32300109E-20
    0.025120181138         0.89274221E-08      0.13428529E-01     -0.72331720E-11      0.29578383E-09     -0.15932164E-18      0.63927841E-11     -0.37302845E-20
    0.028260203780         0.11345027E-07      0.12044441E-01     -0.13579129E-12      0.29968124E-09     -0.33786626E-20      0.73337900E-11     -0.37408935E-20
    0.031400226423         0.14071456E-07      0.10914994E-01     -0.21417611E-11      0.30316036E-09     -0.59486710E-19      0.82857204E-11     -0.39276832E-20
    0.034540249065         0.17114912E-07      0.99929870E-02     -0.23076142E-11      0.30689315E-09     -0.70868797E-19      0.92493718E-11     -0.41502128E-20
    0.037680271707         0.20484497E-07      0.92259288E-02      0.14251085E-11      0.31085944E-09      0.48017758E-19      0.10225478E-10     -0.39994359E-20
    0.040820294349         0.24190226E-07      0.85759108E-02     -0.16281667E-12      0.31498272E-09     -0.59800571E-20      0.11214530E-10     -0.40182135E-20
    0.043960316992         0.28243033E-07      0.80161699E-02     -0.38998996E-12      0.31919796E-09     -0.15529112E-19      0.12216819E-10     -0.40669752E-20
    0.047100339634         0.32654785E-07      0.75272622E-02      0.16727690E-12      0.32344654E-09      0.71878903E-20      0.13232449E-10     -0.40444051E-20
    0.050240362276         0.37438300E-07      0.70939513E-02     -0.12356175E-12      0.32763797E-09     -0.57067663E-20      0.14261239E-10     -0.40623245E-20
    0.053380384919         0.42607352E-07      0.67076663E-02     -0.92435095E-12      0.33183101E-09     -0.45728021E-19      0.15303196E-10     -0.42059115E-20
    0.056520407561         0.48176692E-07      0.63629901E-02      0.45395130E-12      0.33615194E-09      0.23981902E-19      0.16358721E-10     -0.41306078E-20
    0.059660430203         0.54162061E-07      0.60532037E-02      0.64614176E-13      0.34059382E-09      0.36356267E-20      0.17428193E-10     -0.41191918E-20
    0.062800452845         0.60580205E-07      0.57721484E-02     -0.13812334E-12      0.34510252E-09     -0.82580537E-20      0.18511823E-10     -0.41451223E-20
    0.065940475488         0.67448891E-07      0.55306512E-02     -0.27115060E-12      0.35062404E-09     -0.17190005E-19      0.19612790E-10     -0.41990993E-20
    0.069080498130         0.74786924E-07      0.53372256E-02     -0.29869687E-12      0.35811989E-09     -0.20042115E-19      0.20737295E-10     -0.42620320E-20
    0.072220520772         0.82614162E-07      0.51561914E-02     -0.45016750E-12      0.36556583E-09     -0.31916165E-19      0.21885180E-10     -0.43622495E-20
    0.075360543414         0.90951538E-07      0.49432905E-02     -0.29081226E-12      0.36976417E-09     -0.21753113E-19      0.23046248E-10     -0.44305547E-20
    0.078500566057         0.99821071E-07      0.47164171E-02     -0.21784168E-12      0.37171006E-09     -0.17168529E-19      0.24213426E-10     -0.44844643E-20
    0.081640588699         0.10924589E-06      0.45178494E-02     -0.16385573E-12      0.37469111E-09     -0.13589493E-19      0.25389964E-10     -0.45271356E-20
    0.084780611341         0.11925024E-06      0.43513642E-02     -0.29433106E-12      0.37934190E-09     -0.25659103E-19      0.26581106E-10     -0.46077058E-20
    0.087920633984         0.12985951E-06      0.42017144E-02     -0.23417446E-12      0.38463798E-09     -0.21437057E-19      0.27788878E-10     -0.46750186E-20
    0.091060656626         0.14110026E-06      0.40623109E-02     -0.15329140E-12      0.39013318E-09     -0.14721684E-19      0.29013905E-10     -0.47212451E-20
    0.094200679268         0.15300022E-06      0.39368170E-02     -0.45157804E-13      0.39630169E-09     -0.45458334E-20      0.30258302E-10     -0.47355191E-20
    0.097340701910         0.16558830E-06      0.38299870E-02     -0.90628115E-13      0.40380823E-09     -0.95552226E-20      0.31526269E-10     -0.47655227E-20
    0.100480724553         0.17889464E-06      0.37230207E-02     -0.17448227E-12      0.41082107E-09     -0.19253450E-19      0.32816256E-10     -0.48259790E-20
    0.103620747195         0.19295060E-06      0.35995582E-02      0.17653342E-12      0.41542371E-09      0.20373659E-19      0.34120696E-10     -0.47620052E-20
    0.106760769837         0.20778877E-06      0.34781408E-02      0.22282812E-13      0.41956592E-09      0.26879615E-20      0.35438143E-10     -0.47535649E-20
    0.109900792479         0.22344301E-06      0.33744507E-02      0.32121844E-13      0.42521808E-09      0.40477073E-20      0.36773337E-10     -0.47408551E-20
    0.113040815122         0.23994847E-06      0.32821776E-02     -0.22291955E-13      0.43180479E-09     -0.29327398E-20      0.38129214E-10     -0.47500639E-20
    0.116180837764         0.25734155E-06      0.31973858E-02     -0.59549758E-13      0.43894805E-09     -0.81751945E-20      0.39507521E-10     -0.47757342E-20
    0.119320860406         0.27565998E-06      0.31169030E-02     -0.32755460E-13      0.44629632E-09     -0.46901176E-20      0.40908901E-10     -0.47904613E-20
    0.122460883048         0.29494280E-06      0.30360884E-02      0.13894430E-12      0.45320792E-09      0.20740719E-19      0.42331984E-10     -0.47253350E-20
    0.125600905691         0.31523035E-06      0.29550560E-02      0.49645617E-13      0.45966733E-09      0.77225163E-20      0.43775350E-10     -0.47010861E-20
    0.128740928333         0.33656432E-06      0.28762789E-02      0.62750594E-13      0.46604206E-09      0.10167448E-19      0.45238733E-10     -0.46691601E-20
    0.131880950975         0.35898777E-06      0.28018708E-02     -0.10169752E-12      0.47270301E-09     -0.17157366E-19      0.46723031E-10     -0.47230346E-20
    0.135020973618         0.38254506E-06      0.27327407E-02     -0.45283397E-13      0.47986874E-09     -0.79517558E-20      0.48229830E-10     -0.47480033E-20
    0.138160996260         0.40728195E-06      0.26677334E-02      0.24304374E-13      0.48741041E-09      0.44405506E-20      0.49760309E-10     -0.47340599E-20
    0.141301018902         0.43324553E-06      0.26063131E-02      0.27634244E-13      0.49528829E-09      0.52514480E-20      0.51315526E-10     -0.47175702E-20
    0.144441041544         0.46048430E-06      0.25489912E-02     -0.13477600E-13      0.50365741E-09     -0.26630509E-20      0.52897021E-10     -0.47259322E-20
    0.147581064187         0.48904809E-06      0.24964929E-02     -0.53596432E-13      0.51273614E-09     -0.11007773E-19      0.54507024E-10     -0.47604969E-20
    0.150721086829         0.51898811E-06      0.24455952E-02     -0.60572730E-13      0.52192804E-09     -0.12927163E-19      0.56145890E-10     -0.48010885E-20
    0.153861109471         0.55035695E-06      0.23923562E-02     -0.42277177E-13      0.53037630E-09     -0.93726900E-20      0.57811284E-10     -0.48305189E-20
    0.157001132113         0.58320856E-06      0.23379170E-02     -0.16295341E-13      0.53826095E-09     -0.37516925E-20      0.59501436E-10     -0.48422993E-20
    0.160141154756         0.61759825E-06      0.22859408E-02     -0.11927597E-13      0.54640009E-09     -0.28510099E-20      0.61217144E-10     -0.48512516E-20
    0.163281177398         0.65358268E-06      0.22378991E-02     -0.72793452E-14      0.55519761E-09     -0.18059237E-20      0.62960477E-10     -0.48569222E-20
    0.166421200040         0.69121986E-06      0.21928182E-02     -0.47099054E-14      0.56448560E-09     -0.12124461E-20      0.64732975E-10     -0.48607293E-20
    0.169561222683         0.73056915E-06      0.21497555E-02      0.28331716E-13      0.57407221E-09      0.75657213E-20      0.66535575E-10     -0.48369728E-20
    0.172701245325         0.77169120E-06      0.21087660E-02      0.74946184E-14      0.58400846E-09      0.20755838E-20      0.68369374E-10     -0.48304554E-20
    0.175841267967         0.81464799E-06      0.20695115E-02     -0.19566320E-13      0.59423702E-09     -0.56182493E-20      0.70235292E-10     -0.48480968E-20
    0.178981290609         0.85950279E-06      0.20320182E-02      0.12313266E-13      0.60479742E-09      0.36648448E-20      0.72134370E-10     -0.48365891E-20
    0.182121313252         0.90632014E-06      0.19963984E-02      0.24525232E-14      0.61575896E-09      0.75644377E-21      0.74067867E-10     -0.48342139E-20
    0.185261335894         0.95516582E-06      0.19615673E-02     -0.20120996E-13      0.62681570E-09     -0.64296322E-20      0.76036082E-10     -0.48544031E-20
    0.188401358536         0.10061068E-05      0.19269758E-02      0.73092058E-14      0.63779191E-09      0.24192065E-20      0.78038763E-10     -0.48468067E-20
    0.191541381178         0.10592114E-05      0.18935438E-02      0.14106750E-14      0.64899009E-09      0.48349242E-21      0.80076607E-10     -0.48452885E-20
    0.194681403821         0.11145489E-05      0.18620681E-02      0.23063236E-13      0.66071309E-09      0.81834719E-20      0.82151261E-10     -0.48195922E-20
    0.197821426463         0.11721899E-05      0.18323929E-02     -0.11901213E-15      0.67295482E-09     -0.43707761E-22      0.84264354E-10     -0.48197295E-20
    0.200961449105         0.12322059E-05      0.18039409E-02      0.26895450E-15      0.68554428E-09      0.10220968E-21      0.86416979E-10     -0.48194085E-20
    0.204101471747         0.12946697E-05      0.17765509E-02     -0.25237220E-13      0.69844655E-09     -0.99219498E-20      0.88610117E-10     -0.48505637E-20
    0.207241494390         0.13596549E-05      0.17504237E-02      0.42603836E-14      0.71176700E-09      0.17323808E-20      0.90845081E-10     -0.48451240E-20
    0.210381517032         0.14272364E-05      0.17254387E-02      0.11568668E-13      0.72548850E-09      0.48642328E-20      0.93123132E-10     -0.48298502E-20
    0.213521539674         0.14974896E-05      0.17015352E-02     -0.83668483E-14      0.73961506E-09     -0.36368609E-20      0.95445540E-10     -0.48412700E-20
    0.216661562317         0.15704912E-05      0.16786709E-02     -0.36074095E-14      0.75415718E-09     -0.16206594E-20      0.97813610E-10     -0.48463589E-20
    0.219801584959         0.16463186E-05      0.16568414E-02      0.11063724E-13      0.76914225E-09      0.51360240E-20      0.10022873E-09     -0.48302317E-20
    0.222941607601         0.17250498E-05      0.16360067E-02      0.41271729E-14      0.78458187E-09      0.19792737E-20      0.10269234E-09     -0.48240167E-20
    0.226081630243         0.18067639E-05      0.16160729E-02     -0.78859778E-14      0.80046023E-09     -0.39060191E-20      0.10520580E-09     -0.48362817E-20
    0.229221652886         0.18915405E-05      0.15972082E-02      0.13963765E-13      0.81689117E-09      0.71417593E-20      0.10777086E-09     -0.48138564E-20
    0.232361675528         0.19794597E-05      0.15794799E-02     -0.11690342E-13      0.83394797E-09     -0.61723719E-20      0.11038947E-09     -0.48332378E-20
    0.235501698170         0.20706024E-05      0.15625934E-02     -0.15061192E-14      0.85151309E-09     -0.82073829E-21      0.11306325E-09     -0.48358149E-20
    0.238641720812         0.21650498E-05      0.15464586E-02      0.14273271E-13      0.86956588E-09      0.80257883E-20      0.11579370E-09     -0.48106138E-20
    0.241781743455         0.22628837E-05      0.15324353E-02      0.50293150E-14      0.88892179E-09      0.29173614E-20      0.11858494E-09     -0.48014532E-20
    0.244921766097         0.23641860E-05      0.15341177E-02     -0.10805802E-13      0.91781596E-09     -0.64647827E-20      0.12146690E-09     -0.48217528E-20
    0.248061788739         0.24690392E-05      0.15627961E-02     -0.17564398E-13      0.96408008E-09     -0.10835378E-19      0.12449413E-09     -0.48557761E-20
    0.251201811381         0.25775257E-05      0.15733944E-02     -0.27560077E-13      0.10006001E-08     -0.17526829E-19      0.12763604E-09     -0.49108107E-20
    0.254341834024         0.26897283E-05      0.15295492E-02     -0.11869575E-13      0.10025285E-08     -0.77798005E-20      0.13078400E-09     -0.49352395E-20
    0.257481856666         0.28057298E-05      0.14893629E-02     -0.67434071E-14      0.10058713E-08     -0.45542961E-20      0.13394246E-09     -0.49495401E-20
    0.260621879308         0.29256127E-05      0.14764472E-02     -0.71351867E-14      0.10272273E-08     -0.49642538E-20      0.13716798E-09     -0.49651279E-20
    0.263761901951         0.30494598E-05      0.14903683E-02      0.19731248E-13      0.10679406E-08      0.14138654E-19      0.14052133E-09     -0.49207323E-20
    0.266901924593         0.31773534E-05      0.15955389E-02      0.19207461E-13      0.11772370E-08      0.14171847E-19      0.14421789E-09     -0.48762323E-20
    0.270041947235         0.33093756E-05      0.16977584E-02      0.12174614E-13      0.12895358E-08      0.92472524E-20      0.14826706E-09     -0.48471958E-20
    0.273181969877         0.34456081E-05      0.16276467E-02     -0.34519107E-14      0.12723795E-08     -0.26984606E-20      0.15226236E-09     -0.48556690E-20
    0.276321992520         0.35861323E-05      0.14827469E-02     -0.21328142E-14      0.11926707E-08     -0.17155625E-20      0.15600737E-09     -0.48610559E-20
    0.279462015162         0.37310288E-05      0.14186614E-02     -0.54522604E-14      0.11738896E-08     -0.45115428E-20      0.15969341E-09     -0.48752222E-20
    0.282602037804         0.38803777E-05      0.14082457E-02     -0.11346488E-13      0.11984497E-08     -0.96561240E-20      0.16345657E-09     -0.49055427E-20
    0.285742060446         0.40342581E-05      0.14053932E-02     -0.12955961E-13      0.12297874E-08     -0.11337096E-19      0.16731813E-09     -0.49411414E-20
    0.288882083089         0.41927487E-05      0.14129152E-02     -0.77437568E-14      0.12709750E-08     -0.69658257E-20      0.17130902E-09     -0.49630143E-20
    0.292022105731         0.43559267E-05      0.14182205E-02     -0.63514396E-15      0.13111467E-08     -0.58719139E-21      0.17542605E-09     -0.49648581E-20
    0.295162128373         0.45238687E-05      0.14081113E-02      0.14071970E-14      0.13376084E-08      0.13367400E-20      0.17962617E-09     -0.49606607E-20
    0.298302151016         0.46966498E-05      0.13939648E-02      0.27585503E-14      0.13602737E-08      0.26918781E-20      0.18389746E-09     -0.49522081E-20
    0.301442173658         0.48743441E-05      0.13885405E-02      0.61168463E-14      0.13915968E-08      0.61303097E-20      0.18826711E-09     -0.49329588E-20
    0.304582196300         0.50570242E-05      0.13883773E-02      0.14181527E-14      0.14286988E-08      0.14593390E-20      0.19275325E-09     -0.49283764E-20
    0.307722218942         0.52447612E-05      0.13896262E-02      0.11374363E-14      0.14679374E-08      0.12015356E-20      0.19736261E-09     -0.49246036E-20
    0.310862241585         0.54376246E-05      0.13931284E-02      0.83374954E-14      0.15103412E-08      0.90389823E-20      0.20210512E-09     -0.48962210E-20
    0.314002264227         0.56356824E-05      0.13970017E-02      0.70277919E-14      0.15540083E-08      0.78176334E-20      0.20698474E-09     -0.48716734E-20
    0.317142286869         0.58390005E-05      0.13993269E-02      0.97392881E-14      0.15967842E-08      0.11113587E-19      0.21199868E-09     -0.48367765E-20
    0.320282309511         0.60476432E-05      0.14017449E-02     -0.28851301E-14      0.16404571E-08     -0.33764575E-20      0.21714975E-09     -0.48473787E-20
    0.323422332154         0.62616725E-05      0.14062623E-02     -0.30090666E-14      0.16874440E-08     -0.36107284E-20      0.22244836E-09     -0.48587164E-20
    0.326562354796         0.64811485E-05      0.14125150E-02     -0.19268544E-14      0.17374871E-08     -0.23701587E-20      0.22790411E-09     -0.48661588E-20
    0.329702377438         0.67061290E-05      0.14201635E-02      0.12293054E-14      0.17903207E-08      0.15497166E-20      0.23352576E-09     -0.48612927E-20
    0.332842400080         0.69366693E-05      0.14304751E-02      0.78989100E-16      0.18477165E-08      0.10202866E-21      0.23932763E-09     -0.48609723E-20
    0.335982422723         0.71728224E-05      0.14426029E-02     -0.18739516E-14      0.19088114E-08     -0.24795597E-20      0.24532134E-09     -0.48687582E-20
    0.339122445365         0.74146388E-05      0.14527452E-02     -0.31006503E-14      0.19686368E-08     -0.42017377E-20      0.25150290E-09     -0.48819517E-20
    0.342262468007         0.76621663E-05      0.14657889E-02     -0.25098284E-14      0.20337914E-08     -0.34824027E-20      0.25788905E-09     -0.48928865E-20
    0.345402490650         0.79154497E-05      0.14878244E-02     -0.11206874E-13      0.21132188E-08     -0.15917590E-19      0.26452461E-09     -0.49428681E-20
    0.348542513292         0.81745312E-05      0.15058740E-02     -0.14707652E-14      0.21889629E-08     -0.21379283E-20      0.27139800E-09     -0.49495813E-20
    0.351682535934         0.84394499E-05      0.15119179E-02     -0.21140363E-14      0.22487139E-08     -0.31442600E-20      0.27845901E-09     -0.49594543E-20
    0.354822558576         0.87102417E-05      0.15196335E-02     -0.47718265E-14      0.23120676E-08     -0.72601619E-20      0.28571896E-09     -0.49822514E-20
    0.357962581219         0.89869396E-05      0.15358020E-02     -0.24495690E-14      0.23897479E-08     -0.38115932E-20      0.29322282E-09     -0.49942199E-20
    0.361102603861         0.92695729E-05      0.15546173E-02     -0.24248396E-14      0.24734052E-08     -0.38579340E-20      0.30098937E-09     -0.50063339E-20
    0.364242626503         0.95581680E-05      0.15741645E-02     -0.62769767E-14      0.25602165E-08     -0.10208856E-19      0.30902851E-09     -0.50383899E-20
    0.367382649145         0.98527473E-05      0.15955767E-02      0.11648317E-14      0.26521559E-08      0.19361748E-20      0.31735634E-09     -0.50323103E-20
    0.370522671788         0.10153330E-04      0.16190204E-02      0.76448877E-15      0.27497214E-08      0.12983970E-20      0.32599053E-09     -0.50282333E-20
    0.373662694430         0.10459931E-04      0.16443659E-02      0.21738931E-14      0.28529242E-08      0.37716375E-20      0.33494877E-09     -0.50163903E-20
    0.376802717072         0.10772563E-04      0.16716870E-02      0.65511609E-15      0.29621201E-08      0.11608228E-20      0.34424990E-09     -0.50127452E-20
    0.379942739715         0.11091232E-04      0.17010708E-02      0.29889968E-14      0.30777030E-08      0.54079139E-20      0.35391395E-09     -0.49957643E-20
    0.383082762357         0.11415944E-04      0.17325965E-02     -0.17639292E-14      0.32000687E-08     -0.32579397E-20      0.36396224E-09     -0.50059943E-20
