 
 # Omega; pulse ft; projected flux at t=    1000.25000000000     
    0.000000000000         0.20584359E-10      0.00000000E+00      0.00000000E+00      0.66979339E-07     -0.16940538E-20
    0.003140022642         0.15396239E-09      0.35391073E+01      0.34222864E-12      0.67576880E-07      0.65346264E-20
    0.006280045285         0.55451303E-09      0.19829474E+01     -0.78724160E-13      0.68184040E-07     -0.27069458E-20
    0.009420067927         0.12234864E-08      0.13602640E+01      0.10011815E-12      0.68800386E-07      0.50638462E-20
    0.012560090569         0.21629680E-08      0.10352479E+01     -0.41819264E-13      0.69426331E-07     -0.28045052E-20
    0.015700113211         0.33758810E-08      0.83669984E+00     -0.13613903E-12      0.70061040E-07     -0.11399598E-19
    0.018840135854         0.48659904E-08      0.70297302E+00     -0.82738580E-13      0.70704721E-07     -0.83218105E-20
    0.021980158496         0.66379073E-08      0.60674066E+00     -0.88685733E-13      0.71355263E-07     -0.10429817E-19
    0.025120181138         0.86970953E-08      0.53413884E+00     -0.99524045E-13      0.72015862E-07     -0.13418440E-19
    0.028260203780         0.11049877E-07      0.47738194E+00     -0.99186305E-14      0.72689330E-07     -0.15102763E-20
    0.031400226423         0.13703440E-07      0.43172418E+00      0.33055323E-13      0.73371222E-07      0.56177290E-20
    0.034540249065         0.16665851E-07      0.39415809E+00      0.94901793E-14      0.74061929E-07      0.17831957E-20
    0.037680271707         0.19946058E-07      0.36267662E+00      0.72752262E-13      0.74762732E-07      0.14997266E-19
    0.040820294349         0.23553907E-07      0.33588320E+00      0.30558518E-13      0.75474049E-07      0.68665987E-20
    0.043960316992         0.27500150E-07      0.31277957E+00     -0.79919782E-14      0.76196526E-07     -0.19469333E-20
    0.047100339634         0.31796458E-07      0.29262980E+00      0.32714302E-13      0.76930012E-07      0.86003258E-20
    0.050240362276         0.36455434E-07      0.27488525E+00      0.33325808E-13      0.77675400E-07      0.94170037E-20
    0.053380384919         0.41490627E-07      0.25912075E+00      0.15705669E-13      0.78431955E-07      0.47538698E-20
    0.056520407561         0.46916548E-07      0.24500850E+00      0.47118488E-13      0.79199869E-07      0.15231219E-19
    0.059660430203         0.52748678E-07      0.23228465E+00      0.51436195E-13      0.79977581E-07      0.17709919E-19
    0.062800452845         0.59003495E-07      0.22076429E+00      0.23829681E-13      0.80773021E-07      0.87187801E-20
    0.065940475488         0.65698477E-07      0.21026138E+00     -0.23737188E-13      0.81580298E-07     -0.92099028E-20
    0.069080498130         0.72852130E-07      0.20062587E+00     -0.23971997E-13      0.82394131E-07     -0.98449508E-20
    0.072220520772         0.80483997E-07      0.19176898E+00     -0.46824794E-13      0.83224236E-07     -0.20321106E-19
    0.075360543414         0.88614678E-07      0.18359125E+00     -0.17617328E-13      0.84069056E-07     -0.80672260E-20
    0.078500566057         0.97265847E-07      0.17600969E+00     -0.47050418E-13      0.84927182E-07     -0.22702496E-19
    0.081640588699         0.10646027E-06      0.16895995E+00     -0.40770348E-13      0.85800091E-07     -0.20703721E-19
    0.084780611341         0.11622182E-06      0.16238710E+00     -0.18561261E-13      0.86689240E-07     -0.99088021E-20
    0.087920633984         0.12657550E-06      0.15624374E+00     -0.14756163E-13      0.87595947E-07     -0.82728441E-20
    0.091060656626         0.13754746E-06      0.15047196E+00     -0.20595859E-13      0.88511546E-07     -0.12115023E-19
    0.094200679268         0.14916500E-06      0.14504321E+00     -0.64672727E-14      0.89440220E-07     -0.39880136E-20
    0.097340701910         0.16145662E-06      0.13993541E+00     -0.12252908E-13      0.90388156E-07     -0.79144927E-20
    0.100480724553         0.17445198E-06      0.13511737E+00     -0.18994007E-13      0.91353852E-07     -0.12841989E-19
    0.103620747195         0.18818198E-06      0.13056137E+00      0.23841504E-13      0.92335466E-07      0.16861162E-19
    0.106760769837         0.20267875E-06      0.12624751E+00      0.13113255E-13      0.93334430E-07      0.96945924E-20
    0.109900792479         0.21797565E-06      0.12215579E+00      0.30328704E-14      0.94350402E-07      0.23425213E-20
    0.113040815122         0.23410730E-06      0.11826986E+00      0.14449274E-13      0.95384168E-07      0.11653282E-19
    0.116180837764         0.25110960E-06      0.11457403E+00      0.25148605E-15      0.96435635E-07      0.21167290E-21
    0.119320860406         0.26901973E-06      0.11105574E+00     -0.50422676E-14      0.97505993E-07     -0.44270679E-20
    0.122460883048         0.28787616E-06      0.10770294E+00      0.11455641E-13      0.98595796E-07      0.10486976E-19
    0.125600905691         0.30771869E-06      0.10450520E+00      0.17554047E-13      0.99706061E-07      0.16747921E-19
    0.128740928333         0.32858842E-06      0.10145154E+00     -0.22553504E-14      0.10083628E-06     -0.22416727E-20
    0.131880950975         0.35052780E-06      0.98532280E-01     -0.36242244E-13      0.10198622E-06     -0.37512673E-19
    0.135020973618         0.37358059E-06      0.95739907E-01     -0.24802278E-13      0.10315698E-06     -0.26723737E-19
    0.138160996260         0.39779192E-06      0.93067469E-01     -0.22968405E-13      0.10434964E-06     -0.25752766E-19
    0.141301018902         0.42320825E-06      0.90507766E-01      0.24558677E-14      0.10556434E-06      0.28644176E-20
    0.144441041544         0.44987741E-06      0.88054624E-01      0.13383169E-13      0.10680173E-06      0.16232488E-19
    0.147581064187         0.47784857E-06      0.85701940E-01     -0.50526491E-14      0.10806196E-06     -0.63709080E-20
    0.150721086829         0.50717226E-06      0.83444720E-01     -0.15484425E-13      0.10934599E-06     -0.20290797E-19
    0.153861109471         0.53790037E-06      0.81278155E-01     -0.20658127E-14      0.11065457E-06     -0.28124608E-20
    0.157001132113         0.57008615E-06      0.79197923E-01     -0.19397927E-13      0.11198866E-06     -0.27429353E-19
    0.160141154756         0.60378418E-06      0.77199388E-01      0.73520589E-14      0.11334834E-06      0.10794693E-19
    0.163281177398         0.63905039E-06      0.75278864E-01      0.81625037E-14      0.11473465E-06      0.12440703E-19
    0.166421200040         0.67594205E-06      0.73432496E-01     -0.27707370E-14      0.11614798E-06     -0.43824671E-20
    0.169561222683         0.71451775E-06      0.71657142E-01      0.11735782E-13      0.11758949E-06      0.19258437E-19
    0.172701245325         0.75483738E-06      0.69949324E-01      0.74501070E-14      0.11905948E-06      0.12680693E-19
    0.175841267967         0.79696213E-06      0.68306251E-01     -0.29404028E-14      0.12055906E-06     -0.51897478E-20
    0.178981290609         0.84095448E-06      0.66725071E-01     -0.33697960E-14      0.12208897E-06     -0.61658224E-20
    0.182121313252         0.88687816E-06      0.65203158E-01     -0.29573675E-14      0.12365007E-06     -0.56082972E-20
    0.185261335894         0.93479813E-06      0.63737938E-01     -0.45649372E-14      0.12524304E-06     -0.89699577E-20
    0.188401358536         0.98478058E-06      0.62327146E-01     -0.47057970E-14      0.12686892E-06     -0.95788016E-20
    0.191541381178         0.10368929E-05      0.60968639E-01     -0.73210361E-14      0.12852876E-06     -0.15433569E-19
    0.194681403821         0.10912036E-05      0.59660337E-01     -0.40927949E-15      0.13022356E-06     -0.89335453E-21
    0.197821426463         0.11477823E-05      0.58400244E-01     -0.15397859E-14      0.13195426E-06     -0.34791174E-20
    0.200961449105         0.12066998E-05      0.57186451E-01      0.51873378E-14      0.13372179E-06      0.12129798E-19
    0.204101471747         0.12680280E-05      0.56017328E-01     -0.44501326E-14      0.13552757E-06     -0.10766591E-19
    0.207241494390         0.13318396E-05      0.54891032E-01      0.44547954E-14      0.13737229E-06      0.11148733E-19
    0.210381517032         0.13982084E-05      0.53806126E-01      0.33795006E-14      0.13925750E-06      0.87466027E-20
    0.213521539674         0.14672093E-05      0.52760912E-01      0.41211987E-14      0.14118391E-06      0.11027993E-19
    0.216661562317         0.15389178E-05      0.51754208E-01     -0.32656347E-14      0.14315343E-06     -0.90328270E-20
    0.219801584959         0.16134104E-05      0.50784473E-01      0.19955370E-14      0.14516687E-06      0.57042211E-20
    0.222941607601         0.16907644E-05      0.49850616E-01     -0.28747666E-14      0.14722617E-06     -0.84901839E-20
    0.226081630243         0.17710577E-05      0.48951206E-01     -0.30618353E-14      0.14933217E-06     -0.93405361E-20
    0.229221652886         0.18543692E-05      0.48085276E-01     -0.13916113E-14      0.15148695E-06     -0.43841059E-20
    0.232361675528         0.19407779E-05      0.47251415E-01     -0.27211485E-14      0.15369110E-06     -0.88508735E-20
    0.235501698170         0.20303639E-05      0.46448900E-01      0.67713944E-14      0.15594728E-06      0.22734243E-19
    0.238641720812         0.21232074E-05      0.45676479E-01      0.76579374E-14      0.15825637E-06      0.26532637E-19
    0.241781743455         0.22193892E-05      0.44933437E-01     -0.30091656E-14      0.16062094E-06     -0.10756689E-19
    0.244921766097         0.23189905E-05      0.44218604E-01     -0.76814088E-14      0.16304187E-06     -0.28322723E-19
    0.248061788739         0.24220926E-05      0.43531350E-01     -0.75609710E-14      0.16552193E-06     -0.28749546E-19
    0.251201811381         0.25287771E-05      0.42870647E-01     -0.92208697E-14      0.16806233E-06     -0.36147829E-19
    0.254341834024         0.26391259E-05      0.42235926E-01     -0.24679837E-14      0.17066595E-06     -0.99725709E-20
    0.257481856666         0.27532206E-05      0.41626240E-01     -0.29145662E-14      0.17333414E-06     -0.12136427E-19
    0.260621879308         0.28711432E-05      0.41041071E-01     -0.39379966E-14      0.17606993E-06     -0.16894364E-19
    0.263761901951         0.29929751E-05      0.40479579E-01      0.10979172E-13      0.17887497E-06      0.48515796E-19
    0.266901924593         0.31187981E-05      0.39941291E-01      0.87369913E-14      0.18175242E-06      0.39757585E-19
    0.270041947235         0.32486931E-05      0.39425474E-01      0.29090538E-14      0.18470426E-06      0.13628616E-19
    0.273181969877         0.33827410E-05      0.38931654E-01     -0.19178198E-14      0.18773365E-06     -0.92479838E-20
    0.276321992520         0.35210223E-05      0.38459228E-01     -0.21806062E-15      0.19084308E-06     -0.10820644E-20
    0.279462015162         0.36636166E-05      0.38007737E-01     -0.52426045E-14      0.19403577E-06     -0.26764360E-19
    0.282602037804         0.38106031E-05      0.37576671E-01     -0.76571646E-14      0.19731463E-06     -0.40207675E-19
    0.285742060446         0.39620603E-05      0.37165645E-01     -0.48824940E-14      0.20068325E-06     -0.26363992E-19
    0.288882083089         0.41180657E-05      0.36774213E-01     -0.83795436E-14      0.20414493E-06     -0.46517415E-19
    0.292022105731         0.42786958E-05      0.36401988E-01      0.23775741E-15      0.20770327E-06      0.13566015E-20
    0.295162128373         0.44440263E-05      0.36048608E-01      0.35800184E-14      0.21136206E-06      0.20990549E-19
    0.298302151016         0.46141316E-05      0.35713699E-01     -0.28156743E-14      0.21512504E-06     -0.16960496E-19
    0.301442173658         0.47890848E-05      0.35397018E-01     -0.34762488E-15      0.21899679E-06     -0.21507103E-20
    0.304582196300         0.49689578E-05      0.35098202E-01      0.17082382E-14      0.22298118E-06      0.10852549E-19
    0.307722218942         0.51538208E-05      0.34817111E-01     -0.25933404E-14      0.22708358E-06     -0.16914241E-19
    0.310862241585         0.53437427E-05      0.34553408E-01      0.20413113E-14      0.23130819E-06      0.13664991E-19
    0.314002264227         0.55387906E-05      0.34307010E-01      0.38957944E-14      0.23566093E-06      0.26760901E-19
    0.317142286869         0.57390298E-05      0.34077619E-01      0.30987560E-15      0.24014642E-06      0.21837064E-20
    0.320282309511         0.59445238E-05      0.33865187E-01     -0.20014056E-14      0.24477110E-06     -0.14465777E-19
    0.323422332154         0.61553339E-05      0.33669484E-01      0.34285366E-15      0.24954026E-06      0.25410485E-20
    0.326562354796         0.63715196E-05      0.33490570E-01     -0.50602099E-14      0.25446145E-06     -0.38447489E-19
    0.329702377438         0.65931380E-05      0.33328200E-01     -0.76225006E-15      0.25954011E-06     -0.59359481E-20
    0.332842400080         0.68202438E-05      0.33182499E-01      0.24866619E-16      0.26478470E-06      0.19842690E-21
    0.335982422723         0.70528895E-05      0.33053301E-01     -0.65165016E-15      0.27020159E-06     -0.53270598E-20
    0.339122445365         0.72911249E-05      0.32940785E-01     -0.24936131E-14      0.27580015E-06     -0.20878035E-19
    0.342262468007         0.75349972E-05      0.32844847E-01     -0.62598681E-15      0.28158765E-06     -0.53667522E-20
    0.345402490650         0.77845510E-05      0.32765729E-01     -0.54942533E-14      0.28757457E-06     -0.48221345E-19
    0.348542513292         0.80398277E-05      0.32703399E-01     -0.79560876E-15      0.29376931E-06     -0.71468239E-20
    0.351682535934         0.83008661E-05      0.32658123E-01     -0.19640016E-14      0.30018319E-06     -0.18052485E-19
    0.354822558576         0.85677017E-05      0.32629981E-01     -0.43970031E-14      0.30682622E-06     -0.41345898E-19
    0.357962581219         0.88403671E-05      0.32619302E-01     -0.16899195E-14      0.31371109E-06     -0.16252539E-19
    0.361102603861         0.91188913E-05      0.32626248E-01     -0.10665695E-14      0.32084930E-06     -0.10488735E-19
    0.364242626503         0.94033002E-05      0.32651221E-01     -0.58911767E-14      0.32825512E-06     -0.59226235E-19
    0.367382649145         0.96936162E-05      0.32694469E-01     -0.39801195E-15      0.33594178E-06     -0.40896471E-20
    0.370522671788         0.99898580E-05      0.32756471E-01      0.20861716E-14      0.34392535E-06      0.21903680E-19
    0.373662694430         0.10292041E-04      0.32837649E-01     -0.24468057E-14      0.35222191E-06     -0.26244831E-19
    0.376802717072         0.10600176E-04      0.32938521E-01     -0.14762934E-14      0.36084915E-06     -0.16173138E-19
    0.379942739715         0.10914271E-04      0.33059694E-01     -0.47347158E-17      0.36982645E-06     -0.52965497E-22
    0.383082762357         0.11234330E-04      0.33201666E-01     -0.28671037E-14      0.37917265E-06     -0.32743155E-19
    0.386222784999         0.11560353E-04      0.33365302E-01     -0.27080291E-14      0.38891151E-06     -0.31565238E-19
    0.389362807641         0.11892334E-04      0.33551170E-01     -0.14387481E-14      0.39906428E-06     -0.17112755E-19
    0.392502830284         0.12230266E-04      0.33760348E-01     -0.34117088E-14      0.40965907E-06     -0.41398786E-19
    0.395642852926         0.12574136E-04      0.33993486E-01     -0.45447830E-15      0.42071991E-06     -0.56248444E-20
    0.398782875568         0.12923926E-04      0.34252010E-01      0.74560808E-15      0.43228141E-06      0.94100321E-20
    0.401922898210         0.13279615E-04      0.34536528E-01     -0.14297817E-14      0.44436921E-06     -0.18396492E-19
    0.405062920853         0.13641178E-04      0.34848981E-01      0.77700914E-16      0.45702716E-06      0.10190091E-20
    0.408202943495         0.14008583E-04      0.35189878E-01      0.29016201E-15      0.47028204E-06      0.38777623E-20
    0.411342966137         0.14381797E-04      0.35561845E-01     -0.34216209E-14      0.48419009E-06     -0.46586868E-19
    0.414482988779         0.14760779E-04      0.35965157E-01     -0.29822634E-14      0.49877773E-06     -0.41359101E-19
    0.417623011422         0.15145484E-04      0.36403443E-01     -0.14900384E-14      0.51411912E-06     -0.21043538E-19
    0.420763034064         0.15535866E-04      0.36876496E-01     -0.41917303E-14      0.53023705E-06     -0.60271744E-19
    0.423903056706         0.15931868E-04      0.37389442E-01     -0.27146132E-14      0.54723225E-06     -0.39731107E-19
    0.427043079349         0.16333434E-04      0.37941121E-01     -0.46383243E-15      0.56511718E-06     -0.69085907E-20
    0.430183101991         0.16740499E-04      0.38538996E-01     -0.37833037E-14      0.58403382E-06     -0.57333546E-19
    0.433323124633         0.17152996E-04      0.39180092E-01     -0.21893272E-14      0.60397103E-06     -0.33749033E-19
    0.436463147275         0.17570851E-04      0.39875627E-01     -0.13980253E-14      0.62513711E-06     -0.21917084E-19
    0.439603169918         0.17993986E-04      0.40619149E-01     -0.14895521E-14      0.64747043E-06     -0.23743505E-19
    0.442743192560         0.18422319E-04      0.41428357E-01     -0.12251785E-14      0.67129385E-06     -0.19852461E-19
    0.445883215202         0.18855762E-04      0.42289890E-01     -0.85993080E-15      0.69643737E-06     -0.14161492E-19
    0.449023237844         0.19294222E-04      0.43233401E-01     -0.23838791E-14      0.72343647E-06     -0.39890109E-19
    0.452163260487         0.19737601E-04      0.44230841E-01     -0.27187810E-14      0.75187705E-06     -0.46216372E-19
    0.455303283129         0.20185796E-04      0.45336153E-01     -0.42544932E-14      0.78273058E-06     -0.73454004E-19
    0.458443305771         0.20638700E-04      0.46486854E-01     -0.54913062E-14      0.81498459E-06     -0.96270872E-19
    0.461583328413         0.21096200E-04      0.47795257E-01     -0.31187006E-14      0.85067069E-06     -0.55507332E-19
    0.464723351056         0.21558180E-04      0.49100711E-01     -0.34272195E-14      0.88700876E-06     -0.61913029E-19
    0.467863373698         0.22024515E-04      0.50703965E-01     -0.40660648E-14      0.92950510E-06     -0.74539102E-19
    0.471003396340         0.22495080E-04      0.52007029E-01      0.19796622E-14      0.96727084E-06      0.36819438E-19
    0.474143418983         0.22969743E-04      0.55583467E-01      0.20484903E-14      0.10486114E-05      0.38645849E-19
    0.477283441625         0.23448366E-04      0.59882936E-01      0.24350214E-15      0.11456761E-05      0.46586656E-20
    0.480423464267         0.23930807E-04      0.60090776E-01     -0.24316590E-14      0.11656375E-05     -0.47169183E-19
    0.483563486909         0.24416922E-04      0.61397572E-01     -0.55514973E-14      0.12072887E-05     -0.10916165E-18
    0.486703509552         0.24906558E-04      0.64019365E-01     -0.58257016E-14      0.12758016E-05     -0.11609674E-18
    0.489843532194         0.25399560E-04      0.66858075E-01     -0.27004032E-14      0.13500356E-05     -0.54528051E-19
    0.492983554836         0.25895769E-04      0.70119178E-01     -0.23395527E-14      0.14343520E-05     -0.47857691E-19
    0.496123577478         0.26395019E-04      0.73853727E-01     -0.29231708E-14      0.15301256E-05     -0.60563205E-19
    0.499263600121         0.26897142E-04      0.77984682E-01     -0.16074047E-14      0.16360933E-05     -0.33722829E-19
    0.502403622763         0.27401965E-04      0.82869181E-01     -0.19441390E-14      0.17601291E-05     -0.41293224E-19
    0.505543645405         0.27909310E-04      0.88273277E-01     -0.21275748E-14      0.18977641E-05     -0.45740175E-19
    0.508683668048         0.28418995E-04      0.94866058E-01     -0.11310066E-13      0.20639270E-05     -0.24606429E-18
