 
 # Omega; pulse ft; projected flux at t=    1000.25000000000     
    0.000000000000         0.20584359E-10      0.00000000E+00      0.00000000E+00      0.57286724E-07      0.50821977E-20
    0.003140022642         0.15396239E-09      0.30283601E+01      0.56353590E-12      0.57824506E-07      0.10760340E-19
    0.006280045285         0.55451303E-09      0.16975390E+01      0.17987647E-12      0.58370213E-07      0.61850879E-20
    0.009420067927         0.12234864E-08      0.11650010E+01      0.38053963E-12      0.58924239E-07      0.19247200E-19
    0.012560090569         0.21629680E-08      0.88703236E+00      0.22184160E-12      0.59486626E-07      0.14877257E-19
    0.015700113211         0.33758810E-08      0.71723445E+00     -0.25228967E-12      0.60057608E-07     -0.21125469E-19
    0.018840135854         0.48659904E-08      0.60287808E+00      0.76814512E-13      0.60637216E-07      0.77259703E-20
    0.021980158496         0.66379073E-08      0.52060976E+00     -0.41282814E-13      0.61225905E-07     -0.48550332E-20
    0.025120181138         0.86970953E-08      0.45854273E+00     -0.11988498E-12      0.61823533E-07     -0.16163626E-19
    0.028260203780         0.11049877E-07      0.41000888E+00      0.79653284E-13      0.62430663E-07      0.12128536E-19
    0.031400226423         0.13703440E-07      0.37097511E+00     -0.25236535E-14      0.63046961E-07     -0.42889315E-21
    0.034540249065         0.16665851E-07      0.33887025E+00      0.96684653E-14      0.63673398E-07      0.18166954E-20
    0.037680271707         0.19946058E-07      0.31196653E+00      0.69003083E-13      0.64309275E-07      0.14224405E-19
    0.040820294349         0.23553907E-07      0.28907339E+00      0.98583811E-13      0.64955734E-07      0.22152104E-19
    0.043960316992         0.27500150E-07      0.26933120E+00      0.24719230E-14      0.65612027E-07      0.60218749E-21
    0.047100339634         0.31796458E-07      0.25211662E+00      0.74606652E-13      0.66279424E-07      0.19613486E-19
    0.050240362276         0.36455434E-07      0.23695407E+00      0.30279333E-13      0.66957036E-07      0.85561495E-20
    0.053380384919         0.41490627E-07      0.22348736E+00     -0.16184386E-13      0.67646263E-07     -0.48987704E-20
    0.056520407561         0.46916548E-07      0.21143210E+00      0.58006923E-13      0.68346178E-07      0.18750944E-19
    0.059660430203         0.52748678E-07      0.20057059E+00      0.55145614E-13      0.69058158E-07      0.18987104E-19
    0.062800452845         0.59003495E-07      0.19072248E+00      0.27858753E-13      0.69781352E-07      0.10192933E-19
    0.065940475488         0.65698477E-07      0.18174812E+00     -0.10901665E-13      0.70517305E-07     -0.42297881E-20
    0.069080498130         0.72852130E-07      0.17352636E+00     -0.25176829E-16      0.71264756E-07     -0.10339758E-22
    0.072220520772         0.80483997E-07      0.16596465E+00      0.55846570E-14      0.72025627E-07      0.24236392E-20
    0.075360543414         0.88614678E-07      0.15897874E+00      0.17233145E-14      0.72798635E-07      0.78913030E-21
    0.078500566057         0.97265847E-07      0.15250449E+00      0.38623481E-14      0.73585587E-07      0.18636379E-20
    0.081640588699         0.10646027E-06      0.14648153E+00     -0.29951533E-13      0.74385255E-07     -0.15209784E-19
    0.084780611341         0.11622182E-06      0.14086427E+00      0.13743910E-14      0.75199425E-07      0.73370920E-21
    0.087920633984         0.12657550E-06      0.13560852E+00      0.19901353E-13      0.76027089E-07      0.11157426E-19
    0.091060656626         0.13754746E-06      0.13068107E+00     -0.10564997E-13      0.76870026E-07     -0.62146079E-20
    0.094200679268         0.14916500E-06      0.12604793E+00      0.53663521E-14      0.77726866E-07      0.33091360E-20
    0.097340701910         0.16145662E-06      0.12168517E+00      0.76093766E-14      0.78599821E-07      0.49151072E-20
    0.100480724553         0.17445198E-06      0.11756622E+00     -0.19573906E-13      0.79487393E-07     -0.13234063E-19
    0.103620747195         0.18818198E-06      0.11367313E+00      0.22668494E-13      0.80391787E-07      0.16031587E-19
    0.106760769837         0.20267875E-06      0.10998514E+00      0.29938837E-13      0.81311705E-07      0.22133699E-19
    0.109900792479         0.21797565E-06      0.10648802E+00      0.29247742E-14      0.82248970E-07      0.22590303E-20
    0.113040815122         0.23410730E-06      0.10316570E+00      0.10896479E-13      0.83202725E-07      0.87879668E-20
    0.116180837764         0.25110960E-06      0.10000704E+00      0.16515340E-13      0.84174766E-07      0.13900770E-19
    0.119320860406         0.26901973E-06      0.96998691E-01      0.10711999E-13      0.85164023E-07      0.94050436E-20
    0.122460883048         0.28787616E-06      0.94132047E-01      0.26208512E-13      0.86172434E-07      0.23992374E-19
    0.125600905691         0.30771869E-06      0.91396218E-01      0.13272830E-13      0.87199074E-07      0.12663308E-19
    0.128740928333         0.32858842E-06      0.88784289E-01      0.12754722E-13      0.88245850E-07      0.12677370E-19
    0.131880950975         0.35052780E-06      0.86287159E-01     -0.36194262E-14      0.89311855E-07     -0.37463010E-20
    0.135020973618         0.37358059E-06      0.83899157E-01      0.16532541E-13      0.90398915E-07      0.17813334E-19
    0.138160996260         0.39779192E-06      0.81612786E-01     -0.84398227E-15      0.91506353E-07     -0.94629462E-21
    0.141301018902         0.42320825E-06      0.79423190E-01      0.98011494E-14      0.92635767E-07      0.11431636E-19
    0.144441041544         0.44987741E-06      0.77324269E-01     -0.84293231E-15      0.93786848E-07     -0.10223952E-20
    0.147581064187         0.47784857E-06      0.75311838E-01      0.27283939E-14      0.94961035E-07      0.34402442E-20
    0.150721086829         0.50717226E-06      0.73380795E-01      0.14891014E-14      0.96158223E-07      0.19513191E-20
    0.153861109471         0.53790037E-06      0.71527315E-01     -0.81622551E-14      0.97379480E-07     -0.11112344E-19
    0.157001132113         0.57008615E-06      0.69747377E-01     -0.21226539E-13      0.98625252E-07     -0.30015076E-19
    0.160141154756         0.60378418E-06      0.68037448E-01      0.42129324E-14      0.99896283E-07      0.61856566E-20
    0.163281177398         0.63905039E-06      0.66394195E-01     -0.18930204E-14      0.10119327E-06     -0.28852060E-20
    0.166421200040         0.67594205E-06      0.64814486E-01      0.59210692E-14      0.10251689E-06      0.93653389E-20
    0.169561222683         0.71451775E-06      0.63295581E-01      0.16450846E-13      0.10386816E-06      0.26995866E-19
    0.172701245325         0.75483738E-06      0.61834510E-01      0.10960830E-13      0.10524740E-06      0.18656232E-19
    0.175841267967         0.79696213E-06      0.60429000E-01      0.77216962E-14      0.10665589E-06      0.13628628E-19
    0.178981290609         0.84095448E-06      0.59076364E-01      0.11754017E-15      0.10809389E-06      0.21506696E-21
    0.182121313252         0.88687816E-06      0.57774832E-01      0.45250237E-14      0.10956313E-06      0.85811717E-20
    0.185261335894         0.93479813E-06      0.56521761E-01      0.76699606E-15      0.11106348E-06      0.15071231E-20
    0.188401358536         0.98478058E-06      0.55315707E-01     -0.17026931E-14      0.11259691E-06     -0.34658868E-20
    0.191541381178         0.10368929E-05      0.54154322E-01      0.66633919E-14      0.11416341E-06      0.14047181E-19
    0.194681403821         0.10912036E-05      0.53036299E-01      0.53448902E-14      0.11576495E-06      0.11666555E-19
    0.197821426463         0.11477823E-05      0.51959519E-01      0.56656576E-14      0.11740156E-06      0.12801447E-19
    0.200961449105         0.12066998E-05      0.50922899E-01      0.67982869E-14      0.11907543E-06      0.15896757E-19
    0.204101471747         0.12680280E-05      0.49924398E-01      0.36206877E-14      0.12078641E-06      0.87598427E-20
    0.207241494390         0.13318396E-05      0.48963243E-01      0.59024922E-14      0.12253719E-06      0.14771791E-19
    0.210381517032         0.13982084E-05      0.48037453E-01      0.10749592E-13      0.12432740E-06      0.27821393E-19
    0.213521539674         0.14672093E-05      0.47146370E-01      0.62949244E-14      0.12615985E-06      0.16844706E-19
    0.216661562317         0.15389178E-05      0.46288242E-01      0.14109194E-14      0.12803443E-06      0.39026381E-20
    0.219801584959         0.16134104E-05      0.45462428E-01      0.44986525E-14      0.12995386E-06      0.12859350E-19
    0.222941607601         0.16907644E-05      0.44667390E-01      0.53165245E-14      0.13191831E-06      0.15701542E-19
    0.226081630243         0.17710577E-05      0.43902512E-01      0.64750732E-15      0.13393046E-06      0.19753073E-20
    0.229221652886         0.18543692E-05      0.43166379E-01      0.48291001E-14      0.13599055E-06      0.15213506E-19
    0.232361675528         0.19407779E-05      0.42458572E-01     -0.28533780E-14      0.13810178E-06     -0.92809665E-20
    0.235501698170         0.20303639E-05      0.41777721E-01      0.73410119E-14      0.14026429E-06      0.24646674E-19
    0.238641720812         0.21232074E-05      0.41123415E-01      0.93759390E-14      0.14248127E-06      0.32485037E-19
    0.241781743455         0.22193892E-05      0.40494408E-01      0.50464232E-14      0.14475300E-06      0.18039155E-19
    0.244921766097         0.23189905E-05      0.39890445E-01     -0.66817349E-14      0.14708318E-06     -0.24636747E-19
    0.248061788739         0.24220926E-05      0.39310327E-01     -0.56430891E-14      0.14947208E-06     -0.21457065E-19
    0.251201811381         0.25287771E-05      0.38753803E-01     -0.38453309E-14      0.15192339E-06     -0.15074539E-19
    0.254341834024         0.26391259E-05      0.38219861E-01      0.90071662E-15      0.15443792E-06      0.36395947E-20
    0.257481856666         0.27532206E-05      0.37708187E-01      0.25013712E-14      0.15701913E-06      0.10415858E-19
    0.260621879308         0.28711432E-05      0.37217952E-01     -0.30294605E-14      0.15966841E-06     -0.12996662E-19
    0.263761901951         0.29929751E-05      0.36748859E-01      0.11803564E-13      0.16238931E-06      0.52158701E-19
    0.266901924593         0.31187981E-05      0.36300133E-01      0.88344298E-14      0.16518337E-06      0.40200978E-19
    0.270041947235         0.32486931E-05      0.35871538E-01      0.61253328E-14      0.16805444E-06      0.28696550E-19
    0.273181969877         0.33827410E-05      0.35462403E-01     -0.13771094E-14      0.17100445E-06     -0.66406060E-20
    0.276321992520         0.35210223E-05      0.35072463E-01     -0.15896105E-14      0.17403722E-06     -0.78879943E-20
    0.279462015162         0.36636166E-05      0.34701198E-01     -0.28212348E-14      0.17715534E-06     -0.14402869E-19
    0.282602037804         0.38106031E-05      0.34348327E-01     -0.59287458E-14      0.18036263E-06     -0.31131770E-19
    0.285742060446         0.39620603E-05      0.34013449E-01     -0.22623124E-14      0.18366234E-06     -0.12215803E-19
    0.288882083089         0.41180657E-05      0.33696250E-01     -0.38246982E-14      0.18705821E-06     -0.21232072E-19
    0.292022105731         0.42786958E-05      0.33396461E-01      0.26958868E-14      0.19055426E-06      0.15382251E-19
    0.295162128373         0.44440263E-05      0.33113756E-01      0.38762816E-14      0.19415428E-06      0.22727615E-19
    0.298302151016         0.46141316E-05      0.32847998E-01      0.19335120E-14      0.19786321E-06      0.11646703E-19
    0.301442173658         0.47890848E-05      0.32598805E-01      0.77438662E-15      0.20168460E-06      0.47910301E-20
    0.304582196300         0.49689578E-05      0.32366189E-01      0.28040261E-14      0.20562452E-06      0.17814162E-19
    0.307722218942         0.51538208E-05      0.32149784E-01     -0.11353439E-14      0.20968679E-06     -0.74049208E-20
    0.310862241585         0.53437427E-05      0.31949591E-01      0.28954068E-14      0.21387765E-06      0.19382496E-19
    0.314002264227         0.55387906E-05      0.31765397E-01      0.34565119E-14      0.21820214E-06      0.23743392E-19
    0.317142286869         0.57390298E-05      0.31597150E-01      0.19034313E-14      0.22266645E-06      0.13413561E-19
    0.320282309511         0.59445238E-05      0.31444813E-01     -0.98879766E-15      0.22727710E-06     -0.71468405E-20
    0.323422332154         0.61553339E-05      0.31308290E-01      0.36071777E-15      0.23204035E-06      0.26734477E-20
    0.326562354796         0.63715196E-05      0.31187641E-01     -0.35273285E-14      0.23696378E-06     -0.26800652E-19
    0.329702377438         0.65931380E-05      0.31082773E-01     -0.98402530E-15      0.24205407E-06     -0.76630012E-20
    0.332842400080         0.68202438E-05      0.30993873E-01      0.79860647E-15      0.24732023E-06      0.63725994E-20
    0.335982422723         0.70528895E-05      0.30920853E-01      0.10288755E-14      0.25276942E-06      0.84107725E-20
    0.339122445365         0.72911249E-05      0.30864020E-01     -0.12653804E-14      0.25841221E-06     -0.10594529E-19
    0.342262468007         0.75349972E-05      0.30823287E-01     -0.35776159E-14      0.26425628E-06     -0.30671857E-19
    0.345402490650         0.77845510E-05      0.30799045E-01     -0.41559364E-14      0.27031360E-06     -0.36475356E-19
    0.348542513292         0.80398277E-05      0.30791276E-01     -0.63354178E-15      0.27659302E-06     -0.56910026E-20
    0.351682535934         0.83008661E-05      0.30800496E-01     -0.14081990E-14      0.28310847E-06     -0.12943722E-19
    0.354822558576         0.85677017E-05      0.30826676E-01     -0.34701614E-14      0.28986940E-06     -0.32630621E-19
    0.357962581219         0.88403671E-05      0.30870495E-01     -0.56697294E-15      0.29689221E-06     -0.54527746E-20
    0.361102603861         0.91188913E-05      0.30931900E-01     -0.17522552E-14      0.30418694E-06     -0.17231827E-19
    0.364242626503         0.94033002E-05      0.31011799E-01     -0.30094316E-14      0.31177339E-06     -0.30254958E-19
    0.367382649145         0.96936162E-05      0.31110112E-01     -0.12751633E-15      0.31966221E-06     -0.13102541E-20
    0.370522671788         0.99898580E-05      0.31227976E-01      0.28513193E-14      0.32787697E-06      0.29937321E-19
    0.373662694430         0.10292041E-04      0.31365267E-01     -0.87235939E-15      0.33642890E-06     -0.93570671E-20
    0.376802717072         0.10600176E-04      0.31523422E-01     -0.20428776E-14      0.34534641E-06     -0.22380199E-19
    0.379942739715         0.10914271E-04      0.31702204E-01      0.24845085E-16      0.35464072E-06      0.27793269E-21
    0.383082762357         0.11234330E-04      0.31903510E-01     -0.16282442E-14      0.36434733E-06     -0.18595020E-19
    0.386222784999         0.11560353E-04      0.32126832E-01     -0.25910765E-14      0.37447569E-06     -0.30202019E-19
    0.389362807641         0.11892334E-04      0.32374776E-01     -0.47735606E-15      0.38507201E-06     -0.56777677E-20
    0.392502830284         0.12230266E-04      0.32646364E-01     -0.31761137E-14      0.39614161E-06     -0.38539999E-19
    0.395642852926         0.12574136E-04      0.32945146E-01      0.19248437E-15      0.40774514E-06      0.23822802E-20
    0.398782875568         0.12923926E-04      0.33269414E-01      0.13601281E-14      0.41988044E-06      0.17165652E-19
    0.401922898210         0.13279615E-04      0.33624078E-01      0.92575817E-16      0.43262904E-06      0.11911401E-20
    0.405062920853         0.13641178E-04      0.34006349E-01     -0.58734245E-15      0.44597645E-06     -0.77027059E-20
    0.408202943495         0.14008583E-04      0.34423007E-01     -0.10299426E-14      0.46003347E-06     -0.13764285E-19
    0.411342966137         0.14381797E-04      0.34869592E-01     -0.26371723E-14      0.47476476E-06     -0.35906256E-19
    0.414482988779         0.14760779E-04      0.35355617E-01     -0.18781070E-14      0.49032441E-06     -0.26046263E-19
    0.417623011422         0.15145484E-04      0.35873948E-01     -0.14656686E-14      0.50664116E-06     -0.20699368E-19
    0.420763034064         0.15535866E-04      0.36438237E-01     -0.28561544E-14      0.52393545E-06     -0.41067863E-19
    0.423903056706         0.15931868E-04      0.37036994E-01     -0.21720541E-14      0.54207382E-06     -0.31790205E-19
    0.427043079349         0.16333434E-04      0.37690341E-01     -0.88857068E-17      0.56138192E-06     -0.13234890E-21
    0.430183101991         0.16740499E-04      0.38379147E-01     -0.25571359E-14      0.58161141E-06     -0.38751757E-19
    0.433323124633         0.17152996E-04      0.39134548E-01     -0.11745074E-14      0.60326896E-06     -0.18105329E-19
    0.436463147275         0.17570851E-04      0.39922819E-01     -0.12629442E-14      0.62587695E-06     -0.19799395E-19
    0.439603169918         0.17993986E-04      0.40795734E-01     -0.28894185E-15      0.65028520E-06     -0.46057417E-20
    0.442743192560         0.18422319E-04      0.41687768E-01     -0.75143807E-15      0.67549728E-06     -0.12176099E-19
    0.445883215202         0.18855762E-04      0.42694791E-01     -0.19239730E-14      0.70310536E-06     -0.31684326E-19
    0.449023237844         0.19294222E-04      0.43666835E-01     -0.36208883E-14      0.73068923E-06     -0.60589326E-19
    0.452163260487         0.19737601E-04      0.44816410E-01     -0.20476440E-14      0.76183109E-06     -0.34807760E-19
    0.455303283129         0.20185796E-04      0.45614527E-01     -0.47282133E-14      0.78753672E-06     -0.81632800E-19
    0.458443305771         0.20638700E-04      0.46730702E-01     -0.57328645E-14      0.81925962E-06     -0.10050575E-18
    0.461583328413         0.21096200E-04      0.51250265E-01     -0.33373097E-14      0.91216370E-06     -0.59398185E-19
    0.464723351056         0.21558180E-04      0.53459108E-01     -0.35063308E-14      0.96574361E-06     -0.63342183E-19
    0.467863373698         0.22024515E-04      0.53794860E-01     -0.35751240E-14      0.98616739E-06     -0.65539174E-19
    0.471003396340         0.22495080E-04      0.55656931E-01      0.26215244E-14      0.10351548E-05      0.48757334E-19
    0.474143418983         0.22969743E-04      0.57610899E-01      0.15377719E-14      0.10868600E-05      0.29010878E-19
    0.477283441625         0.23448366E-04      0.59935673E-01      0.10099839E-14      0.11466850E-05      0.19322939E-19
    0.480423464267         0.23930807E-04      0.62490359E-01     -0.18940180E-14      0.12121844E-05     -0.36740054E-19
    0.483563486909         0.24416922E-04      0.65343620E-01     -0.57426351E-14      0.12848817E-05     -0.11292008E-18
    0.486703509552         0.24906558E-04      0.68541677E-01     -0.69361012E-14      0.13659239E-05     -0.13822519E-18
    0.489843532194         0.25399560E-04      0.72081537E-01     -0.22835321E-14      0.14555107E-05     -0.46110356E-19
    0.492983554836         0.25895769E-04      0.76111046E-01     -0.27872576E-14      0.15569211E-05     -0.57015905E-19
    0.496123577478         0.26395019E-04      0.80584517E-01     -0.35645103E-14      0.16695762E-05     -0.73850685E-19
    0.499263600121         0.26897142E-04      0.85760158E-01     -0.18849601E-14      0.17992203E-05     -0.39545851E-19
    0.502403622763         0.27401965E-04      0.91563618E-01     -0.29859715E-14      0.19447977E-05     -0.63421592E-19
    0.505543645405         0.27909310E-04      0.98416091E-01     -0.82245815E-15      0.21158218E-05     -0.17681813E-19
    0.508683668048         0.28418995E-04      0.10624173E+00     -0.11986469E-13      0.23114185E-05     -0.26078027E-18
