 
 # Omega; pulse ft; proj flux t=    1000.25000000000     
    0.000000000000         0.45239627E-10      0.00000000E+00      0.00000000E+00      0.30448731E-12      0.51698788E-25      0.76083786E-16      0.12918238E-28
    0.003140022642         0.18021395E-09      0.72955164E-05      0.16313381E-17      0.32611007E-12      0.72920922E-25      0.15757056E-15      0.31139358E-28
    0.006280045285         0.58555420E-09      0.46644837E-05      0.38992724E-18      0.33873529E-12      0.28316557E-25      0.24221206E-15      0.38214959E-28
    0.009420067927         0.12625127E-08      0.31421054E-05      0.49836181E-18      0.32798578E-12      0.52021038E-25      0.32416753E-15      0.51213719E-28
    0.012560090569         0.22131784E-08      0.24023612E-05     -0.19103232E-18      0.32969663E-12     -0.26217003E-25      0.40655049E-15      0.44662744E-28
    0.015700113211         0.34404797E-08      0.20176825E-05      0.72762126E-19      0.34436704E-12      0.12418643E-25      0.49259923E-15      0.47765853E-28
    0.018840135854         0.49481878E-08      0.16812783E-05      0.23749069E-18      0.34391752E-12      0.48580421E-25      0.57853564E-15      0.59904889E-28
    0.021980158496         0.67409214E-08      0.15433461E-05     -0.25753551E-18      0.36864156E-12     -0.61514585E-25      0.67064997E-15      0.44533928E-28
    0.025120181138         0.88241530E-08      0.14968368E-05     -0.28249063E-18      0.40952202E-12     -0.77287069E-25      0.77297931E-15      0.25221817E-28
    0.028260203780         0.11204215E-07      0.14001031E-05      0.12099366E-18      0.43233330E-12      0.37361241E-25      0.88100862E-15      0.34557459E-28
    0.031400226423         0.13888307E-07      0.12310118E-05      0.16840501E-19      0.42406388E-12      0.58012831E-26      0.98697161E-15      0.36007055E-28
    0.034540249065         0.16884505E-07      0.11124401E-05     -0.79464479E-19      0.42353767E-12     -0.30254393E-25      0.10928031E-14      0.28447237E-28
    0.037680271707         0.20201772E-07      0.10572384E-05      0.18683952E-18      0.44146970E-12      0.78018344E-25      0.12031154E-14      0.47942075E-28
    0.040820294349         0.23849967E-07      0.96796864E-06     -0.74227122E-19      0.44047927E-12     -0.33777446E-25      0.13131802E-14      0.39501934E-28
    0.043960316992         0.27839854E-07      0.91151286E-06      0.48898328E-19      0.44959501E-12      0.24118633E-25      0.14255227E-14      0.45528579E-28
    0.047100339634         0.32183120E-07      0.87439347E-06     -0.11289693E-18      0.46533268E-12     -0.60081224E-25      0.15417978E-14      0.30515779E-28
    0.050240362276         0.36892382E-07      0.81308684E-06     -0.15492208E-18      0.46502190E-12     -0.88603279E-25      0.16579952E-14      0.83760293E-29
    0.053380384919         0.41981203E-07      0.76272694E-06     -0.71376772E-19      0.46719136E-12     -0.43720249E-25      0.17747346E-14     -0.25485707E-29
    0.056520407561         0.47464107E-07      0.71506397E-06      0.48893394E-19      0.46768933E-12      0.31978843E-25      0.18915985E-14      0.54421448E-29
    0.059660430203         0.53356591E-07      0.65964464E-06      0.94112482E-20      0.45947752E-12      0.65554341E-26      0.20064105E-14      0.70801843E-29
    0.062800452845         0.59675142E-07      0.60691804E-06      0.16098742E-18      0.44917261E-12      0.11914482E-24      0.21186475E-14      0.36851503E-28
    0.065940475488         0.66437253E-07      0.56224091E-06     -0.50565730E-19      0.44119906E-12     -0.39679704E-25      0.22288922E-14      0.26936535E-28
    0.069080498130         0.73661441E-07      0.52149830E-06     -0.69864673E-19      0.43310199E-12     -0.58022297E-25      0.23371136E-14      0.12438210E-28
    0.072220520772         0.81367256E-07      0.47503690E-06      0.69406259E-19      0.41683957E-12      0.60903217E-25      0.24412714E-14      0.27656405E-28
    0.075360543414         0.89575309E-07      0.43781787E-06     -0.60231644E-19      0.40531280E-12     -0.55759844E-25      0.25425489E-14      0.13723410E-28
    0.078500566057         0.98307280E-07      0.40816765E-06     -0.95010010E-19      0.39811085E-12     -0.92669068E-25      0.26420269E-14     -0.94322790E-29
    0.081640588699         0.10758594E-06      0.37999308E-06      0.29538708E-19      0.39001167E-12      0.30317502E-25      0.27394811E-14     -0.18566912E-29
    0.084780611341         0.11743516E-06      0.34807599E-06      0.33747128E-19      0.37551580E-12      0.36407508E-25      0.28333131E-14      0.72406373E-29
    0.087920633984         0.12787995E-06      0.31805644E-06     -0.28637269E-19      0.36030341E-12     -0.32441116E-25      0.29233440E-14     -0.86558857E-30
    0.091060656626         0.13894644E-06      0.30340034E-06      0.17210768E-19      0.36056641E-12      0.20453586E-25      0.30134405E-14      0.42452524E-29
    0.094200679268         0.15066195E-06      0.28507077E-06     -0.99362223E-19      0.35510335E-12     -0.12377228E-24      0.31021720E-14     -0.26682353E-28
    0.097340701910         0.16305493E-06      0.27003768E-06     -0.89440727E-19      0.35230303E-12     -0.11668831E-24      0.31902037E-14     -0.55839850E-28
    0.100480724553         0.17615507E-06      0.26504018E-06     -0.33370498E-19      0.36189006E-12     -0.45564606E-25      0.32806310E-14     -0.67225309E-28
    0.103620747195         0.18999324E-06      0.25690182E-06      0.19152936E-19      0.36686911E-12      0.27351385E-25      0.33723025E-14     -0.60390880E-28
    0.106760769837         0.20460153E-06      0.24676359E-06      0.75999301E-20      0.36832466E-12      0.11343820E-25      0.34643376E-14     -0.57556342E-28
    0.109900792479         0.22001329E-06      0.24115338E-06      0.17187825E-19      0.37600532E-12      0.26799183E-25      0.35582920E-14     -0.50859895E-28
    0.113040815122         0.23626311E-06      0.23861646E-06      0.22931475E-19      0.38843072E-12      0.37328898E-25      0.36553511E-14     -0.41532334E-28
    0.116180837764         0.25338685E-06      0.22971688E-06     -0.16462283E-19      0.39020696E-12     -0.27963541E-25      0.37528541E-14     -0.48519726E-28
    0.119320860406         0.27142164E-06      0.22377044E-06      0.75000651E-20      0.39644537E-12      0.13287573E-25      0.38519159E-14     -0.45199493E-28
    0.122460883048         0.29040593E-06      0.22149630E-06      0.27991085E-19      0.40909776E-12      0.51698788E-25      0.39541393E-14     -0.32281255E-28
    0.125600905691         0.31037944E-06      0.21329120E-06      0.19923034E-19      0.41051181E-12      0.38344951E-25      0.40567159E-14     -0.22699808E-28
    0.128740928333         0.33138323E-06      0.20407466E-06      0.50939677E-19      0.40912452E-12      0.10212278E-24      0.41589459E-14      0.28181277E-29
    0.131880950975         0.35345968E-06      0.19619202E-06      0.25938332E-19      0.40953562E-12      0.54144257E-25      0.42612787E-14      0.16347427E-28
    0.135020973618         0.37665248E-06      0.19008853E-06     -0.14106578E-19      0.41299809E-12     -0.30648824E-25      0.43644766E-14      0.86890506E-29
    0.138160996260         0.40100669E-06      0.18339118E-06      0.18470014E-19      0.41456931E-12      0.41752830E-25      0.44680671E-14      0.19122042E-28
    0.141301018902         0.42656868E-06      0.17354571E-06      0.10186054E-19      0.40804691E-12      0.23949817E-25      0.45700279E-14      0.25106504E-28
    0.144441041544         0.45338618E-06      0.16869380E-06      0.25341890E-19      0.41241013E-12      0.61953980E-25      0.46730789E-14      0.40587258E-28
    0.147581064187         0.48150828E-06      0.16338630E-06      0.15755345E-19      0.41518466E-12      0.40036269E-25      0.47768232E-14      0.50591323E-28
    0.150721086829         0.51098541E-06      0.15467784E-06     -0.13568202E-19      0.40842763E-12     -0.35826907E-25      0.48788791E-14      0.41639073E-28
    0.153861109471         0.54186934E-06      0.14889462E-06     -0.89844853E-20      0.40841085E-12     -0.24644015E-25      0.49809308E-14      0.35481148E-28
    0.157001132113         0.57421319E-06      0.14312577E-06      0.67239767E-20      0.40770003E-12      0.19153543E-25      0.50828048E-14      0.40267141E-28
    0.160141154756         0.60807142E-06      0.13816499E-06      0.33110521E-19      0.40860361E-12      0.97919726E-25      0.51849047E-14      0.64734839E-28
    0.163281177398         0.64349984E-06      0.13386402E-06     -0.92602763E-20      0.41089298E-12     -0.28424236E-25      0.52875766E-14      0.57632331E-28
    0.166421200040         0.68055556E-06      0.13277641E-06     -0.59443476E-22      0.42289094E-12     -0.18932662E-27      0.53932465E-14      0.57585023E-28
    0.169561222683         0.71929702E-06      0.13059686E-06      0.30076438E-19      0.43148629E-12      0.99371231E-25      0.55010642E-14      0.82415415E-28
    0.172701245325         0.75978397E-06      0.12508907E-06      0.11487327E-19      0.42861422E-12      0.39361004E-25      0.56081642E-14      0.92250748E-28
    0.175841267967         0.80207741E-06      0.12304416E-06      0.46008933E-21      0.43712839E-12      0.16345198E-26      0.57173916E-14      0.92659174E-28
    0.178981290609         0.84623967E-06      0.11986252E-06      0.11513096E-19      0.44138920E-12      0.42396540E-25      0.58276838E-14      0.10325301E-27
    0.182121313252         0.89233427E-06      0.11753564E-06      0.49993003E-20      0.44852734E-12      0.19077812E-25      0.59397596E-14      0.10802008E-27
    0.185261335894         0.94042601E-06      0.11774002E-06     -0.52675902E-22      0.46549658E-12     -0.20825928E-27      0.60560756E-14      0.10796804E-27
    0.188401358536         0.99058087E-06      0.11859723E-06     -0.20821858E-19      0.48566073E-12     -0.85266398E-25      0.61774301E-14      0.86662097E-28
    0.191541381178         0.10428660E-05      0.11637920E-06      0.59911941E-19      0.49350756E-12      0.25405739E-24      0.63007453E-14      0.15014470E-27
    0.194681403821         0.10973497E-05      0.11160392E-06     -0.11480124E-19      0.48995092E-12     -0.50398746E-25      0.64231718E-14      0.13755131E-27
    0.197821426463         0.11541015E-05      0.11015618E-06      0.58416625E-20      0.50053230E-12      0.26543592E-25      0.65482424E-14      0.14418389E-27
    0.200961449105         0.12131919E-05      0.10829052E-06      0.13608688E-19      0.50916637E-12      0.63986086E-25      0.66754704E-14      0.16017242E-27
    0.204101471747         0.12746923E-05      0.10675079E-06      0.68490494E-20      0.51925764E-12      0.33315174E-25      0.68052199E-14      0.16849705E-27
    0.207241494390         0.13386756E-05      0.10475450E-06     -0.91571878E-21      0.52701605E-12     -0.46069477E-26      0.69369081E-14      0.16734589E-27
    0.210381517032         0.14052151E-05      0.10083708E-06      0.94040825E-20      0.52457550E-12      0.48921998E-25      0.70679864E-14      0.17957028E-27
    0.213521539674         0.14743854E-05      0.98411738E-07      0.17478698E-19      0.52925962E-12      0.94000665E-25      0.72002352E-14      0.20305870E-27
    0.216661562317         0.15462618E-05      0.96060440E-07      0.41554476E-20      0.53394714E-12      0.23097847E-25      0.73336553E-14      0.20883028E-27
    0.219801584959         0.16209206E-05      0.94872804E-07      0.31424834E-20      0.54491052E-12      0.18049138E-25      0.74698148E-14      0.21334031E-27
    0.222941607601         0.16984387E-05      0.92787818E-07     -0.51393247E-20      0.55055696E-12     -0.30494207E-25      0.76073853E-14      0.20572056E-27
    0.226081630243         0.17788939E-05      0.90401081E-07      0.81683778E-20      0.55400149E-12      0.50057958E-25      0.77458164E-14      0.21822880E-27
    0.229221652886         0.18623645E-05      0.89135614E-07      0.90475683E-20      0.56404383E-12      0.57252369E-25      0.78867569E-14      0.23253474E-27
    0.232361675528         0.19489296E-05      0.86601011E-07      0.98499961E-20      0.56572732E-12      0.64345806E-25      0.80281181E-14      0.24861315E-27
    0.235501698170         0.20386687E-05      0.84494782E-07      0.13862461E-19      0.56968532E-12      0.93464240E-25      0.81704682E-14      0.27196753E-27
    0.238641720812         0.21316617E-05      0.82178169E-07      0.17043019E-19      0.57171675E-12      0.11856895E-24      0.83133260E-14      0.30159496E-27
    0.241781743455         0.22279893E-05      0.80139311E-07      0.83482898E-20      0.57515876E-12      0.59915563E-25      0.84570438E-14      0.31656636E-27
    0.244921766097         0.23277321E-05      0.78413023E-07      0.19217026E-20      0.58042533E-12      0.14224740E-25      0.86020776E-14      0.32012077E-27
    0.248061788739         0.24309714E-05      0.76485979E-07     -0.13642748E-20      0.58378690E-12     -0.10412964E-25      0.87479514E-14      0.31751883E-27
    0.251201811381         0.25377883E-05      0.75231442E-07      0.25120427E-20      0.59194935E-12      0.19765699E-25      0.88958648E-14      0.32245779E-27
    0.254341834024         0.26482643E-05      0.74020619E-07      0.18817012E-20      0.60027295E-12      0.15259725E-25      0.90458580E-14      0.32627081E-27
    0.257481856666         0.27624808E-05      0.72516487E-07      0.25693280E-20      0.60595718E-12      0.21469638E-25      0.91972716E-14      0.33163554E-27
    0.260621879308         0.28805194E-05      0.71267239E-07      0.36773543E-20      0.61348283E-12      0.31655410E-25      0.93505657E-14      0.33954544E-27
    0.263761901951         0.30024614E-05      0.70545690E-07      0.29974901E-19      0.62544395E-12      0.26575146E-24      0.95068485E-14      0.40595010E-27
    0.266901924593         0.31283879E-05      0.69795929E-07      0.20458447E-19      0.63716443E-12      0.18676440E-24      0.96660600E-14      0.45261786E-27
    0.270041947235         0.32583797E-05      0.68742758E-07      0.27359601E-19      0.64602594E-12      0.25711817E-24      0.98274858E-14      0.51686528E-27
    0.273181969877         0.33925174E-05      0.67981206E-07      0.47892101E-21      0.65752376E-12      0.46321912E-26      0.99917846E-14      0.51802275E-27
    0.276321992520         0.35308809E-05      0.67295029E-07     -0.27152944E-20      0.66973523E-12     -0.27023219E-25      0.10159135E-13      0.51127032E-27
    0.279462015162         0.36735498E-05      0.66060317E-07     -0.38809625E-20      0.67632641E-12     -0.39733346E-25      0.10328132E-13      0.50134195E-27
    0.282602037804         0.38206029E-05      0.65158318E-07      0.14468334E-20      0.68608672E-12      0.15234482E-25      0.10499568E-13      0.50514867E-27
    0.285742060446         0.39721182E-05      0.64413557E-07      0.36932190E-20      0.69739336E-12      0.39985782E-25      0.10673829E-13      0.51514012E-27
    0.288882083089         0.41281729E-05      0.63335728E-07     -0.20215501E-19      0.70491797E-12     -0.22499575E-24      0.10849970E-13      0.45891929E-27
    0.292022105731         0.42888434E-05      0.62353254E-07      0.15233906E-19      0.71324072E-12      0.17425622E-24      0.11028191E-13      0.50246157E-27
    0.295162128373         0.44542050E-05      0.61539389E-07      0.46638883E-20      0.72329470E-12      0.54816367E-25      0.11208925E-13      0.51615882E-27
    0.298302151016         0.46243316E-05      0.60960975E-07     -0.10413057E-19      0.73603256E-12     -0.12572550E-24      0.11392841E-13      0.48474315E-27
    0.301442173658         0.47992961E-05      0.60271277E-07      0.12010922E-20      0.74737139E-12      0.14893694E-25      0.11579590E-13      0.48846471E-27
    0.304582196300         0.49791702E-05      0.59666226E-07     -0.45224180E-20      0.75968503E-12     -0.57580535E-25      0.11769417E-13      0.47407677E-27
    0.307722218942         0.51640238E-05      0.59285197E-07     -0.14910280E-20      0.77486881E-12     -0.19488020E-25      0.11963037E-13      0.46920720E-27
    0.310862241585         0.53539254E-05      0.58966044E-07      0.20156891E-19      0.79096793E-12      0.27038365E-24      0.12160680E-13      0.53676933E-27
    0.314002264227         0.55489418E-05      0.58545866E-07      0.11826208E-19      0.80579797E-12      0.16277040E-24      0.12362029E-13      0.57744160E-27
    0.317142286869         0.57491382E-05      0.58192070E-07      0.80742689E-20      0.82160853E-12      0.11399987E-24      0.12567329E-13      0.60592732E-27
    0.320282309511         0.59545777E-05      0.57921243E-07      0.60493587E-21      0.83870345E-12      0.87595115E-26      0.12776900E-13      0.60811611E-27
    0.323422332154         0.61653214E-05      0.57555421E-07     -0.90827224E-20      0.85452444E-12     -0.13485104E-24      0.12990424E-13      0.57442020E-27
    0.326562354796         0.63814285E-05      0.57443606E-07     -0.66493951E-20      0.87427090E-12     -0.10120139E-24      0.13208883E-13      0.54913249E-27
    0.329702377438         0.66029559E-05      0.57225213E-07     -0.66369925E-20      0.89259876E-12     -0.10352379E-24      0.13431921E-13      0.52326448E-27
    0.332842400080         0.68299581E-05      0.56786227E-07     -0.60399919E-20      0.90755917E-12     -0.96531331E-25      0.13658697E-13      0.49914371E-27
    0.335982422723         0.70624875E-05      0.56513644E-07      0.28000938E-20      0.92522420E-12      0.45842285E-25      0.13889888E-13      0.51059855E-27
    0.339122445365         0.73005935E-05      0.56460725E-07      0.18307533E-20      0.94667437E-12      0.30696156E-25      0.14126438E-13      0.51826875E-27
    0.342262468007         0.75443232E-05      0.56364645E-07     -0.57110516E-20      0.96765450E-12     -0.98045944E-25      0.14368231E-13      0.49376952E-27
    0.345402490650         0.77937209E-05      0.56085337E-07     -0.40406220E-20      0.98564666E-12     -0.71010103E-25      0.14614519E-13      0.47602586E-27
    0.348542513292         0.80488281E-05      0.56107566E-07      0.65685095E-21      0.10091387E-11      0.11813981E-25      0.14866678E-13      0.47897788E-27
    0.351682535934         0.83096834E-05      0.56157435E-07     -0.50232239E-20      0.10334595E-11     -0.92441876E-25      0.15124914E-13      0.45587896E-27
    0.354822558576         0.85763220E-05      0.55965365E-07     -0.51478529E-20      0.10535660E-11     -0.96909984E-25      0.15388173E-13      0.43166357E-27
    0.357962581219         0.88487764E-05      0.55772271E-07     -0.12390365E-20      0.10737828E-11     -0.23855154E-25      0.15656485E-13      0.42570277E-27
    0.361102603861         0.91270757E-05      0.55727045E-07     -0.27403205E-20      0.10970327E-11     -0.53945464E-25      0.15930606E-13      0.41222314E-27
    0.364242626503         0.94112456E-05      0.55781073E-07     -0.12418717E-20      0.11225243E-11     -0.24991113E-25      0.16211097E-13      0.40597848E-27
    0.367382649145         0.97013084E-05      0.55641205E-07      0.75607855E-20      0.11443549E-11      0.15550026E-24      0.16497043E-13      0.44483412E-27
    0.370522671788         0.99972828E-05      0.55639863E-07      0.24913769E-20      0.11692457E-11      0.52355121E-25      0.16789208E-13      0.45791636E-27
    0.373662694430         0.10299184E-04      0.55829183E-07      0.16109993E-20      0.11984968E-11      0.34583662E-25      0.17088682E-13      0.46655795E-27
    0.376802717072         0.10607023E-04      0.55930574E-07     -0.45698240E-20      0.12262565E-11     -0.10019165E-24      0.17395093E-13      0.44152256E-27
    0.379942739715         0.10920809E-04      0.55979977E-07     -0.13892229E-20      0.12532044E-11     -0.31100052E-25      0.17708238E-13      0.43375143E-27
    0.383082762357         0.11240543E-04      0.56126993E-07     -0.10471563E-20      0.12826820E-11     -0.23930884E-25      0.18028748E-13      0.42777170E-27
