 
 # Omega; pulse ft; proj flux t=    1000.25000000000     
    0.000000000000         0.10016161E-10      0.00000000E+00      0.00000000E+00      0.00000000E+00      0.00000000E+00      0.00000000E+00      0.00000000E+00
    0.003140022642         0.14711996E-09      0.50159998E+00     -0.70561078E-10      0.14565956E-08     -0.20490224E-18      0.45737433E-11     -0.64339766E-21
    0.006280045285         0.55885518E-09      0.89494356E+00     -0.48465623E-10      0.49359963E-08     -0.26730863E-18      0.20072883E-10     -0.14827528E-20
    0.009420067927         0.12464938E-08      0.11559574E+01     -0.48575890E-11      0.94802673E-08     -0.39838184E-19      0.49841137E-10     -0.16078456E-20
    0.012560090569         0.22121576E-08      0.10274424E+01     -0.95898914E-11      0.11215624E-07     -0.10468385E-18      0.85058452E-10     -0.19365552E-20
    0.015700113211         0.34588209E-08      0.57081886E+00     -0.14527144E-10      0.77941055E-08     -0.19835731E-18      0.10953212E-09     -0.25594017E-20
    0.018840135854         0.49903140E-08      0.21892675E+00     -0.78707694E-11      0.35940602E-08     -0.12921226E-18      0.12081755E-09     -0.29651311E-20
    0.021980158496         0.68113284E-08      0.11214323E+00     -0.60170147E-11      0.21538564E-08     -0.11556458E-18      0.12758071E-09     -0.33280065E-20
    0.025120181138         0.89274221E-08      0.11848160E+00     -0.73087848E-11      0.26097378E-08     -0.16098713E-18      0.13577534E-09     -0.38335097E-20
    0.028260203780         0.11345027E-07      0.15182055E+00     -0.56152005E-13      0.37774912E-08     -0.13971344E-20      0.14763675E-09     -0.38378968E-20
    0.031400226423         0.14071456E-07      0.17704909E+00     -0.20843897E-11      0.49174803E-08     -0.57893237E-19      0.16307775E-09     -0.40196828E-20
    0.034540249065         0.17114912E-07      0.18227968E+00     -0.23046043E-11      0.55979643E-08     -0.70776363E-19      0.18065549E-09     -0.42419222E-20
    0.037680271707         0.20484497E-07      0.16159807E+00      0.13555294E-11      0.54449028E-08      0.45673354E-19      0.19775260E-09     -0.40985068E-20
    0.040820294349         0.24190226E-07      0.11607454E+00     -0.21531618E-12      0.42632758E-08     -0.79083000E-20      0.21113939E-09     -0.41233391E-20
    0.043960316992         0.28243033E-07      0.74180410E-01     -0.38941427E-12      0.29538090E-08     -0.15506188E-19      0.22041441E-09     -0.41720289E-20
    0.047100339634         0.32654785E-07      0.53599119E-01      0.13355292E-12      0.23031548E-08      0.57387706E-20      0.22764637E-09     -0.41540090E-20
    0.050240362276         0.37438300E-07      0.51918163E-01     -0.16830608E-12      0.23978684E-08     -0.77733075E-20      0.23517573E-09     -0.41784174E-20
    0.053380384919         0.42607352E-07      0.68123376E-01     -0.97955523E-12      0.33700914E-08     -0.48458999E-19      0.24575790E-09     -0.43305797E-20
    0.056520407561         0.48176692E-07      0.95632198E-01      0.48414828E-12      0.50521764E-08      0.25577186E-19      0.26162185E-09     -0.42502668E-20
    0.059660430203         0.54162061E-07      0.12387312E+00      0.84575732E-13      0.69699323E-08      0.47587977E-20      0.28350759E-09     -0.42353240E-20
    0.062800452845         0.60580205E-07      0.13838245E+00     -0.15933319E-12      0.82735457E-08     -0.95261382E-20      0.30948671E-09     -0.42652363E-20
    0.065940475488         0.67448891E-07      0.12304808E+00     -0.26874900E-12      0.78008199E-08     -0.17037751E-19      0.33398146E-09     -0.43187353E-20
    0.069080498130         0.74786924E-07      0.89222290E-01     -0.31097089E-12      0.59866828E-08     -0.20865684E-19      0.35277978E-09     -0.43842540E-20
    0.072220520772         0.82614162E-07      0.59802719E-01     -0.45044696E-12      0.42399183E-08     -0.31935978E-19      0.36609322E-09     -0.44845337E-20
    0.075360543414         0.90951538E-07      0.37407315E-01     -0.29813891E-12      0.27981129E-08     -0.22301155E-19      0.37487936E-09     -0.45545598E-20
    0.078500566057         0.99821071E-07      0.30906809E-01     -0.22579502E-12      0.24358261E-08     -0.17795347E-19      0.38252791E-09     -0.46104376E-20
    0.081640588699         0.10924589E-06      0.48145270E-01     -0.18460268E-12      0.39929628E-08     -0.15310157E-19      0.39506590E-09     -0.46585118E-20
    0.084780611341         0.11925024E-06      0.65346460E-01     -0.30398987E-12      0.56967538E-08     -0.26501136E-19      0.41295384E-09     -0.47417260E-20
    0.087920633984         0.12985951E-06      0.64503937E-01     -0.24043027E-12      0.59048906E-08     -0.22009734E-19      0.43149533E-09     -0.48108371E-20
    0.091060656626         0.14110026E-06      0.58364952E-01     -0.15622804E-12      0.56052097E-08     -0.15003711E-19      0.44909581E-09     -0.48579491E-20
    0.094200679268         0.15300022E-06      0.57287075E-01     -0.64606356E-13      0.57668327E-08     -0.65036318E-20      0.46720380E-09     -0.48783706E-20
    0.097340701910         0.16558830E-06      0.54435942E-01     -0.10352267E-12      0.57393618E-08     -0.10914738E-19      0.48522552E-09     -0.49126431E-20
    0.100480724553         0.17889464E-06      0.43519413E-01     -0.18941196E-12      0.48022004E-08     -0.20900884E-19      0.50030454E-09     -0.49782724E-20
    0.103620747195         0.19295060E-06      0.29659624E-01      0.18138861E-12      0.34230065E-08      0.20933994E-19      0.51105286E-09     -0.49125392E-20
    0.106760769837         0.20778877E-06      0.20831448E-01      0.24543698E-13      0.25128843E-08      0.29606907E-20      0.51894337E-09     -0.49032425E-20
    0.109900792479         0.22344301E-06      0.16785401E-01      0.24046459E-13      0.21151460E-08      0.30301195E-20      0.52558498E-09     -0.48937279E-20
    0.113040815122         0.23994847E-06      0.14369192E-01     -0.23271995E-13      0.18904175E-08     -0.30616744E-20      0.53152093E-09     -0.49033416E-20
    0.116180837764         0.25734155E-06      0.13557770E-01     -0.58049938E-13      0.18612571E-08     -0.79692940E-20      0.53736532E-09     -0.49283654E-20
    0.119320860406         0.27565998E-06      0.14006085E-01     -0.34299764E-13      0.20054728E-08     -0.49112400E-20      0.54366255E-09     -0.49437868E-20
    0.122460883048         0.29494280E-06      0.14790938E-01      0.13589930E-12      0.22078969E-08      0.20286181E-19      0.55059540E-09     -0.48800877E-20
    0.125600905691         0.31523035E-06      0.15279336E-01      0.45539726E-13      0.23767439E-08      0.70838334E-20      0.55805843E-09     -0.48578443E-20
    0.128740928333         0.33656432E-06      0.14342395E-01      0.63504498E-13      0.23238912E-08      0.10289603E-19      0.56535550E-09     -0.48255347E-20
    0.131880950975         0.35898777E-06      0.12539714E-01     -0.10182276E-12      0.21155724E-08     -0.17178495E-19      0.57199845E-09     -0.48794756E-20
    0.135020973618         0.38254506E-06      0.12562481E-01     -0.41897588E-13      0.22059693E-08     -0.73572085E-20      0.57892524E-09     -0.49025774E-20
    0.138160996260         0.40728195E-06      0.14348548E-01      0.23722885E-13      0.26215633E-08      0.43343091E-20      0.58715701E-09     -0.48889676E-20
    0.141301018902         0.43324553E-06      0.16813924E-01      0.27742143E-13      0.31952185E-08      0.52719525E-20      0.59719007E-09     -0.48724135E-20
    0.144441041544         0.46048430E-06      0.20669523E-01     -0.11048528E-13      0.40841091E-08     -0.21830883E-20      0.61001426E-09     -0.48792685E-20
    0.147581064187         0.48904809E-06      0.23493657E-01     -0.53029148E-13      0.48251879E-08     -0.10891263E-19      0.62516546E-09     -0.49134673E-20
    0.150721086829         0.51898811E-06      0.22673300E-01     -0.64061136E-13      0.48388349E-08     -0.13671643E-19      0.64035951E-09     -0.49563965E-20
    0.153861109471         0.55035695E-06      0.22802031E-01     -0.43213944E-13      0.50551238E-08     -0.95803677E-20      0.65623271E-09     -0.49864791E-20
    0.157001132113         0.58320856E-06      0.29965055E-01     -0.19268787E-13      0.68988843E-08     -0.44362719E-20      0.67789537E-09     -0.50004091E-20
    0.160141154756         0.61759825E-06      0.38339378E-01     -0.13427909E-13      0.91641215E-08     -0.32096242E-20      0.70667092E-09     -0.50104874E-20
    0.163281177398         0.65358268E-06      0.37142356E-01     -0.86341110E-14      0.92146010E-08     -0.21420259E-20      0.73560497E-09     -0.50172134E-20
    0.166421200040         0.69121986E-06      0.29309926E-01     -0.58667176E-14      0.75450994E-08     -0.15102381E-20      0.75929676E-09     -0.50219556E-20
    0.169561222683         0.73056915E-06      0.24437913E-01      0.27065210E-13      0.65259176E-08      0.72275128E-20      0.77978828E-09     -0.49992610E-20
    0.172701245325         0.77169120E-06      0.24189594E-01      0.77201804E-14      0.66991442E-08      0.21380517E-20      0.80082375E-09     -0.49925475E-20
    0.175841267967         0.81464799E-06      0.23177912E-01     -0.16968523E-13      0.66552776E-08     -0.48723210E-20      0.82172147E-09     -0.50078467E-20
    0.178981290609         0.85950279E-06      0.18117421E-01      0.10310434E-13      0.53923580E-08      0.30687341E-20      0.83865360E-09     -0.49982108E-20
    0.182121313252         0.90632014E-06      0.15759414E-01      0.31469788E-14      0.48607535E-08      0.97063813E-21      0.85391647E-09     -0.49951630E-20
    0.185261335894         0.95516582E-06      0.20372366E-01     -0.20874315E-13      0.65099571E-08     -0.66703540E-20      0.87435789E-09     -0.50161080E-20
    0.188401358536         0.10061068E-05      0.23281165E-01      0.45276917E-14      0.77056177E-08      0.14985788E-20      0.89855370E-09     -0.50114025E-20
    0.191541381178         0.10592114E-05      0.19434381E-01      0.24675589E-14      0.66609080E-08      0.84572708E-21      0.91946910E-09     -0.50087469E-20
    0.194681403821         0.11145489E-05      0.14014625E-01      0.25081612E-13      0.49727753E-08      0.88996473E-20      0.93508373E-09     -0.49808018E-20
    0.197821426463         0.11721899E-05      0.12370087E-01      0.72590233E-16      0.45429721E-08      0.26659101E-22      0.94934876E-09     -0.49807181E-20
    0.200961449105         0.12322059E-05      0.15176117E-01     -0.24202008E-15      0.57673177E-08     -0.91973900E-22      0.96745827E-09     -0.49810069E-20
    0.204101471747         0.12946697E-05      0.17603757E-01     -0.29325541E-13      0.69208732E-08     -0.11529263E-19      0.98918997E-09     -0.50172090E-20
    0.207241494390         0.13596549E-05      0.16985099E-01      0.32997818E-14      0.69065752E-08      0.13417756E-20      0.10108768E-08     -0.50129958E-20
    0.210381517032         0.14272364E-05      0.15826982E-01      0.10416130E-13      0.66547093E-08      0.43796296E-20      0.10317727E-08     -0.49992437E-20
    0.213521539674         0.14974896E-05      0.14811282E-01     -0.11730215E-13      0.64380960E-08     -0.50988329E-20      0.10519885E-08     -0.50152541E-20
    0.216661562317         0.15704912E-05      0.13448277E-01     -0.35517323E-14      0.60417530E-08     -0.15956460E-20      0.10709597E-08     -0.50202645E-20
    0.219801584959         0.16463186E-05      0.11314363E-01      0.11445581E-13      0.52523764E-08      0.53132906E-20      0.10874523E-08     -0.50035806E-20
    0.222941607601         0.17250498E-05      0.88098914E-02      0.41260749E-14      0.42249711E-08      0.19787471E-20      0.11007188E-08     -0.49973673E-20
    0.226081630243         0.18067639E-05      0.80813977E-02     -0.87125905E-14      0.40028129E-08     -0.43154503E-20      0.11132877E-08     -0.50109179E-20
    0.229221652886         0.18915405E-05      0.86373804E-02      0.13453201E-13      0.44175831E-08      0.68806318E-20      0.11271590E-08     -0.49893126E-20
    0.232361675528         0.19794597E-05      0.95553716E-02     -0.13201979E-13      0.50451308E-08     -0.69704993E-20      0.11430009E-08     -0.50112001E-20
    0.235501698170         0.20706024E-05      0.11624718E-01     -0.17853948E-14      0.63347254E-08     -0.97292555E-21      0.11628920E-08     -0.50142551E-20
    0.238641720812         0.21650498E-05      0.13038785E-01      0.14503420E-13      0.73316433E-08      0.81552001E-20      0.11859136E-08     -0.49886476E-20
    0.241781743455         0.22628837E-05      0.11918096E-01      0.44358286E-14      0.69133458E-08      0.25730970E-20      0.12076216E-08     -0.49805680E-20
    0.244921766097         0.23641860E-05      0.94171477E-02     -0.11918380E-13      0.56339931E-08     -0.71304045E-20      0.12253125E-08     -0.50029577E-20
    0.248061788739         0.24690392E-05      0.71757196E-02     -0.18349845E-13      0.44266608E-08     -0.11319915E-19      0.12392123E-08     -0.50385025E-20
    0.251201811381         0.25775257E-05      0.61485021E-02     -0.28743053E-13      0.39101394E-08     -0.18279142E-19      0.12514902E-08     -0.50958994E-20
    0.254341834024         0.26897283E-05      0.59559932E-02     -0.12255020E-13      0.39037994E-08     -0.80324366E-20      0.12637483E-08     -0.51211214E-20
    0.257481856666         0.28057298E-05      0.58265044E-02     -0.68912615E-14      0.39350473E-08     -0.46541525E-20      0.12761044E-08     -0.51357356E-20
    0.260621879308         0.29256127E-05      0.63497958E-02     -0.77489285E-14      0.44178239E-08     -0.53912602E-20      0.12899765E-08     -0.51526642E-20
    0.263761901951         0.30494598E-05      0.73867237E-02      0.20467800E-13      0.52930424E-08      0.14666439E-19      0.13065967E-08     -0.51066113E-20
    0.266901924593         0.31773534E-05      0.79306110E-02      0.20012530E-13      0.58514451E-08      0.14765851E-19      0.13249704E-08     -0.50602462E-20
    0.270041947235         0.33093756E-05      0.79031142E-02      0.12961340E-13      0.60028261E-08      0.98448112E-20      0.13438194E-08     -0.50293332E-20
    0.273181969877         0.34456081E-05      0.71148643E-02     -0.42956371E-14      0.55618997E-08     -0.33580265E-20      0.13612839E-08     -0.50398775E-20
    0.276321992520         0.35861323E-05      0.57664607E-02     -0.24814296E-14      0.46383431E-08     -0.19959768E-20      0.13758484E-08     -0.50461449E-20
    0.279462015162         0.37310288E-05      0.45364398E-02     -0.63950113E-14      0.37537353E-08     -0.52916341E-20      0.13876352E-08     -0.50627608E-20
    0.282602037804         0.38803777E-05      0.35833560E-02     -0.12339907E-13      0.30495190E-08     -0.10501547E-19      0.13972108E-08     -0.50957359E-20
    0.285742060446         0.40342581E-05      0.35653514E-02     -0.13687705E-13      0.31198558E-08     -0.11977408E-19      0.14070072E-08     -0.51333452E-20
    0.288882083089         0.41927487E-05      0.43447361E-02     -0.87322203E-14      0.39082677E-08     -0.78549890E-20      0.14192793E-08     -0.51580101E-20
    0.292022105731         0.43559267E-05      0.49739135E-02     -0.32065140E-15      0.45983893E-08     -0.29644262E-21      0.14337183E-08     -0.51589409E-20
    0.295162128373         0.45238687E-05      0.52207838E-02      0.15287395E-14      0.49593841E-08      0.14521970E-20      0.14492909E-08     -0.51543810E-20
    0.298302151016         0.46966498E-05      0.48517267E-02      0.24637707E-14      0.47344638E-08      0.24042231E-20      0.14641572E-08     -0.51468316E-20
    0.301442173658         0.48743441E-05      0.48367108E-02      0.61754989E-14      0.48473566E-08      0.61890914E-20      0.14793780E-08     -0.51273978E-20
    0.304582196300         0.50570242E-05      0.55167837E-02      0.12021994E-14      0.56770033E-08      0.12371140E-20      0.14972039E-08     -0.51235132E-20
    0.307722218942         0.52447612E-05      0.52573634E-02      0.47479640E-15      0.55536376E-08      0.50155314E-21      0.15146425E-08     -0.51219383E-20
    0.310862241585         0.54376246E-05      0.46397484E-02      0.88203735E-14      0.50301201E-08      0.95624880E-20      0.15304372E-08     -0.50919119E-20
    0.314002264227         0.56356824E-05      0.47808217E-02      0.73442567E-14      0.53181300E-08      0.81696652E-20      0.15471362E-08     -0.50662589E-20
    0.317142286869         0.58390005E-05      0.53666926E-02      0.97290202E-14      0.61239800E-08      0.11101870E-19      0.15663657E-08     -0.50313988E-20
    0.320282309511         0.60476432E-05      0.61803852E-02     -0.26644193E-14      0.72328828E-08     -0.31181604E-20      0.15890771E-08     -0.50411899E-20
    0.323422332154         0.62616725E-05      0.60109087E-02     -0.30185019E-14      0.72127877E-08     -0.36220503E-20      0.16117254E-08     -0.50525632E-20
    0.326562354796         0.64811485E-05      0.53852174E-02     -0.25740445E-14      0.66241746E-08     -0.31662455E-20      0.16325254E-08     -0.50625053E-20
    0.329702377438         0.67061290E-05      0.57347071E-02      0.10557417E-14      0.72294247E-08      0.13309145E-20      0.16552260E-08     -0.50583262E-20
    0.332842400080         0.69366693E-05      0.58264166E-02     -0.39443589E-15      0.75258673E-08     -0.50948505E-21      0.16788574E-08     -0.50599260E-20
    0.335982422723         0.71728224E-05      0.60096087E-02     -0.20848825E-14      0.79517441E-08     -0.27586575E-20      0.17038260E-08     -0.50685883E-20
    0.339122445365         0.74146388E-05      0.70063933E-02     -0.34020107E-14      0.94944684E-08     -0.46101156E-20      0.17336389E-08     -0.50830641E-20
    0.342262468007         0.76621663E-05      0.72140082E-02     -0.28252173E-14      0.10009482E-07     -0.39200069E-20      0.17650689E-08     -0.50953730E-20
    0.345402490650         0.79154497E-05      0.68342564E-02     -0.11722781E-13      0.97069786E-08     -0.16650353E-19      0.17955490E-08     -0.51476555E-20
    0.348542513292         0.81745312E-05      0.74601698E-02     -0.15419510E-14      0.10844224E-07     -0.22414051E-20      0.18296001E-08     -0.51546936E-20
    0.351682535934         0.84394499E-05      0.97900355E-02     -0.26683142E-14      0.14560969E-07     -0.39686516E-20      0.18753219E-08     -0.51671552E-20
    0.354822558576         0.87102417E-05      0.12159218E-01     -0.57693263E-14      0.18499811E-07     -0.87778218E-20      0.19334117E-08     -0.51947178E-20
    0.357962581219         0.89869396E-05      0.12337040E-01     -0.29369023E-14      0.19196756E-07     -0.45698966E-20      0.19936900E-08     -0.52090674E-20
    0.361102603861         0.92695729E-05      0.12623756E-01     -0.29607048E-14      0.20084470E-07     -0.47104987E-20      0.20567557E-08     -0.52238585E-20
    0.364242626503         0.95581680E-05      0.13629050E-01     -0.70385140E-14      0.22166246E-07     -0.11447418E-19      0.21263582E-08     -0.52598036E-20
    0.367382649145         0.98527473E-05      0.11162518E-01      0.78402593E-15      0.18554257E-07      0.13032022E-20      0.21846190E-08     -0.52557115E-20
    0.370522671788         0.10153330E-04      0.66916061E-02      0.71580953E-15      0.11364930E-07      0.12157208E-20      0.22203051E-08     -0.52518941E-20
    0.373662694430         0.10459931E-04      0.52170310E-02      0.18608112E-14      0.90513879E-08      0.32284501E-20      0.22487267E-08     -0.52417567E-20
    0.376802717072         0.10772563E-04      0.70848250E-02      0.29358562E-15      0.12553846E-07      0.52021451E-21      0.22881460E-08     -0.52401232E-20
    0.379942739715         0.11091232E-04      0.97003189E-02      0.28393941E-14      0.17550534E-07      0.51372417E-20      0.23432551E-08     -0.52239922E-20
    0.383082762357         0.11415944E-04      0.10381501E-01     -0.20690013E-14      0.19174410E-07     -0.38214012E-20      0.24034632E-08     -0.52359915E-20
