 
 # Omega; pulse ft; proj flux t=    1000.25000000000     
    0.000000000000         0.45239627E-10      0.00000000E+00      0.00000000E+00      0.16826254E-06      0.10005577E-19      0.42044613E-10      0.25001441E-23
    0.003140022642         0.18021395E-09      0.39603694E+01     -0.17062917E-12      0.17702878E-06     -0.76271352E-20      0.86279689E-10      0.59431323E-24
    0.006280045285         0.58555420E-09      0.27966753E+01     -0.24946232E-12      0.20309484E-06     -0.18115979E-19      0.13702803E-09     -0.39324182E-23
    0.009420067927         0.12625127E-08      0.24278412E+01      0.17894570E-12      0.25342797E-06      0.18679082E-19      0.20035336E-09      0.73501867E-24
    0.012560090569         0.22131784E-08      0.20124975E+01     -0.41399391E-13      0.27619228E-06     -0.56815934E-20      0.26936692E-09     -0.68466984E-24
    0.015700113211         0.34404797E-08      0.13824086E+01     -0.25038910E-12      0.23594196E-06     -0.42735046E-19      0.32832293E-09     -0.11363092E-22
    0.018840135854         0.49481878E-08      0.93132465E+00     -0.11739397E-12      0.19050912E-06     -0.24013777E-19      0.37592641E-09     -0.17363536E-22
    0.021980158496         0.67409214E-08      0.74497460E+00     -0.13938406E-12      0.17794363E-06     -0.33293089E-19      0.42039009E-09     -0.25682649E-22
    0.025120181138         0.88241530E-08      0.66998333E+00     -0.15493029E-12      0.18330183E-06     -0.42387630E-19      0.46619264E-09     -0.36274260E-22
    0.028260203780         0.11204215E-07      0.63893555E+00      0.89676130E-13      0.19729484E-06      0.27690802E-19      0.51549170E-09     -0.29355020E-22
    0.031400226423         0.13888307E-07      0.61189465E+00     -0.72325837E-13      0.21078792E-06     -0.24915094E-19      0.56816235E-09     -0.35580680E-22
    0.034540249065         0.16884505E-07      0.57635703E+00     -0.91432785E-13      0.21943556E-06     -0.34811069E-19      0.62299382E-09     -0.44279098E-22
    0.037680271707         0.20201772E-07      0.52680777E+00      0.55733385E-13      0.21997846E-06      0.23272520E-19      0.67796095E-09     -0.38463876E-22
    0.040820294349         0.23849967E-07      0.45689708E+00     -0.37022285E-13      0.20791344E-06     -0.16847188E-19      0.72991334E-09     -0.42673568E-22
    0.043960316992         0.27839854E-07      0.39557058E+00     -0.32257734E-13      0.19511141E-06     -0.15910819E-19      0.77866681E-09     -0.46649285E-22
    0.047100339634         0.32183120E-07      0.35744656E+00      0.18302450E-13      0.19022508E-06      0.97401551E-20      0.82619931E-09     -0.44215463E-22
    0.050240362276         0.36892382E-07      0.33699024E+00     -0.44955549E-13      0.19273199E-06     -0.25711048E-19      0.87435823E-09     -0.50640013E-22
    0.053380384919         0.41981203E-07      0.33523308E+00     -0.37692073E-13      0.20533954E-06     -0.23087438E-19      0.92566746E-09     -0.56408988E-22
    0.056520407561         0.47464107E-07      0.34508226E+00      0.41368362E-13      0.22570189E-06      0.27057078E-19      0.98206474E-09     -0.49648099E-22
    0.059660430203         0.53356591E-07      0.35638632E+00      0.22772749E-13      0.24824200E-06      0.15862429E-19      0.10440942E-08     -0.45684473E-22
    0.062800452845         0.59675142E-07      0.35853514E+00      0.16513709E-13      0.26534747E-06      0.12221594E-19      0.11103979E-08     -0.42630602E-22
    0.065940475488         0.66437253E-07      0.33373003E+00     -0.32060924E-14      0.26188307E-06     -0.25158698E-20      0.11758360E-08     -0.43259255E-22
    0.069080498130         0.73661441E-07      0.29201887E+00     -0.49578317E-13      0.24252036E-06     -0.41174569E-19      0.12364358E-08     -0.53547753E-22
    0.072220520772         0.81367256E-07      0.25798475E+00     -0.55353934E-13      0.22637873E-06     -0.48572459E-19      0.12930022E-08     -0.65684799E-22
    0.075360543414         0.89575309E-07      0.22930631E+00     -0.17468062E-13      0.21228184E-06     -0.16171174E-19      0.13460461E-08     -0.69725573E-22
    0.078500566057         0.98307280E-07      0.21376861E+00     -0.36331588E-13      0.20850159E-06     -0.35436417E-19      0.13981455E-08     -0.78580250E-22
    0.081640588699         0.10758594E-06      0.22281595E+00     -0.28573515E-13      0.22869054E-06     -0.29326861E-19      0.14552895E-08     -0.85908301E-22
    0.084780611341         0.11743516E-06      0.23199311E+00     -0.30417975E-13      0.25028177E-06     -0.32815909E-19      0.15178287E-08     -0.94108178E-22
    0.087920633984         0.12787995E-06      0.22366319E+00     -0.29579286E-13      0.25337204E-06     -0.33508259E-19      0.15811401E-08     -0.10248106E-21
    0.091060656626         0.13894644E-06      0.21184723E+00     -0.32393474E-13      0.25176305E-06     -0.38496986E-19      0.16440494E-08     -0.11210049E-21
    0.094200679268         0.15066195E-06      0.20562136E+00     -0.18971135E-13      0.25613582E-06     -0.23631723E-19      0.17080513E-08     -0.11800547E-21
    0.097340701910         0.16305493E-06      0.19774206E+00     -0.77440162E-14      0.25798298E-06     -0.10103184E-19      0.17725148E-08     -0.12053001E-21
    0.100480724553         0.17615507E-06      0.18254159E+00     -0.21615553E-13      0.24924518E-06     -0.29514218E-19      0.18347950E-08     -0.12790487E-21
    0.103620747195         0.18999324E-06      0.16479565E+00      0.24946005E-13      0.23533672E-06      0.35624187E-19      0.18935998E-08     -0.11900328E-21
    0.106760769837         0.20460153E-06      0.15240706E+00      0.28177267E-13      0.22748607E-06      0.42057998E-19      0.19504429E-08     -0.10849403E-21
    0.109900792479         0.22001329E-06      0.14453085E+00     -0.60701812E-14      0.22535189E-06     -0.94646006E-20      0.20067527E-08     -0.11085900E-21
    0.113040815122         0.23626311E-06      0.13798681E+00      0.80230925E-14      0.22462121E-06      0.13060355E-19      0.20628799E-08     -0.10759554E-21
    0.116180837764         0.25338685E-06      0.13340519E+00      0.96414311E-14      0.22660778E-06      0.16377349E-19      0.21195035E-08     -0.10350325E-21
    0.119320860406         0.27142164E-06      0.13012589E+00      0.41063462E-15      0.23053896E-06      0.72750535E-21      0.21771095E-08     -0.10332147E-21
    0.122460883048         0.29040593E-06      0.12728809E+00      0.18792319E-13      0.23509770E-06      0.34708912E-19      0.22358545E-08     -0.94648574E-22
    0.125600905691         0.31037944E-06      0.12450241E+00      0.27801485E-13      0.23962409E-06      0.53508246E-19      0.22957306E-08     -0.81278198E-22
    0.128740928333         0.33138323E-06      0.12069498E+00     -0.33146579E-14      0.24196671E-06     -0.66451555E-20      0.23561921E-08     -0.82938656E-22
    0.131880950975         0.35345968E-06      0.11599813E+00     -0.22493610E-13      0.24213709E-06     -0.46953667E-19      0.24166961E-08     -0.94671207E-22
    0.135020973618         0.37665248E-06      0.11332210E+00      0.96971849E-14      0.24621060E-06      0.21068704E-19      0.24782180E-08     -0.89406663E-22
    0.138160996260         0.40100669E-06      0.11250697E+00     -0.61603823E-14      0.25433032E-06     -0.13925999E-19      0.25417688E-08     -0.92886423E-22
    0.141301018902         0.42656868E-06      0.11195823E+00     -0.38980185E-14      0.26324022E-06     -0.91651612E-20      0.26075459E-08     -0.95176568E-22
    0.144441041544         0.45338618E-06      0.11314418E+00      0.50177762E-14      0.27660654E-06      0.12267088E-19      0.26766630E-08     -0.92111329E-22
    0.147581064187         0.48150828E-06      0.11369462E+00     -0.11982309E-13      0.28891200E-06     -0.30448518E-19      0.27488549E-08     -0.99719654E-22
    0.150721086829         0.51098541E-06      0.11077536E+00     -0.83175268E-14      0.29250292E-06     -0.21962472E-19      0.28219441E-08     -0.10520753E-21
    0.153861109471         0.54186934E-06      0.10837774E+00      0.59215461E-14      0.29727497E-06      0.16242519E-19      0.28962257E-08     -0.10114893E-21
    0.157001132113         0.57421319E-06      0.11273315E+00     -0.16598821E-13      0.32112533E-06     -0.47282471E-19      0.29764669E-08     -0.11296364E-21
    0.160141154756         0.60807142E-06      0.11885018E+00      0.63839273E-14      0.35148277E-06      0.18879570E-19      0.30642937E-08     -0.10824610E-21
    0.163281177398         0.64349984E-06      0.11553633E+00     -0.71467569E-15      0.35463651E-06     -0.21936830E-20      0.31529085E-08     -0.10879425E-21
    0.166421200040         0.68055556E-06      0.10627841E+00     -0.78968186E-14      0.33849520E-06     -0.25151254E-19      0.32374900E-08     -0.11507892E-21
    0.169561222683         0.71929702E-06      0.10022034E+00      0.17646671E-13      0.33112361E-06      0.58303825E-19      0.33202296E-08     -0.10051025E-21
    0.172701245325         0.75978397E-06      0.98265997E-01      0.10289810E-13      0.33670569E-06      0.35257746E-19      0.34043639E-08     -0.91700219E-22
    0.175841267967         0.80207741E-06      0.95984842E-01     -0.26678484E-14      0.34099709E-06     -0.94778355E-20      0.34895706E-08     -0.94068493E-22
    0.178981290609         0.84623967E-06      0.89463280E-01     -0.80618650E-15      0.32944514E-06     -0.29687512E-20      0.35718907E-08     -0.94810310E-22
    0.182121313252         0.89233427E-06      0.85205603E-01     -0.14483965E-14      0.32515280E-06     -0.55272209E-20      0.36531383E-08     -0.96191425E-22
    0.185261335894         0.94042601E-06      0.88319720E-01     -0.22227777E-14      0.34918057E-06     -0.87879668E-20      0.37403898E-08     -0.98387319E-22
    0.188401358536         0.99058087E-06      0.89506269E-01     -0.65317296E-14      0.36653200E-06     -0.26747712E-19      0.38319770E-08     -0.10507090E-21
    0.191541381178         0.10428660E-05      0.84264051E-01      0.53822652E-14      0.35732284E-06      0.22823567E-19      0.39212631E-08     -0.99367865E-22
    0.194681403821         0.10973497E-05      0.78144979E-01      0.57709306E-14      0.34306326E-06      0.25334888E-19      0.40069860E-08     -0.93037308E-22
    0.197821426463         0.11541015E-05      0.75221042E-01     -0.24330223E-14      0.34179253E-06     -0.11055269E-19      0.40923915E-08     -0.95799744E-22
    0.200961449105         0.12131919E-05      0.76661461E-01      0.56507567E-15      0.36045111E-06      0.26569041E-20      0.41824592E-08     -0.95135850E-22
    0.204101471747         0.12746923E-05      0.77727251E-01     -0.76956541E-14      0.37808121E-06     -0.37433231E-19      0.42769323E-08     -0.10448948E-21
    0.207241494390         0.13386756E-05      0.75631427E-01      0.11486237E-14      0.38049895E-06      0.57786838E-20      0.43720095E-08     -0.10304553E-21
    0.210381517032         0.14052151E-05      0.73596253E-01      0.78803207E-14      0.38286306E-06      0.40995071E-19      0.44676774E-08     -0.92801886E-22
    0.213521539674         0.14743854E-05      0.71562261E-01      0.20425682E-14      0.38486278E-06      0.10984959E-19      0.45638450E-08     -0.90057019E-22
    0.216661562317         0.15462618E-05      0.69236610E-01     -0.34444716E-14      0.38484822E-06     -0.19145922E-19      0.46600090E-08     -0.94841107E-22
    0.219801584959         0.16209206E-05      0.66446567E-01      0.42747434E-14      0.38164186E-06      0.24552375E-19      0.47553718E-08     -0.88706081E-22
    0.222941607601         0.16984387E-05      0.62999101E-01      0.46162316E-14      0.37380546E-06      0.27390432E-19      0.48487764E-08     -0.81861895E-22
    0.226081630243         0.17788939E-05      0.61526030E-01     -0.56770403E-14      0.37704762E-06     -0.34790389E-19      0.49429912E-08     -0.90555146E-22
    0.229221652886         0.18623645E-05      0.61248310E-01     -0.23236612E-14      0.38757495E-06     -0.14703963E-19      0.50398365E-08     -0.94229300E-22
    0.232361675528         0.19489296E-05      0.60964294E-01     -0.44500752E-14      0.39825362E-06     -0.29070435E-19      0.51393502E-08     -0.10149328E-21
    0.235501698170         0.20386687E-05      0.62086088E-01      0.23408500E-14      0.41860021E-06      0.15782606E-19      0.52439479E-08     -0.97549597E-22
    0.238641720812         0.21316617E-05      0.62641509E-01      0.70701725E-14      0.43579944E-06      0.49187468E-19      0.53528434E-08     -0.85258875E-22
    0.241781743455         0.22279893E-05      0.60747053E-01     -0.52394735E-15      0.43598078E-06     -0.37603631E-20      0.54617841E-08     -0.86198496E-22
    0.244921766097         0.23277321E-05      0.57807926E-01     -0.13189243E-13      0.42790321E-06     -0.97628819E-19      0.55687064E-08     -0.11059350E-21
    0.248061788739         0.24309714E-05      0.55071627E-01     -0.85247525E-14      0.42033971E-06     -0.65066027E-19      0.56737388E-08     -0.12685188E-21
    0.251201811381         0.25377883E-05      0.53472515E-01     -0.10974441E-13      0.42074190E-06     -0.86351039E-19      0.57788717E-08     -0.14842885E-21
    0.254341834024         0.26482643E-05      0.52740469E-01     -0.57399004E-14      0.42770079E-06     -0.46547935E-19      0.58857435E-08     -0.16006002E-21
    0.257481856666         0.27624808E-05      0.51903664E-01     -0.37701665E-14      0.43371376E-06     -0.31504001E-19      0.59941178E-08     -0.16793208E-21
    0.260621879308         0.28805194E-05      0.51770549E-01     -0.72609143E-14      0.44565137E-06     -0.62503421E-19      0.61054749E-08     -0.18355013E-21
    0.263761901951         0.30024614E-05      0.52222994E-01      0.62973883E-14      0.46299860E-06      0.55831383E-19      0.62211667E-08     -0.16959926E-21
    0.266901924593         0.31283879E-05      0.52079854E-01      0.57423550E-14      0.47543504E-06      0.52421744E-19      0.63399661E-08     -0.15650037E-21
    0.270041947235         0.32583797E-05      0.51573700E-01      0.26268446E-14      0.48467575E-06      0.24686378E-19      0.64610745E-08     -0.15033186E-21
    0.273181969877         0.33925174E-05      0.50401291E-01     -0.50100488E-14      0.48748836E-06     -0.48457895E-19      0.65828857E-08     -0.16244028E-21
    0.276321992520         0.35308809E-05      0.48655553E-01     -0.45572036E-14      0.48423098E-06     -0.45354313E-19      0.67038829E-08     -0.17377319E-21
    0.279462015162         0.36735498E-05      0.47210700E-01     -0.71429272E-14      0.48334378E-06     -0.73129384E-19      0.68246585E-08     -0.19204640E-21
    0.282602037804         0.38206029E-05      0.45876358E-01     -0.79497696E-14      0.48305667E-06     -0.83707369E-19      0.69453623E-08     -0.21296279E-21
    0.285742060446         0.39721182E-05      0.45450696E-01     -0.63144011E-14      0.49208606E-06     -0.68364823E-19      0.70683223E-08     -0.23004545E-21
    0.288882083089         0.41281729E-05      0.45872572E-01     -0.10560098E-13      0.51055544E-06     -0.11753244E-18      0.71958974E-08     -0.25941388E-21
    0.292022105731         0.42888434E-05      0.45996469E-01      0.22349414E-14      0.52614022E-06      0.25564844E-19      0.73273667E-08     -0.25302586E-21
    0.295162128373         0.44542050E-05      0.46002700E-01      0.25234813E-14      0.54068637E-06      0.29659388E-19      0.74624707E-08     -0.24561472E-21
    0.298302151016         0.46243316E-05      0.45346740E-01      0.48423008E-15      0.54750891E-06      0.58465126E-20      0.75992796E-08     -0.24415382E-21
    0.301442173658         0.47992961E-05      0.44951029E-01     -0.92856756E-16      0.55739840E-06     -0.11514354E-20      0.77385595E-08     -0.24444154E-21
    0.304582196300         0.49791702E-05      0.45534215E-01     -0.45399205E-15      0.57975279E-06     -0.57803381E-20      0.78834253E-08     -0.24588590E-21
    0.307722218942         0.51640238E-05      0.44985682E-01     -0.39069949E-14      0.58797144E-06     -0.51065168E-19      0.80303447E-08     -0.25864581E-21
    0.310862241585         0.53539254E-05      0.44159579E-01      0.21320289E-14      0.59235465E-06      0.28598942E-19      0.81783593E-08     -0.25149965E-21
    0.314002264227         0.55489418E-05      0.44247059E-01      0.26071136E-14      0.60899586E-06      0.35883095E-19      0.83305322E-08     -0.24253336E-21
    0.317142286869         0.57491382E-05      0.44466759E-01      0.16022297E-14      0.62782212E-06      0.22621735E-19      0.84874093E-08     -0.23688075E-21
    0.320282309511         0.59545777E-05      0.45189588E-01     -0.53972145E-15      0.65434823E-06     -0.78152024E-20      0.86509146E-08     -0.23883357E-21
    0.323422332154         0.61653214E-05      0.44944920E-01     -0.12943409E-14      0.66729653E-06     -0.19217060E-19      0.88176554E-08     -0.24363544E-21
    0.326562354796         0.63814285E-05      0.44081016E-01     -0.65782531E-14      0.67089712E-06     -0.10011863E-18      0.89852958E-08     -0.26865259E-21
    0.329702377438         0.66029559E-05      0.44580368E-01     -0.77616471E-15      0.69536449E-06     -0.12106615E-19      0.91590501E-08     -0.27167773E-21
    0.332842400080         0.68299581E-05      0.44550416E-01     -0.26025449E-14      0.71200607E-06     -0.41593950E-19      0.93369627E-08     -0.28207102E-21
    0.335982422723         0.70624875E-05      0.44544729E-01      0.64813523E-15      0.72927277E-06      0.10611073E-19      0.95191897E-08     -0.27941958E-21
    0.339122445365         0.73005935E-05      0.45669225E-01     -0.23686232E-14      0.76573379E-06     -0.39714596E-19      0.97105275E-08     -0.28934327E-21
    0.342262468007         0.75443232E-05      0.45823005E-01     -0.35997900E-14      0.78667820E-06     -0.61800318E-19      0.99070988E-08     -0.30478562E-21
    0.345402490650         0.77937209E-05      0.45529183E-01     -0.55435149E-14      0.80013227E-06     -0.97422024E-19      0.10107032E-07     -0.32912896E-21
    0.348542513292         0.80488281E-05      0.46161019E-01     -0.11140810E-14      0.83024223E-06     -0.20037623E-19      0.10314489E-07     -0.33413586E-21
    0.351682535934         0.83096834E-05      0.48292345E-01     -0.39378385E-14      0.88871909E-06     -0.72467639E-19      0.10536557E-07     -0.35224372E-21
    0.354822558576         0.85763220E-05      0.50786084E-01     -0.50931486E-14      0.95606434E-06     -0.95880159E-19      0.10775454E-07     -0.37620178E-21
    0.357962581219         0.88487764E-05      0.50855451E-01     -0.35134039E-14      0.97911936E-06     -0.67643522E-19      0.11020112E-07     -0.39310421E-21
    0.361102603861         0.91270757E-05      0.51026759E-01     -0.36274251E-14      0.10045037E-05     -0.71408848E-19      0.11271112E-07     -0.41094750E-21
    0.364242626503         0.94112456E-05      0.52534542E-01     -0.48648233E-14      0.10571919E-05     -0.97898480E-19      0.11535278E-07     -0.43540989E-21
    0.367382649145         0.97013084E-05      0.50405512E-01     -0.85973098E-15      0.10366741E-05     -0.17681813E-19      0.11794317E-07     -0.43982813E-21
    0.370522671788         0.99972828E-05      0.46348896E-01     -0.12913988E-14      0.97400039E-06     -0.27138142E-19      0.12037695E-07     -0.44660927E-21
    0.373662694430         0.10299184E-04      0.45437806E-01     -0.29993528E-15      0.97542295E-06     -0.64387739E-20      0.12281429E-07     -0.44821816E-21
    0.376802717072         0.10607023E-04      0.47302705E-01     -0.23270873E-14      0.10370938E-05     -0.51020500E-19      0.12540573E-07     -0.46096691E-21
    0.379942739715         0.10920809E-04      0.50061124E-01     -0.36920161E-15      0.11207011E-05     -0.82651887E-20      0.12820608E-07     -0.46303218E-21
    0.383082762357         0.11240543E-04      0.50954604E-01     -0.19762676E-14      0.11644763E-05     -0.45164061E-19      0.13111582E-07     -0.47431755E-21
