 
 # Omega; pulse ft; projected flux at t=    1000.25000000000     
    0.000000000000         0.20584359E-10      0.00000000E+00      0.00000000E+00      0.89416105E-12      0.10339758E-24
    0.003140022642         0.15396239E-09      0.50444317E-04      0.73856726E-17      0.96320042E-12      0.14102447E-24
    0.006280045285         0.55451303E-09      0.26201147E-04      0.44386219E-17      0.90093163E-12      0.15262289E-24
    0.009420067927         0.12234864E-08      0.16593102E-04      0.81328220E-17      0.83925754E-12      0.41134757E-24
    0.012560090569         0.21629680E-08      0.11853525E-04      0.48454425E-17      0.79492725E-12      0.32494758E-24
    0.015700113211         0.33758810E-08      0.10757939E-04      0.18789375E-17      0.90081577E-12      0.15733279E-24
    0.018840135854         0.48659904E-08      0.10359412E-04     -0.14796892E-17      0.10419452E-11     -0.14882650E-24
    0.021980158496         0.66379073E-08      0.13691863E-04      0.16001228E-17      0.16102209E-11      0.18818119E-24
    0.025120181138         0.86970953E-08      0.20706700E-04      0.12474227E-18      0.27918039E-11      0.16818514E-25
    0.028260203780         0.11049877E-07      0.19903887E-04      0.17751449E-18      0.30306975E-11      0.27029530E-25
    0.031400226423         0.13703440E-07      0.12722786E-04      0.79949375E-19      0.21622286E-11      0.13587340E-25
    0.034540249065         0.16665851E-07      0.89227143E-05      0.36364195E-18      0.16765695E-11      0.68327976E-25
    0.037680271707         0.19946058E-07      0.81798774E-05      0.14809072E-17      0.16862129E-11      0.30527655E-24
    0.040820294349         0.23553907E-07      0.80128886E-05      0.48745069E-18      0.18005222E-11      0.10953176E-24
    0.043960316992         0.27500150E-07      0.78077013E-05      0.63126762E-18      0.19020415E-11      0.15378370E-24
    0.047100339634         0.31796458E-07      0.86611931E-05      0.13362496E-17      0.22769577E-11      0.35128923E-24
    0.050240362276         0.36455434E-07      0.97225463E-05      0.95833397E-18      0.27473379E-11      0.27080017E-24
    0.053380384919         0.41490627E-07      0.89074012E-05      0.10355206E-17      0.26961364E-11      0.31343653E-24
    0.056520407561         0.46916548E-07      0.67769996E-05      0.11955901E-18      0.21906892E-11      0.38647873E-25
    0.059660430203         0.52748678E-07      0.47722799E-05      0.46508423E-18      0.16431365E-11      0.16013245E-24
    0.062800452845         0.59003495E-07      0.43981880E-05      0.71648806E-18      0.16092047E-11      0.26214795E-24
    0.065940475488         0.65698477E-07      0.50091056E-05      0.24986902E-18      0.19435063E-11      0.96947850E-25
    0.069080498130         0.72852130E-07      0.57301879E-05     -0.44336051E-18      0.23533049E-11     -0.18208172E-24
    0.072220520772         0.80483997E-07      0.67203890E-05      0.13555891E-18      0.29165262E-11      0.58830091E-25
    0.075360543414         0.88614678E-07      0.57684034E-05      0.57883599E-18      0.26414343E-11      0.26505726E-24
    0.078500566057         0.97265847E-07      0.34125384E-05      0.19299628E-18      0.16465983E-11      0.93123452E-25
    0.081640588699         0.10646027E-06      0.24502371E-05      0.60931164E-18      0.12442627E-11      0.30941649E-24
    0.084780611341         0.11622182E-06      0.28480894E-05      0.51582427E-18      0.15204330E-11      0.27536925E-24
    0.087920633984         0.12657550E-06      0.41533597E-05      0.17132616E-19      0.23285252E-11      0.96051704E-26
    0.091060656626         0.13754746E-06      0.55479302E-05      0.34082853E-18      0.32634378E-11      0.20048427E-24
    0.094200679268         0.14916500E-06      0.65797755E-05      0.44637596E-18      0.40573879E-11      0.27525566E-24
    0.097340701910         0.16145662E-06      0.13709918E-04      0.28404125E-18      0.88556157E-11      0.18347011E-24
    0.100480724553         0.17445198E-06      0.25401910E-04      0.67400025E-18      0.17174419E-10      0.45569655E-24
    0.103620747195         0.18818198E-06      0.24953873E-04     -0.39891737E-18      0.17647851E-10     -0.28212190E-24
    0.106760769837         0.20267875E-06      0.17467565E-04      0.12319636E-18      0.12913722E-10      0.91078725E-25
    0.109900792479         0.21797565E-06      0.15332964E-04     -0.57521921E-20      0.11842839E-10     -0.44428646E-26
    0.113040815122         0.23410730E-06      0.12666673E-04      0.22698962E-18      0.10215621E-10      0.18306622E-24
    0.116180837764         0.25110960E-06      0.10312636E-04      0.15235713E-18      0.86800261E-11      0.12823723E-24
    0.119320860406         0.26901973E-06      0.10451631E-04      0.38699485E-18      0.91764430E-11      0.33977817E-24
    0.122460883048         0.28787616E-06      0.11584665E-04     -0.20824833E-18      0.10605090E-10     -0.19063928E-24
    0.125600905691         0.30771869E-06      0.12527872E-04     -0.13472716E-18      0.11952560E-10     -0.12854015E-24
    0.128740928333         0.32858842E-06      0.12310425E-04     -0.72230702E-19      0.12235768E-10     -0.71792653E-25
    0.131880950975         0.35052780E-06      0.11785143E-04     -0.63410448E-19      0.12198257E-10     -0.65633227E-25
    0.135020973618         0.37358059E-06      0.11229888E-04      0.40297049E-19      0.12099880E-10      0.43418904E-25
    0.138160996260         0.39779192E-06      0.10170914E-04     -0.24585554E-18      0.11403891E-10     -0.27565955E-24
    0.141301018902         0.42320825E-06      0.85296045E-05     -0.19799088E-18      0.99485611E-11     -0.23092799E-24
    0.144441041544         0.44987741E-06      0.77511006E-05     -0.69264007E-19      0.94013343E-11     -0.84010531E-25
    0.147581064187         0.47784857E-06      0.72307205E-05      0.70471073E-20      0.91172479E-11      0.88857292E-26
    0.150721086829         0.50717226E-06      0.65602587E-05      0.24041468E-19      0.85965656E-11      0.31503949E-25
    0.153861109471         0.53790037E-06      0.71315239E-05      0.11592413E-18      0.97090754E-11      0.15782267E-24
    0.157001132113         0.57008615E-06      0.93805999E-05     -0.10354238E-18      0.13264499E-10     -0.14641258E-24
    0.160141154756         0.60378418E-06      0.11286989E-04     -0.86927294E-19      0.16572172E-10     -0.12763138E-24
    0.163281177398         0.63905039E-06      0.12420677E-04     -0.34715239E-18      0.18930705E-10     -0.52910479E-24
    0.166421200040         0.67594205E-06      0.13016739E-04     -0.30668324E-18      0.20588540E-10     -0.48508004E-24
    0.169561222683         0.71451775E-06      0.10809522E-04     -0.13413987E-19      0.17738443E-10     -0.22012375E-25
    0.172701245325         0.75483738E-06      0.67331792E-05      0.27644953E-19      0.11460423E-10      0.47053975E-25
    0.175841267967         0.79696213E-06      0.47553245E-05     -0.21036070E-18      0.83930456E-11     -0.37128212E-24
    0.178981290609         0.84095448E-06      0.46607059E-05     -0.54523026E-19      0.85278409E-11     -0.99762506E-25
    0.182121313252         0.88687816E-06      0.36216072E-05      0.52393785E-19      0.68679493E-11      0.99358609E-25
    0.185261335894         0.93479813E-06      0.22316428E-05      0.14529726E-18      0.43851078E-11      0.28550454E-24
    0.188401358536         0.98478058E-06      0.33539945E-05     -0.21960485E-18      0.68271640E-11     -0.44701277E-24
    0.191541381178         0.10368929E-05      0.51392349E-05     -0.12606730E-18      0.10834086E-10     -0.26576408E-24
    0.194681403821         0.10912036E-05      0.54975812E-05     -0.29884023E-19      0.11999842E-10     -0.65229331E-25
    0.197821426463         0.11477823E-05      0.51061137E-05      0.74094537E-19      0.11537168E-10      0.16741522E-24
    0.200961449105         0.12066998E-05      0.44843858E-05      0.71250071E-19      0.10486052E-10      0.16660742E-24
    0.204101471747         0.12680280E-05      0.41452832E-05     -0.68780031E-19      0.10029042E-10     -0.16640547E-24
    0.207241494390         0.13318396E-05      0.38697993E-05     -0.12136417E-18      0.96847002E-11     -0.30373038E-24
    0.210381517032         0.13982084E-05      0.36401119E-05      0.60081982E-19      0.94210999E-11      0.15550026E-24
    0.213521539674         0.14672093E-05      0.33765439E-05      0.81808187E-19      0.90353569E-11      0.21891206E-24
    0.216661562317         0.15389178E-05      0.31866431E-05     -0.17179331E-18      0.88143341E-11     -0.47518457E-24
    0.219801584959         0.16134104E-05      0.30065150E-05     -0.26422593E-19      0.85940910E-11     -0.75528699E-25
    0.222941607601         0.16907644E-05      0.29311503E-05     -0.27563775E-18      0.86567044E-11     -0.81405397E-24
    0.226081630243         0.17710577E-05      0.27287981E-05      0.10128423E-19      0.83245620E-11      0.30898104E-25
    0.229221652886         0.18543692E-05      0.24719593E-05      0.13461597E-19      0.77876139E-11      0.42409162E-25
    0.232361675528         0.19407779E-05      0.21665926E-05     -0.57524378E-19      0.70471115E-11     -0.18710518E-24
    0.235501698170         0.20303639E-05      0.17294398E-05     -0.60180405E-19      0.58064119E-11     -0.20204937E-24
    0.238641720812         0.21232074E-05      0.11242973E-05      0.12619138E-19      0.38953794E-11      0.43721827E-25
    0.241781743455         0.22193892E-05      0.81340326E-06     -0.87510326E-19      0.29076252E-11     -0.31281806E-24
    0.244921766097         0.23189905E-05      0.12723407E-05     -0.13604979E-18      0.46913468E-11     -0.50163981E-24
    0.248061788739         0.24220926E-05      0.16204852E-05     -0.59272218E-19      0.61616707E-11     -0.22537441E-24
    0.251201811381         0.25287771E-05      0.13013431E-05     -0.48552481E-19      0.51015501E-11     -0.19033636E-24
    0.254341834024         0.26391259E-05      0.81087826E-06     -0.89359980E-19      0.32765779E-11     -0.36108372E-24
    0.257481856666         0.27532206E-05      0.64521356E-06     -0.60016226E-19      0.26867077E-11     -0.24991113E-24
    0.260621879308         0.28711432E-05      0.53432183E-06     -0.12339067E-18      0.22922893E-11     -0.52935722E-24
    0.263761901951         0.29929751E-05      0.55317184E-06     -0.46272381E-20      0.24444077E-11     -0.20447275E-25
    0.266901924593         0.31187981E-05      0.88815863E-06      0.13180709E-19      0.40415563E-11      0.59978672E-25
    0.270041947235         0.32486931E-05      0.12747905E-05     -0.11324016E-18      0.59722616E-11     -0.53051843E-24
    0.273181969877         0.33827410E-05      0.16169397E-05     -0.52600609E-19      0.77970998E-11     -0.25364718E-24
    0.276321992520         0.35210223E-05      0.18190656E-05     -0.70446854E-19      0.90266007E-11     -0.34957267E-24
    0.279462015162         0.36636166E-05      0.18230500E-05     -0.15660879E-18      0.93069707E-11     -0.79951368E-24
    0.282602037804         0.38106031E-05      0.16460544E-05     -0.51304476E-19      0.86434112E-11     -0.26939915E-24
    0.285742060446         0.39620603E-05      0.13985477E-05     -0.34520148E-19      0.75517352E-11     -0.18639837E-24
    0.288882083089         0.41180657E-05      0.12121599E-05     -0.91346499E-19      0.67290710E-11     -0.50709241E-24
    0.292022105731         0.42786958E-05      0.10424351E-05      0.24474530E-19      0.59479494E-11      0.13964731E-24
    0.295162128373         0.44440263E-05      0.95361241E-06      0.26280063E-19      0.55912695E-11      0.15408662E-24
    0.298302151016         0.46141316E-05      0.10282956E-05     -0.38286914E-19      0.61940414E-11     -0.23062506E-24
    0.301442173658         0.47890848E-05      0.12339849E-05     -0.12664880E-19      0.76345055E-11     -0.78355976E-25
    0.304582196300         0.49689578E-05      0.14329198E-05     -0.43231069E-19      0.91034335E-11     -0.27464981E-24
    0.307722218942         0.51538208E-05      0.15833521E-05     -0.86975940E-19      0.10326913E-10     -0.56727303E-24
    0.310862241585         0.53437427E-05      0.15897532E-05     -0.67183172E-19      0.10642161E-10     -0.44973907E-24
    0.314002264227         0.55387906E-05      0.15025673E-05     -0.60062590E-19      0.10321401E-10     -0.41258056E-24
    0.317142286869         0.57390298E-05      0.13901553E-05     -0.92734650E-19      0.97964833E-11     -0.65350500E-24
    0.320282309511         0.59445238E-05      0.12809225E-05     -0.12042343E-19      0.92582629E-11     -0.87039757E-25
    0.323422332154         0.61553339E-05      0.11433483E-05     -0.93460987E-20      0.84738880E-11     -0.69268298E-25
    0.326562354796         0.63715196E-05      0.98968859E-06     -0.91352510E-19      0.75196567E-11     -0.69409662E-24
    0.329702377438         0.65931380E-05      0.91123718E-06     -0.53732559E-19      0.70961708E-11     -0.41843707E-24
    0.332842400080         0.68202438E-05      0.87977662E-06     -0.58031080E-19      0.70203088E-11     -0.46306766E-24
    0.335982422723         0.70528895E-05      0.81060581E-06     -0.44343686E-19      0.66264782E-11     -0.36249736E-24
    0.339122445365         0.72911249E-05      0.68945804E-06      0.16136375E-19      0.57725591E-11      0.13510347E-24
    0.342262468007         0.75349972E-05      0.59715699E-06      0.30645826E-19      0.51195865E-11      0.26273486E-24
    0.345402490650         0.77845510E-05      0.54686815E-06     -0.52346923E-20      0.47996910E-11     -0.45943259E-25
    0.348542513292         0.80398277E-05      0.53686587E-06      0.18018988E-19      0.48225787E-11      0.16186164E-24
    0.351682535934         0.83008661E-05      0.50000609E-06     -0.37789722E-20      0.45958987E-11     -0.34735123E-25
    0.354822558576         0.85677017E-05      0.44272330E-06     -0.32225580E-19      0.41630156E-11     -0.30302356E-24
    0.357962581219         0.88403671E-05      0.39322977E-06      0.40106850E-20      0.37818265E-11      0.38572143E-25
    0.361102603861         0.91188913E-05      0.38609139E-06     -0.10062422E-20      0.37968556E-11     -0.98954712E-26
    0.364242626503         0.94033002E-05      0.38106865E-06     -0.38206639E-19      0.38310278E-11     -0.38410584E-24
    0.367382649145         0.96936162E-05      0.36273434E-06     -0.14209833E-19      0.37271631E-11     -0.14600869E-24
    0.370522671788         0.99898580E-05      0.35360146E-06     -0.12146375E-19      0.37126253E-11     -0.12753041E-24
    0.373662694430         0.10292041E-04      0.34962906E-06     -0.44179079E-19      0.37501775E-11     -0.47387190E-24
    0.376802717072         0.10600176E-04      0.37173707E-06     -0.17880948E-19      0.40724660E-11     -0.19588994E-24
    0.379942739715         0.10914271E-04      0.36274484E-06      0.12366074E-20      0.40578911E-11      0.13833465E-25
    0.383082762357         0.11234330E-04      0.35335889E-06      0.18832713E-20      0.40354609E-11      0.21507504E-25
    0.386222784999         0.11560353E-04      0.33377197E-06      0.10369285E-19      0.38905016E-11      0.12086611E-24
    0.389362807641         0.11892334E-04      0.30212437E-06     -0.15450645E-20      0.35935272E-11     -0.18377304E-25
    0.392502830284         0.12230266E-04      0.27251113E-06     -0.94031463E-21      0.33067389E-11     -0.11410084E-25
    0.395642852926         0.12574136E-04      0.22266648E-06      0.24769362E-19      0.27558285E-11      0.30655766E-24
    0.398782875568         0.12923926E-04      0.19685593E-06      0.15281405E-20      0.24844427E-11      0.19286071E-25
    0.401922898210         0.13279615E-04      0.19878683E-06     -0.31626430E-20      0.25577193E-11     -0.40692601E-25
    0.405062920853         0.13641178E-04      0.20965139E-06     -0.15699134E-19      0.27494744E-11     -0.20588639E-24
    0.408202943495         0.14008583E-04      0.19200938E-06     -0.10653416E-19      0.25660380E-11     -0.14237362E-24
    0.411342966137         0.14381797E-04      0.18370874E-06     -0.16612187E-19      0.25012750E-11     -0.22618220E-24
    0.414482988779         0.14760779E-04      0.19882069E-06     -0.10979603E-19      0.27573169E-11     -0.15226909E-24
    0.417623011422         0.15145484E-04      0.20840213E-06     -0.92731885E-20      0.29432249E-11     -0.13096353E-24
    0.420763034064         0.15535866E-04      0.18970411E-06     -0.31432582E-19      0.27277036E-11     -0.45196050E-24
    0.423903056706         0.15931868E-04      0.16297517E-06      0.38020525E-19      0.23853063E-11      0.55646879E-24
    0.427043079349         0.16333434E-04      0.15194968E-06      0.57277936E-19      0.22632272E-11      0.85313098E-24
    0.430183101991         0.16740499E-04      0.13543440E-06      0.36113709E-19      0.20524216E-11      0.54728014E-24
    0.433323124633         0.17152996E-04      0.11806079E-06      0.17056924E-19      0.18199370E-11      0.26293681E-24
    0.436463147275         0.17570851E-04      0.10675424E-06     -0.21486649E-19      0.16736047E-11     -0.33684992E-24
    0.439603169918         0.17993986E-04      0.10555263E-06     -0.22684312E-19      0.16825121E-11     -0.36158860E-24
    0.442743192560         0.18422319E-04      0.10324978E-06     -0.32369739E-19      0.16730315E-11     -0.52451046E-24
    0.445883215202         0.18855762E-04      0.10107757E-06     -0.10325402E-19      0.16645633E-11     -0.17004055E-24
    0.449023237844         0.19294222E-04      0.99499370E-07     -0.19659863E-19      0.16649505E-11     -0.32897393E-24
    0.452163260487         0.19737601E-04      0.97912751E-07      0.18140857E-19      0.16644122E-11      0.30837519E-24
    0.455303283129         0.20185796E-04      0.10293618E-06     -0.31947304E-19      0.17771975E-11     -0.55157154E-24
    0.458443305771         0.20638700E-04      0.11243599E-06     -0.16869823E-19      0.19711723E-11     -0.29575342E-24
    0.461583328413         0.21096200E-04      0.12171764E-06      0.13525084E-19      0.21663579E-11      0.24072248E-24
    0.464723351056         0.21558180E-04      0.13460107E-06     -0.15482819E-20      0.24315805E-11     -0.27969852E-25
    0.467863373698         0.22024515E-04      0.14896540E-06     -0.15973443E-20      0.27308338E-11     -0.29282517E-25
    0.471003396340         0.22495080E-04      0.15899952E-06      0.10260917E-19      0.29572080E-11      0.19084123E-24
    0.474143418983         0.22969743E-04      0.15179939E-06      0.53255509E-20      0.28637756E-11      0.10046932E-24
    0.477283441625         0.23448366E-04      0.13790443E-06      0.85447331E-20      0.26383777E-11      0.16347722E-24
    0.480423464267         0.23930807E-04      0.12595587E-06      0.19166310E-19      0.24432849E-11      0.37178699E-24
    0.483563486909         0.24416922E-04      0.11260573E-06      0.57153866E-20      0.22142184E-11      0.11238428E-24
    0.486703509552         0.24906558E-04      0.11091349E-06     -0.61258299E-20      0.22103250E-11     -0.12207780E-24
    0.489843532194         0.25399560E-04      0.11605037E-06     -0.24702789E-20      0.23433539E-11     -0.49881253E-25
    0.492983554836         0.25895769E-04      0.11912777E-06      0.45412908E-21      0.24368676E-11      0.92896260E-26
    0.496123577478         0.26395019E-04      0.11971940E-06      0.39476694E-20      0.24803854E-11      0.81789099E-25
    0.499263600121         0.26897142E-04      0.12120575E-06     -0.19088172E-19      0.25428574E-11     -0.40046366E-24
    0.502403622763         0.27401965E-04      0.12351953E-06     -0.18098467E-19      0.26235364E-11     -0.38440876E-24
    0.505543645405         0.27909310E-04      0.12359642E-06     -0.20909930E-19      0.26571672E-11     -0.44953712E-24
    0.508683668048         0.28418995E-04      0.12524882E-06     -0.71241871E-20      0.27249411E-11     -0.15499539E-24
