 
 # Omega; pulse ft; projected flux at t=    1000.25000000000     
    0.000000000000         0.20584359E-10      0.00000000E+00      0.00000000E+00      0.66962895E-07      0.67762636E-20
    0.003140022642         0.15396239E-09      0.35382238E+01     -0.44363017E-12      0.67560011E-07     -0.84708206E-20
    0.006280045285         0.55451303E-09      0.19824128E+01     -0.19866143E-12      0.68165656E-07     -0.68310126E-20
    0.009420067927         0.12234864E-08      0.13598625E+01      0.30596901E-13      0.68780081E-07      0.15475515E-20
    0.012560090569         0.21629680E-08      0.10349065E+01     -0.55417230E-13      0.69403439E-07     -0.37164191E-20
    0.015700113211         0.33758810E-08      0.83639918E+00     -0.99461003E-13      0.70035864E-07     -0.83283646E-20
    0.018840135854         0.48659904E-08      0.70270361E+00     -0.37728250E-13      0.70677625E-07     -0.37946911E-20
    0.021980158496         0.66379073E-08      0.60651566E+00     -0.14243033E-12      0.71328802E-07     -0.16750407E-19
    0.025120181138         0.86970953E-08      0.53394508E+00     -0.14762361E-12      0.71989738E-07     -0.19903517E-19
    0.028260203780         0.11049877E-07      0.47719205E+00      0.65634850E-13      0.72660417E-07      0.99939962E-20
    0.031400226423         0.13703440E-07      0.43154796E+00     -0.28284632E-13      0.73341273E-07     -0.48069533E-20
    0.034540249065         0.16665851E-07      0.39400086E+00     -0.28477125E-13      0.74032386E-07     -0.53508246E-20
    0.037680271707         0.19946058E-07      0.36253699E+00      0.74923795E-13      0.74733949E-07      0.15444910E-19
    0.040820294349         0.23553907E-07      0.33575849E+00      0.22388219E-13      0.75446026E-07      0.50307057E-20
    0.043960316992         0.27500150E-07      0.31266802E+00      0.27104568E-14      0.76169352E-07      0.66029692E-21
    0.047100339634         0.31796458E-07      0.29252909E+00      0.38048645E-14      0.76903534E-07      0.10002682E-20
    0.050240362276         0.36455434E-07      0.27479283E+00      0.16221673E-13      0.77649284E-07      0.45838214E-20
    0.053380384919         0.41490627E-07      0.25903635E+00      0.33852689E-13      0.78406407E-07      0.10246700E-19
    0.056520407561         0.46916548E-07      0.24493353E+00      0.31055077E-13      0.79175632E-07      0.10038664E-19
    0.059660430203         0.52748678E-07      0.23222431E+00      0.12186378E-13      0.79956804E-07      0.41958737E-20
    0.062800452845         0.59003495E-07      0.22070274E+00      0.23755394E-13      0.80750500E-07      0.86916003E-20
    0.065940475488         0.65698477E-07      0.21020072E+00     -0.54815324E-13      0.81556763E-07     -0.21268054E-19
    0.069080498130         0.72852130E-07      0.20058185E+00     -0.40225522E-13      0.82376053E-07     -0.16520038E-19
    0.072220520772         0.80483997E-07      0.19173259E+00     -0.54818269E-13      0.83208443E-07     -0.23790128E-19
    0.075360543414         0.88614678E-07      0.18355948E+00     -0.28079730E-13      0.84054508E-07     -0.12858109E-19
    0.078500566057         0.97265847E-07      0.17598271E+00     -0.36664878E-13      0.84914160E-07     -0.17691325E-19
    0.081640588699         0.10646027E-06      0.16893645E+00     -0.27025201E-13      0.85788158E-07     -0.13723754E-19
    0.084780611341         0.11622182E-06      0.16236285E+00      0.87917635E-14      0.86676295E-07      0.46934228E-20
    0.087920633984         0.12657550E-06      0.15621445E+00     -0.28607135E-13      0.87579527E-07     -0.16038205E-19
    0.091060656626         0.13754746E-06      0.15044816E+00     -0.25575084E-13      0.88497548E-07     -0.15043934E-19
    0.094200679268         0.14916500E-06      0.14502879E+00     -0.66225923E-14      0.89431326E-07     -0.40837907E-20
    0.097340701910         0.16145662E-06      0.13992363E+00     -0.85903229E-14      0.90380550E-07     -0.55487275E-20
    0.100480724553         0.17445198E-06      0.13510631E+00     -0.19909130E-13      0.91346374E-07     -0.13460710E-19
    0.103620747195         0.18818198E-06      0.13055126E+00      0.22812358E-13      0.92328322E-07      0.16133331E-19
    0.106760769837         0.20267875E-06      0.12623822E+00      0.27859969E-13      0.93327565E-07      0.20596797E-19
    0.109900792479         0.21797565E-06      0.12214725E+00      0.15585588E-13      0.94343805E-07      0.12037959E-19
    0.113040815122         0.23410730E-06      0.11826233E+00      0.10885197E-13      0.95378093E-07      0.87788678E-20
    0.116180837764         0.25110960E-06      0.11456778E+00      0.89686992E-14      0.96430371E-07      0.75488503E-20
    0.119320860406         0.26901973E-06      0.11105051E+00      0.62623269E-14      0.97501401E-07      0.54982695E-20
    0.122460883048         0.28787616E-06      0.10769814E+00      0.26307906E-13      0.98591407E-07      0.24083364E-19
    0.125600905691         0.30771869E-06      0.10449987E+00      0.23194723E-13      0.99700971E-07      0.22129563E-19
    0.128740928333         0.32858842E-06      0.10144573E+00      0.14187818E-13      0.10083051E-06      0.14101775E-19
    0.131880950975         0.35052780E-06      0.98526898E-01     -0.14711861E-13      0.10198064E-06     -0.15227568E-19
    0.135020973618         0.37358059E-06      0.95735040E-01     -0.66291382E-14      0.10315174E-06     -0.71427046E-20
    0.138160996260         0.39779192E-06      0.93062869E-01     -0.14828709E-13      0.10434448E-06     -0.16626330E-19
    0.141301018902         0.42320825E-06      0.90503399E-01      0.52601393E-14      0.10555924E-06      0.61351986E-20
    0.144441041544         0.44987741E-06      0.88050535E-01      0.74731814E-14      0.10679677E-06      0.90642452E-20
    0.147581064187         0.47784857E-06      0.85698364E-01      0.10337589E-13      0.10805745E-06      0.13034712E-19
    0.150721086829         0.50717226E-06      0.83441772E-01     -0.91782681E-15      0.10934213E-06     -0.12027206E-20
    0.153861109471         0.53790037E-06      0.81275664E-01     -0.10383574E-13      0.11065118E-06     -0.14136517E-19
    0.157001132113         0.57008615E-06      0.79195714E-01     -0.48588336E-14      0.11198553E-06     -0.68705622E-20
    0.160141154756         0.60378418E-06      0.77197362E-01      0.11447818E-14      0.11334537E-06      0.16808310E-20
    0.163281177398         0.63905039E-06      0.75277036E-01      0.72041150E-14      0.11473186E-06      0.10979995E-19
    0.166421200040         0.67594205E-06      0.73430900E-01     -0.11421670E-14      0.11614545E-06     -0.18065625E-20
    0.169561222683         0.71451775E-06      0.71655719E-01      0.10583465E-13      0.11758716E-06      0.17367484E-19
    0.172701245325         0.75483738E-06      0.69948088E-01      0.76882298E-14      0.11905738E-06      0.13085997E-19
    0.175841267967         0.79696213E-06      0.68305182E-01      0.27819852E-14      0.12055718E-06      0.49101441E-20
    0.178981290609         0.84095448E-06      0.66724079E-01      0.97015844E-15      0.12208716E-06      0.17751296E-20
    0.182121313252         0.88687816E-06      0.65202263E-01      0.47544591E-15      0.12364837E-06      0.90162687E-21
    0.185261335894         0.93479813E-06      0.63737168E-01      0.41532289E-14      0.12524153E-06      0.81609639E-20
    0.188401358536         0.98478058E-06      0.62326511E-01     -0.26950503E-14      0.12686762E-06     -0.54858618E-20
    0.191541381178         0.10368929E-05      0.60968099E-01      0.51684253E-14      0.12852763E-06      0.10895623E-19
    0.194681403821         0.10912036E-05      0.59659807E-01      0.38032699E-14      0.13022240E-06      0.83015846E-20
    0.197821426463         0.11477823E-05      0.58399747E-01      0.12894533E-13      0.13195313E-06      0.29134956E-19
    0.200961449105         0.12066998E-05      0.57185983E-01      0.77916051E-14      0.13372070E-06      0.18219480E-19
    0.204101471747         0.12680280E-05      0.56016843E-01     -0.32138304E-16      0.13552639E-06     -0.77754978E-22
    0.207241494390         0.13318396E-05      0.54890528E-01      0.48758856E-14      0.13737103E-06      0.12202568E-19
    0.210381517032         0.13982084E-05      0.53805619E-01      0.68951568E-14      0.13925619E-06      0.17845595E-19
    0.213521539674         0.14672093E-05      0.52760441E-01      0.63147081E-14      0.14118265E-06      0.16897646E-19
    0.216661562317         0.15389178E-05      0.51753768E-01      0.19844979E-14      0.14315221E-06      0.54891705E-20
    0.219801584959         0.16134104E-05      0.50784027E-01      0.15811551E-14      0.14516560E-06      0.45197149E-20
    0.222941607601         0.16907644E-05      0.49850151E-01      0.17477143E-14      0.14722480E-06      0.51616070E-20
    0.226081630243         0.17710577E-05      0.48950683E-01     -0.20715896E-15      0.14933058E-06     -0.63196599E-21
    0.229221652886         0.18543692E-05      0.48084705E-01      0.27411812E-15      0.15148515E-06      0.86357656E-21
    0.232361675528         0.19407779E-05      0.47250863E-01      0.13549731E-14      0.15368930E-06      0.44072183E-20
    0.235501698170         0.20303639E-05      0.46448364E-01      0.95327706E-14      0.15594548E-06      0.32005272E-19
    0.238641720812         0.21232074E-05      0.45675935E-01      0.88755324E-14      0.15825449E-06      0.30751266E-19
    0.241781743455         0.22193892E-05      0.44932879E-01      0.51093647E-15      0.16061894E-06      0.18264148E-20
    0.244921766097         0.23189905E-05      0.44218038E-01     -0.78743250E-14      0.16303978E-06     -0.29034040E-19
    0.248061788739         0.24220926E-05      0.43530786E-01     -0.63949209E-14      0.16551979E-06     -0.24315801E-19
    0.251201811381         0.25287771E-05      0.42870075E-01     -0.76383330E-14      0.16806008E-06     -0.29943938E-19
    0.254341834024         0.26391259E-05      0.42235348E-01     -0.30902768E-14      0.17066361E-06     -0.12487119E-19
    0.257481856666         0.27532206E-05      0.41625661E-01     -0.15717002E-14      0.17333173E-06     -0.65446530E-20
    0.260621879308         0.28711432E-05      0.41040493E-01      0.91778463E-16      0.17606746E-06      0.39373797E-21
    0.263761901951         0.29929751E-05      0.40479010E-01      0.67823323E-14      0.17887245E-06      0.29970408E-19
    0.266901924593         0.31187981E-05      0.39940723E-01      0.85552182E-14      0.18174983E-06      0.38930428E-19
    0.270041947235         0.32486931E-05      0.39424916E-01      0.70024991E-14      0.18470165E-06      0.32805983E-19
    0.273181969877         0.33827410E-05      0.38931115E-01     -0.83779302E-15      0.18773105E-06     -0.40399501E-20
    0.276321992520         0.35210223E-05      0.38458707E-01     -0.15222654E-14      0.19084050E-06     -0.75538134E-20
    0.279462015162         0.36636166E-05      0.38007255E-01     -0.71616459E-15      0.19403330E-06     -0.36561383E-20
    0.282602037804         0.38106031E-05      0.37576226E-01     -0.93231718E-14      0.19731229E-06     -0.48955857E-19
    0.285742060446         0.39620603E-05      0.37165220E-01     -0.56668107E-14      0.20068096E-06     -0.30599065E-19
    0.288882083089         0.41180657E-05      0.36773795E-01     -0.85333028E-14      0.20414261E-06     -0.47370979E-19
    0.292022105731         0.42786958E-05      0.36401563E-01      0.23207010E-14      0.20770084E-06      0.13241507E-19
    0.295162128373         0.44440263E-05      0.36048191E-01      0.28385058E-14      0.21135961E-06      0.16642874E-19
    0.298302151016         0.46141316E-05      0.35713298E-01      0.97554467E-15      0.21512263E-06      0.58762911E-20
    0.301442173658         0.47890848E-05      0.35396637E-01     -0.59683388E-15      0.21899443E-06     -0.36925343E-20
    0.304582196300         0.49689578E-05      0.35097853E-01      0.13947218E-14      0.22297896E-06      0.88607587E-20
    0.307722218942         0.51538208E-05      0.34816791E-01     -0.72037010E-15      0.22708150E-06     -0.46983859E-20
    0.310862241585         0.53437427E-05      0.34553107E-01      0.29814090E-14      0.23130617E-06      0.19958214E-19
    0.314002264227         0.55387906E-05      0.34306713E-01      0.29468980E-14      0.23565889E-06      0.20242764E-19
    0.317142286869         0.57390298E-05      0.34077321E-01      0.75780418E-15      0.24014432E-06      0.53402780E-20
    0.320282309511         0.59445238E-05      0.33864908E-01     -0.19656931E-14      0.24476909E-06     -0.14207654E-19
    0.323422332154         0.61553339E-05      0.33669214E-01     -0.70893543E-15      0.24953825E-06     -0.52542513E-20
    0.326562354796         0.63715196E-05      0.33490291E-01     -0.27443487E-14      0.25445933E-06     -0.20851569E-19
    0.329702377438         0.65931380E-05      0.33327923E-01      0.30506484E-15      0.25953795E-06      0.23756627E-20
    0.332842400080         0.68202438E-05      0.33182224E-01      0.19380512E-14      0.26478250E-06      0.15464969E-19
    0.335982422723         0.70528895E-05      0.33053023E-01      0.15663840E-14      0.27019932E-06      0.12804756E-19
    0.339122445365         0.72911249E-05      0.32940509E-01     -0.16653071E-14      0.27579784E-06     -0.13942956E-19
    0.342262468007         0.75349972E-05      0.32844572E-01     -0.11037736E-15      0.28158530E-06     -0.94629462E-21
    0.345402490650         0.77845510E-05      0.32765444E-01     -0.43399075E-14      0.28757207E-06     -0.38090013E-19
    0.348542513292         0.80398277E-05      0.32703099E-01      0.25931012E-14      0.29376661E-06      0.23293406E-19
    0.351682535934         0.83008661E-05      0.32657815E-01     -0.23973940E-14      0.30018036E-06     -0.22036092E-19
    0.354822558576         0.85677017E-05      0.32629670E-01     -0.39254837E-14      0.30682330E-06     -0.36912108E-19
    0.357962581219         0.88403671E-05      0.32618990E-01     -0.21316531E-14      0.31370809E-06     -0.20500844E-19
    0.361102603861         0.91188913E-05      0.32625935E-01     -0.71059196E-15      0.32084622E-06     -0.69880218E-20
    0.364242626503         0.94033002E-05      0.32650913E-01     -0.29883682E-14      0.32825202E-06     -0.30043200E-19
    0.367382649145         0.96936162E-05      0.32694188E-01      0.59250012E-16      0.33593888E-06      0.60880493E-21
    0.370522671788         0.99898580E-05      0.32756221E-01      0.14180965E-14      0.34392272E-06      0.14889251E-19
    0.373662694430         0.10292041E-04      0.32837413E-01      0.59350052E-15      0.35221937E-06      0.63659820E-20
    0.376802717072         0.10600176E-04      0.32938293E-01     -0.30709609E-14      0.36084665E-06     -0.33643090E-19
    0.379942739715         0.10914271E-04      0.33059470E-01      0.61284543E-15      0.36982394E-06      0.68556729E-20
    0.383082762357         0.11234330E-04      0.33201434E-01     -0.57944632E-17      0.37916999E-06     -0.66174449E-22
    0.386222784999         0.11560353E-04      0.33365061E-01     -0.24105414E-14      0.38890870E-06     -0.28097671E-19
    0.389362807641         0.11892334E-04      0.33550935E-01     -0.33381543E-17      0.39906148E-06     -0.39704669E-22
    0.392502830284         0.12230266E-04      0.33760124E-01     -0.23035550E-14      0.40965634E-06     -0.27952087E-19
    0.395642852926         0.12574136E-04      0.33993263E-01     -0.93675728E-15      0.42071714E-06     -0.11593763E-19
    0.398782875568         0.12923926E-04      0.34251792E-01      0.48553531E-15      0.43227866E-06      0.61277540E-20
    0.401922898210         0.13279615E-04      0.34536318E-01     -0.33635880E-15      0.44436651E-06     -0.43278090E-20
    0.405062920853         0.13641178E-04      0.34848779E-01     -0.38046066E-15      0.45702451E-06     -0.49895535E-20
    0.408202943495         0.14008583E-04      0.35189684E-01     -0.82197346E-16      0.47027944E-06     -0.10984959E-20
    0.411342966137         0.14381797E-04      0.35561663E-01     -0.15951345E-14      0.48418762E-06     -0.21718454E-19
    0.414482988779         0.14760779E-04      0.35964990E-01     -0.21548605E-14      0.49877542E-06     -0.29884381E-19
    0.417623011422         0.15145484E-04      0.36403287E-01     -0.14647315E-14      0.51411692E-06     -0.20686133E-19
    0.420763034064         0.15535866E-04      0.36876349E-01     -0.31414937E-14      0.53023493E-06     -0.45170679E-19
    0.423903056706         0.15931868E-04      0.37389297E-01     -0.26079117E-14      0.54723013E-06     -0.38169422E-19
    0.427043079349         0.16333434E-04      0.37940970E-01      0.20348268E-15      0.56511493E-06      0.30307898E-20
    0.430183101991         0.16740499E-04      0.38538825E-01     -0.34165012E-14      0.58403123E-06     -0.51774889E-19
    0.433323124633         0.17152996E-04      0.39179887E-01     -0.15127793E-14      0.60396788E-06     -0.23319876E-19
    0.436463147275         0.17570851E-04      0.39875379E-01     -0.15786803E-14      0.62513322E-06     -0.24749244E-19
    0.439603169918         0.17993986E-04      0.40618859E-01     -0.16838336E-14      0.64746580E-06     -0.26840357E-19
    0.442743192560         0.18422319E-04      0.41428027E-01     -0.70243124E-15      0.67128851E-06     -0.11382005E-19
    0.445883215202         0.18855762E-04      0.42289526E-01     -0.65257562E-15      0.69643138E-06     -0.10746731E-19
    0.449023237844         0.19294222E-04      0.43233013E-01     -0.23459053E-14      0.72342998E-06     -0.39254683E-19
    0.452163260487         0.19737601E-04      0.44230448E-01     -0.19729011E-14      0.75187037E-06     -0.33537211E-19
    0.455303283129         0.20185796E-04      0.45335782E-01     -0.40137686E-14      0.78272417E-06     -0.69297883E-19
    0.458443305771         0.20638700E-04      0.46486522E-01     -0.46216219E-14      0.81497877E-06     -0.81023995E-19
    0.461583328413         0.21096200E-04      0.47794964E-01     -0.34146448E-14      0.85066548E-06     -0.60774614E-19
    0.464723351056         0.21558180E-04      0.49100423E-01     -0.41363861E-14      0.88700357E-06     -0.74724188E-19
    0.467863373698         0.22024515E-04      0.50703661E-01     -0.30437647E-14      0.92949953E-06     -0.55798295E-19
    0.471003396340         0.22495080E-04      0.52006706E-01      0.15783228E-14      0.96726484E-06      0.29354986E-19
    0.474143418983         0.22969743E-04      0.55583116E-01      0.21579318E-14      0.10486048E-05      0.40710521E-19
    0.477283441625         0.23448366E-04      0.59882583E-01      0.11870769E-14      0.11456693E-05      0.22711071E-19
    0.480423464267         0.23930807E-04      0.60090441E-01     -0.22815549E-14      0.11656310E-05     -0.44257471E-19
    0.483563486909         0.24416922E-04      0.61397214E-01     -0.51395642E-14      0.12072817E-05     -0.10106162E-18
    0.486703509552         0.24906558E-04      0.64018964E-01     -0.51031215E-14      0.12757936E-05     -0.10169689E-18
    0.489843532194         0.25399560E-04      0.66857637E-01     -0.25876535E-14      0.13500268E-05     -0.52251345E-19
    0.492983554836         0.25895769E-04      0.70118708E-01     -0.23550645E-14      0.14343424E-05     -0.48174999E-19
    0.496123577478         0.26395019E-04      0.73853228E-01     -0.19112930E-14      0.15301152E-05     -0.39598790E-19
    0.499263600121         0.26897142E-04      0.77984152E-01     -0.14231827E-14      0.16360822E-05     -0.29857911E-19
    0.502403622763         0.27401965E-04      0.82868604E-01     -0.19142121E-14      0.17601169E-05     -0.40657581E-19
    0.505543645405         0.27909310E-04      0.88272622E-01     -0.11622762E-14      0.18977500E-05     -0.24987472E-19
    0.508683668048         0.28418995E-04      0.94865273E-01     -0.11003413E-13      0.20639099E-05     -0.23939269E-18
