 
 # Omega; pulse ft; proj flux t=    1000.25000000000     
    0.000000000000         0.45239627E-10      0.00000000E+00      0.00000000E+00      0.83922697E-07      0.60880493E-20
    0.003140022642         0.18021395E-09      0.39495502E+01     -0.49997656E-12      0.88272579E-07     -0.11174493E-19
    0.006280045285         0.58555420E-09      0.27809879E+01     -0.40650090E-12      0.10097782E-06     -0.14760069E-19
    0.009420067927         0.12625127E-08      0.24082584E+01      0.11161212E-12      0.12569192E-06      0.58252644E-20
    0.012560090569         0.22131784E-08      0.19950063E+01     -0.19554505E-12      0.13689591E-06     -0.13418162E-19
    0.015700113211         0.34404797E-08      0.13712217E+01     -0.25456742E-12      0.11701632E-06     -0.21724089E-19
    0.018840135854         0.49481878E-08      0.92630332E+00     -0.43321083E-13      0.94740987E-07     -0.44308188E-20
    0.021980158496         0.67409214E-08      0.74344662E+00     -0.53810028E-13      0.88789330E-07     -0.64264954E-20
    0.025120181138         0.88241530E-08      0.66991265E+00     -0.21917896E-12      0.91641246E-07     -0.29982764E-19
    0.028260203780         0.11204215E-07      0.63911958E+00      0.58969952E-13      0.98675832E-07      0.91045702E-20
    0.031400226423         0.13888307E-07      0.61137259E+00     -0.88173265E-13      0.10530404E-06     -0.15187139E-19
    0.034540249065         0.16884505E-07      0.57507217E+00     -0.12244648E-12      0.10947319E-06     -0.23309433E-19
    0.037680271707         0.20201772E-07      0.52529951E+00      0.56954637E-13      0.10967433E-06      0.11891238E-19
    0.040820294349         0.23849967E-07      0.45537966E+00      0.90451658E-14      0.10361147E-06      0.20580254E-20
    0.043960316992         0.27839854E-07      0.39400173E+00     -0.48851977E-14      0.97168796E-07     -0.12047886E-20
    0.047100339634         0.32183120E-07      0.35600453E+00      0.14609163E-13      0.94728831E-07      0.38873353E-20
    0.050240362276         0.36892382E-07      0.33589671E+00     -0.50215447E-13      0.96053287E-07     -0.14359649E-19
    0.053380384919         0.41981203E-07      0.33423226E+00     -0.72015816E-13      0.10236326E-06     -0.22055840E-19
    0.056520407561         0.47464107E-07      0.34375932E+00      0.56802137E-13      0.11241831E-06      0.18575788E-19
    0.059660430203         0.53356591E-07      0.35491466E+00      0.12098004E-13      0.12360845E-06      0.42134512E-20
    0.062800452845         0.59675142E-07      0.35751300E+00      0.53704480E-14      0.13229550E-06      0.19873014E-20
    0.065940475488         0.66437253E-07      0.33325008E+00     -0.18963538E-13      0.13075322E-06     -0.74404896E-20
    0.069080498130         0.73661441E-07      0.29149422E+00     -0.45494682E-13      0.12104232E-06     -0.18891564E-19
    0.072220520772         0.81367256E-07      0.25715929E+00     -0.13258154E-13      0.11282720E-06     -0.58169409E-20
    0.075360543414         0.89575309E-07      0.22851051E+00     -0.19458821E-13      0.10577256E-06     -0.90070663E-20
    0.078500566057         0.98307280E-07      0.21304941E+00     -0.49340442E-13      0.10390006E-06     -0.24062374E-19
    0.081640588699         0.10758594E-06      0.22182701E+00     -0.10985257E-13      0.11383776E-06     -0.56374427E-20
    0.084780611341         0.11743516E-06      0.23062951E+00     -0.98218961E-14      0.12440534E-06     -0.52980918E-20
    0.087920633984         0.12787995E-06      0.22228350E+00     -0.31423747E-13      0.12590455E-06     -0.17798859E-19
    0.091060656626         0.13894644E-06      0.21081160E+00     -0.26475436E-13      0.12526614E-06     -0.15731941E-19
    0.094200679268         0.15066195E-06      0.20484501E+00     -0.72231621E-14      0.12758437E-06     -0.44988286E-20
    0.097340701910         0.16305493E-06      0.19709390E+00     -0.22351067E-13      0.12856868E-06     -0.14580092E-19
    0.100480724553         0.17615507E-06      0.18218244E+00     -0.11984711E-13      0.12437739E-06     -0.81820570E-20
    0.103620747195         0.18999324E-06      0.16478636E+00      0.12794769E-13      0.11766173E-06      0.91357963E-20
    0.106760769837         0.20460153E-06      0.15256790E+00      0.10496718E-13      0.11386307E-06      0.78338140E-20
    0.109900792479         0.22001329E-06      0.14469249E+00     -0.97282320E-14      0.11280196E-06     -0.75841088E-20
    0.113040815122         0.23626311E-06      0.13811439E+00      0.63989358E-14      0.11241444E-06      0.52082393E-20
    0.116180837764         0.25338685E-06      0.13351430E+00      0.71725157E-14      0.11339656E-06      0.60917716E-20
    0.119320860406         0.27142164E-06      0.13013321E+00     -0.62797448E-14      0.11527597E-06     -0.55627896E-20
    0.122460883048         0.29040593E-06      0.12711126E+00      0.19962570E-13      0.11738556E-06      0.18435168E-19
    0.125600905691         0.31037944E-06      0.12418485E+00      0.17924894E-13      0.11950644E-06      0.17249611E-19
    0.128740928333         0.33138323E-06      0.12028694E+00      0.17924775E-13      0.12057434E-06      0.17967604E-19
    0.131880950975         0.35345968E-06      0.11553786E+00     -0.10180346E-13      0.12058817E-06     -0.10625342E-19
    0.135020973618         0.37665248E-06      0.11291747E+00     -0.13258080E-13      0.12266574E-06     -0.14402662E-19
    0.138160996260         0.40100669E-06      0.11225748E+00     -0.10069099E-13      0.12688316E-06     -0.11380971E-19
    0.141301018902         0.42656868E-06      0.11182636E+00      0.45330297E-14      0.13146507E-06      0.53291111E-20
    0.144441041544         0.45338618E-06      0.11299542E+00     -0.81573545E-14      0.13812143E-06     -0.99712487E-20
    0.147581064187         0.48150828E-06      0.11346564E+00      0.73866489E-14      0.14416507E-06      0.93851912E-20
    0.150721086829         0.51098541E-06      0.11049536E+00     -0.14822183E-13      0.14588179E-06     -0.19569025E-19
    0.153861109471         0.54186934E-06      0.10804431E+00     -0.95110839E-14      0.14818019E-06     -0.13044225E-19
    0.157001132113         0.57421319E-06      0.11231487E+00     -0.13905771E-13      0.15996691E-06     -0.19805599E-19
    0.160141154756         0.60807142E-06      0.11840781E+00     -0.11986366E-13      0.17508725E-06     -0.17723999E-19
    0.163281177398         0.64349984E-06      0.11518437E+00     -0.15071788E-13      0.17677808E-06     -0.23131279E-19
    0.166421200040         0.68055556E-06      0.10602575E+00     -0.65135898E-14      0.16884525E-06     -0.10372845E-19
    0.169561222683         0.71929702E-06      0.10000301E+00      0.92821214E-14      0.16520277E-06      0.15333861E-19
    0.172701245325         0.75978397E-06      0.98080918E-01      0.33251652E-14      0.16803576E-06      0.56967929E-20
    0.175841267967         0.80207741E-06      0.95863151E-01      0.59867095E-14      0.17028238E-06      0.10634234E-19
    0.178981290609         0.84623967E-06      0.89351418E-01      0.28179464E-14      0.16451660E-06      0.51884904E-20
    0.182121313252         0.89233427E-06      0.84984444E-01     -0.68036921E-14      0.16215442E-06     -0.12981773E-19
    0.185261335894         0.94042601E-06      0.87975918E-01     -0.49589869E-14      0.17391065E-06     -0.98029174E-20
    0.188401358536         0.99058087E-06      0.89159732E-01     -0.90546546E-14      0.18255646E-06     -0.18539599E-19
    0.191541381178         0.10428660E-05      0.84005058E-01      0.25561468E-14      0.17811229E-06      0.54196874E-20
    0.194681403821         0.10973497E-05      0.77982807E-01      0.63582360E-14      0.17117566E-06      0.13956605E-19
    0.197821426463         0.11541015E-05      0.75167315E-01      0.22038285E-14      0.17077420E-06      0.50069242E-20
    0.200961449105         0.12131919E-05      0.76717624E-01     -0.65817593E-14      0.18035759E-06     -0.15473241E-19
    0.204101471747         0.12746923E-05      0.77809984E-01     -0.93084526E-14      0.18924182E-06     -0.22639106E-19
    0.207241494390         0.13386756E-05      0.75637534E-01     -0.16484542E-14      0.19026483E-06     -0.41466564E-20
    0.210381517032         0.14052151E-05      0.73518064E-01      0.41319212E-14      0.19122815E-06      0.10747558E-19
    0.213521539674         0.14743854E-05      0.71463415E-01      0.23809455E-14      0.19216559E-06      0.64023779E-20
    0.216661562317         0.15462618E-05      0.69168194E-01     -0.26875986E-15      0.19223397E-06     -0.74694409E-21
    0.219801584959         0.16209206E-05      0.66428739E-01      0.37142252E-14      0.19076973E-06      0.10666494E-19
    0.222941607601         0.16984387E-05      0.63047630E-01      0.71360390E-14      0.18704670E-06      0.21170861E-19
    0.226081630243         0.17788939E-05      0.61645665E-01     -0.19331551E-14      0.18889039E-06     -0.59234404E-20
    0.229221652886         0.18623645E-05      0.61369839E-01     -0.30834001E-14      0.19417199E-06     -0.97557681E-20
    0.232361675528         0.19489296E-05      0.60981977E-01     -0.39987871E-15      0.19918457E-06     -0.13061182E-20
    0.235501698170         0.20386687E-05      0.62005191E-01      0.45273608E-14      0.20902739E-06      0.15262309E-19
    0.238641720812         0.21316617E-05      0.62564187E-01      0.61710631E-14      0.21763075E-06      0.21466164E-19
    0.241781743455         0.22279893E-05      0.60723444E-01      0.85841615E-15      0.21790567E-06      0.30804206E-20
    0.244921766097         0.23277321E-05      0.57816013E-01     -0.91441665E-14      0.21398154E-06     -0.33843268E-19
    0.248061788739         0.24309714E-05      0.55103326E-01     -0.91479069E-14      0.21029083E-06     -0.34911158E-19
    0.251201811381         0.25377883E-05      0.53548046E-01     -0.11784867E-13      0.21066810E-06     -0.46363887E-19
    0.254341834024         0.26482643E-05      0.52840483E-01     -0.39435614E-14      0.21425593E-06     -0.15990228E-19
    0.257481856666         0.27624808E-05      0.51970332E-01     -0.29158752E-14      0.21713542E-06     -0.12182716E-19
    0.260621879308         0.28805194E-05      0.51799286E-01     -0.36409312E-14      0.22294937E-06     -0.15670937E-19
    0.263761901951         0.30024614E-05      0.52261778E-01      0.80725174E-14      0.23167122E-06      0.35784660E-19
    0.266901924593         0.31283879E-05      0.52129502E-01      0.80331717E-14      0.23794414E-06      0.36667262E-19
    0.270041947235         0.32583797E-05      0.51589083E-01      0.44358149E-14      0.24241016E-06      0.20843297E-19
    0.273181969877         0.33925174E-05      0.50389629E-01     -0.36348553E-14      0.24368778E-06     -0.17578415E-19
    0.276321992520         0.35308809E-05      0.48678925E-01     -0.46147193E-14      0.24223180E-06     -0.22963361E-19
    0.279462015162         0.36735498E-05      0.47283516E-01     -0.60247240E-14      0.24204463E-06     -0.30840602E-19
    0.282602037804         0.38206029E-05      0.45941261E-01     -0.65433432E-14      0.24187003E-06     -0.34449177E-19
    0.285742060446         0.39721182E-05      0.45463651E-01     -0.49281025E-14      0.24611317E-06     -0.26677816E-19
    0.288882083089         0.41281729E-05      0.45842186E-01     -0.59242618E-14      0.25510862E-06     -0.32968110E-19
    0.292022105731         0.42888434E-05      0.45938778E-01      0.18742384E-14      0.26274015E-06      0.10719434E-19
    0.295162128373         0.44542050E-05      0.45923714E-01      0.25289708E-14      0.26987901E-06      0.14861954E-19
    0.298302151016         0.46243316E-05      0.45286147E-01      0.25924259E-15      0.27338866E-06      0.15650257E-20
    0.301442173658         0.47992961E-05      0.44973997E-01      0.82877323E-15      0.27884160E-06      0.51384460E-20
    0.304582196300         0.49791702E-05      0.45638423E-01     -0.32483690E-16      0.29053980E-06     -0.20679515E-21
    0.307722218942         0.51640238E-05      0.45085686E-01     -0.48069442E-14      0.29463926E-06     -0.31413838E-19
    0.310862241585         0.53539254E-05      0.44190002E-01      0.17219522E-14      0.29638137E-06      0.11549096E-19
    0.314002264227         0.55489418E-05      0.44212021E-01      0.34674972E-14      0.30425680E-06      0.23862506E-19
    0.317142286869         0.57491382E-05      0.44395896E-01      0.18853208E-15      0.31341080E-06      0.13309336E-20
    0.320282309511         0.59545777E-05      0.45110605E-01     -0.30806624E-14      0.32660228E-06     -0.22304098E-19
    0.323422332154         0.61653214E-05      0.44893996E-01     -0.45863527E-15      0.33327023E-06     -0.34046754E-20
    0.326562354796         0.63814285E-05      0.44091947E-01     -0.58941009E-14      0.33553174E-06     -0.44853042E-19
    0.329702377438         0.66029559E-05      0.44646695E-01     -0.19748821E-14      0.34819953E-06     -0.15402103E-19
    0.332842400080         0.68299581E-05      0.44624669E-01     -0.15185480E-14      0.35659640E-06     -0.12134740E-19
    0.335982422723         0.70624875E-05      0.44590874E-01     -0.17103737E-14      0.36501412E-06     -0.14000859E-19
    0.339122445365         0.73005935E-05      0.45685086E-01     -0.30279225E-14      0.38299986E-06     -0.25384519E-19
    0.342262468007         0.75443232E-05      0.45809305E-01     -0.22749717E-14      0.39322150E-06     -0.19528080E-19
    0.345402490650         0.77937209E-05      0.45492637E-01     -0.39511005E-14      0.39974500E-06     -0.34718425E-19
    0.348542513292         0.80488281E-05      0.46134412E-01     -0.12044069E-14      0.41488185E-06     -0.10831103E-19
    0.351682535934         0.83096834E-05      0.48301576E-01     -0.31848631E-14      0.44444448E-06     -0.29305355E-19
    0.354822558576         0.85763220E-05      0.50829971E-01     -0.60039326E-14      0.47844526E-06     -0.56512979E-19
    0.357962581219         0.88487764E-05      0.50932952E-01     -0.26280069E-14      0.49030574E-06     -0.25298492E-19
    0.361102603861         0.91270757E-05      0.51138603E-01     -0.34163211E-14      0.50335274E-06     -0.33626546E-19
    0.364242626503         0.94112456E-05      0.52653333E-01     -0.43087589E-14      0.52979121E-06     -0.43354190E-19
    0.367382649145         0.97013084E-05      0.50482697E-01      0.23616862E-15      0.51913076E-06      0.24286023E-20
    0.370522671788         0.99972828E-05      0.46371180E-01      0.87163907E-15      0.48723434E-06      0.91585437E-20
    0.373662694430         0.10299184E-04      0.45453597E-01     -0.24144328E-14      0.48788097E-06     -0.25915569E-19
    0.376802717072         0.10607023E-04      0.47360138E-01     -0.15450531E-14      0.51917647E-06     -0.16937350E-19
    0.379942739715         0.10920809E-04      0.50148969E-01     -0.56873010E-15      0.56133381E-06     -0.63659820E-20
    0.383082762357         0.11240543E-04      0.51051588E-01     -0.28122361E-14      0.58334636E-06     -0.32134312E-19
    0.386222784999         0.11566227E-04      0.51083003E-01     -0.36797977E-14      0.59573456E-06     -0.42914130E-19
    0.389362807641         0.11897856E-04      0.52978509E-01     -0.33488392E-14      0.63042950E-06     -0.39850253E-19
    0.392502830284         0.12235421E-04      0.52704884E-01     -0.43882113E-14      0.63980781E-06     -0.53270431E-19
    0.395642852926         0.12578910E-04      0.49386457E-01      0.95671178E-16      0.61146291E-06      0.11845226E-20
    0.398782875568         0.12928306E-04      0.48412782E-01      0.70237243E-16      0.61120615E-06      0.88673762E-21
    0.401922898210         0.13283588E-04      0.49610834E-01      0.37404870E-15      0.63851589E-06      0.48141912E-20
    0.405062920853         0.13644729E-04      0.50753475E-01     -0.79300862E-15      0.66578001E-06     -0.10402623E-19
    0.408202943495         0.14011700E-04      0.52166139E-01     -0.24891345E-14      0.69731005E-06     -0.33272513E-19
    0.411342966137         0.14384465E-04      0.52866784E-01     -0.26077700E-14      0.71993798E-06     -0.35512518E-19
    0.414482988779         0.14762986E-04      0.53617431E-01     -0.42084106E-14      0.74369704E-06     -0.58372481E-19
    0.417623011422         0.15147219E-04      0.55049737E-01     -0.27984131E-14      0.77754633E-06     -0.39525998E-19
    0.420763034064         0.15537114E-04      0.56759521E-01     -0.27648077E-14      0.81619522E-06     -0.39757609E-19
    0.423903056706         0.15932619E-04      0.59290014E-01     -0.35273870E-14      0.86781015E-06     -0.51629305E-19
    0.427043079349         0.16333675E-04      0.59736802E-01      0.49226088E-15      0.88976791E-06      0.73321289E-20
    0.430183101991         0.16740219E-04      0.58252313E-01     -0.26715879E-14      0.88276177E-06     -0.40485528E-19
    0.433323124633         0.17152184E-04      0.58989702E-01     -0.24154528E-14      0.90929816E-06     -0.37233054E-19
    0.436463147275         0.17569496E-04      0.60965173E-01     -0.27565714E-14      0.95568789E-06     -0.43211915E-19
    0.439603169918         0.17992079E-04      0.62873115E-01     -0.12464015E-14      0.10020930E-05     -0.19865570E-19
    0.442743192560         0.18419849E-04      0.64527921E-01     -0.95453606E-15      0.10454527E-05     -0.15464969E-19
    0.445883215202         0.18852719E-04      0.66734183E-01     -0.31195257E-14      0.10988129E-05     -0.51364607E-19
    0.449023237844         0.19290597E-04      0.70576639E-01     -0.48679168E-14      0.11807565E-05     -0.81440894E-19
    0.452163260487         0.19733385E-04      0.73224405E-01     -0.26095516E-14      0.12444708E-05     -0.44350116E-19
    0.455303283129         0.20180982E-04      0.72843450E-01     -0.70625747E-14      0.12573453E-05     -0.12190657E-18
    0.458443305771         0.20633280E-04      0.73821613E-01     -0.77777212E-14      0.12938642E-05     -0.13631936E-18
    0.461583328413         0.21090167E-04      0.81181560E-01     -0.55697244E-14      0.14444744E-05     -0.99102855E-19
    0.464723351056         0.21551527E-04      0.86428509E-01     -0.57217151E-14      0.15608570E-05     -0.10333140E-18
    0.467863373698         0.22017237E-04      0.88685085E-01     -0.53807081E-14      0.16252377E-05     -0.98606546E-19
    0.471003396340         0.22487171E-04      0.93518686E-01      0.13489511E-14      0.17387283E-05      0.25080116E-19
    0.474143418983         0.22961198E-04      0.98064093E-01      0.37546267E-15      0.18493426E-05      0.70806660E-20
    0.477283441625         0.23439180E-04      0.10183531E+00      0.59999942E-15      0.19475426E-05      0.11474649E-19
    0.480423464267         0.23920978E-04      0.10727775E+00     -0.36919860E-14      0.20801130E-05     -0.71587519E-19
    0.483563486909         0.24406446E-04      0.11323313E+00     -0.91354632E-14      0.22256000E-05     -0.17955775E-18
    0.486703509552         0.24895433E-04      0.12189326E+00     -0.10542349E-13      0.24280489E-05     -0.20999800E-18
    0.489843532194         0.25387784E-04      0.13298004E+00     -0.55547568E-14      0.26839623E-05     -0.11211275E-18
    0.492983554836         0.25883341E-04      0.14316555E+00     -0.66866750E-14      0.29271768E-05     -0.13671641E-18
    0.496123577478         0.26381938E-04      0.15811752E+00     -0.72667700E-14      0.32743068E-05     -0.15048070E-18
    0.499263600121         0.26883410E-04      0.17488414E+00     -0.57006880E-14      0.36671395E-05     -0.11953752E-18
    0.502403622763         0.27387581E-04      0.20203858E+00     -0.77319421E-14      0.42890170E-05     -0.16413910E-18
    0.505543645405         0.27894277E-04      0.24789149E+00     -0.76549538E-14      0.53264839E-05     -0.16448321E-18
    0.508683668048         0.28403316E-04      0.28297119E+00     -0.29710033E-13      0.61529873E-05     -0.64602144E-18
