 
 # Omega; pulse ft; proj flux t=    1000.25000000000     
    0.000000000000         0.45239627E-10      0.00000000E+00      0.00000000E+00      0.45789614E-12      0.16155871E-26
    0.003140022642         0.18021395E-09      0.10169646E-04     -0.41913688E-22      0.22729192E-12     -0.93677232E-30
    0.006280045285         0.58555420E-09      0.45495350E-05     -0.32743873E-18      0.16519385E-12     -0.11889317E-25
    0.009420067927         0.12625127E-08      0.22148291E-05      0.25764507E-18      0.11559645E-12      0.13447022E-25
    0.012560090569         0.22131784E-08      0.18466022E-05     -0.70914296E-19      0.12671253E-12     -0.48660885E-26
    0.015700113211         0.34404797E-08      0.17909478E-05     -0.13240927E-18      0.15283460E-12     -0.11299446E-25
    0.018840135854         0.49481878E-08      0.15909778E-05     -0.50203041E-19      0.16272295E-12     -0.51346956E-26
    0.021980158496         0.67409214E-08      0.24666688E-05      0.72195413E-20      0.29459259E-12      0.86222497E-27
    0.025120181138         0.88241530E-08      0.36442880E-05     -0.11924390E-18      0.49852334E-12     -0.16312066E-25
    0.028260203780         0.11204215E-07      0.30865172E-05     -0.31627321E-19      0.47653783E-12     -0.48830490E-26
    0.031400226423         0.13888307E-07      0.21598099E-05     -0.29719339E-19      0.37200998E-12     -0.51189184E-26
    0.034540249065         0.16884505E-07      0.16076229E-05     -0.69112880E-19      0.30603394E-12     -0.13156622E-25
    0.037680271707         0.20201772E-07      0.12611029E-05     -0.46111011E-19      0.26329858E-12     -0.96272585E-26
    0.040820294349         0.23849967E-07      0.13548430E-05     -0.19301340E-19      0.30826425E-12     -0.43915887E-26
    0.043960316992         0.27839854E-07      0.15321516E-05     -0.83504923E-19      0.37785958E-12     -0.20594003E-25
    0.047100339634         0.32183120E-07      0.15341115E-05     -0.11313114E-19      0.40820994E-12     -0.30102932E-26
    0.050240362276         0.36892382E-07      0.13253854E-05      0.16601454E-19      0.37900824E-12      0.47473649E-26
    0.053380384919         0.41981203E-07      0.12968490E-05     -0.62096324E-19      0.39717795E-12     -0.19017859E-25
    0.056520407561         0.47464107E-07      0.11611453E-05     -0.22578428E-20      0.37972495E-12     -0.73837381E-27
    0.059660430203         0.53356591E-07      0.15732624E-05      0.27044598E-19      0.54793040E-12      0.94189992E-26
    0.062800452845         0.59675142E-07      0.14811630E-05     -0.37127493E-19      0.54809530E-12     -0.13738802E-25
    0.065940475488         0.66437253E-07      0.34282377E-06      0.14389620E-19      0.13450953E-12      0.56458775E-26
    0.069080498130         0.73661441E-07      0.16004303E-06      0.56099190E-20      0.66457507E-13      0.23295063E-26
    0.072220520772         0.81367256E-07      0.35937219E-06     -0.32495190E-19      0.15767254E-12     -0.14257083E-25
    0.075360543414         0.89575309E-07      0.39489690E-06     -0.60944021E-20      0.18278921E-12     -0.28209666E-26
    0.078500566057         0.98307280E-07      0.60918127E-06     -0.42930497E-20      0.29708586E-12     -0.20936368E-26
    0.081640588699         0.10758594E-06      0.93576393E-06     -0.50850357E-19      0.48021777E-12     -0.26095519E-25
    0.084780611341         0.11743516E-06      0.28871947E-05      0.21550428E-19      0.15574002E-11      0.11624654E-25
    0.087920633984         0.12787995E-06      0.62911912E-05     -0.63508388E-19      0.35634204E-11     -0.35972057E-25
    0.091060656626         0.13894644E-06      0.63514953E-05     -0.85857359E-19      0.37741155E-11     -0.51017212E-25
    0.094200679268         0.15066195E-06      0.36535416E-05     -0.10104169E-18      0.22755487E-11     -0.62932168E-25
    0.097340701910         0.16305493E-06      0.24675272E-05     -0.27320780E-19      0.16096222E-11     -0.17821946E-25
    0.100480724553         0.17615507E-06      0.23291284E-05     -0.33684790E-19      0.15901144E-11     -0.22996873E-25
    0.103620747195         0.18999324E-06      0.25235282E-05     -0.54285803E-19      0.18018645E-11     -0.38761469E-25
    0.106760769837         0.20460153E-06      0.29388372E-05     -0.19618178E-20      0.21932859E-11     -0.14641258E-26
    0.109900792479         0.22001329E-06      0.32649304E-05     -0.50286479E-19      0.25453327E-11     -0.39203232E-25
    0.113040815122         0.23626311E-06      0.33140940E-05     -0.31262792E-19      0.26974164E-11     -0.25445497E-25
    0.116180837764         0.25338685E-06      0.29656657E-05     -0.69817023E-19      0.25188036E-11     -0.59297097E-25
    0.119320860406         0.27142164E-06      0.24564134E-05     -0.14875456E-19      0.21759660E-11     -0.13177133E-25
    0.122460883048         0.29040593E-06      0.18561225E-05     -0.12615123E-19      0.17141044E-11     -0.11649898E-25
    0.125600905691         0.31037944E-06      0.14430896E-05     -0.39478823E-20      0.13887242E-11     -0.37991541E-26
    0.128740928333         0.33138323E-06      0.14526041E-05     -0.15966261E-19      0.14560749E-11     -0.16004410E-25
    0.131880950975         0.35345968E-06      0.15971953E-05     -0.58893725E-20      0.16670107E-11     -0.61468042E-26
    0.135020973618         0.37665248E-06      0.16739763E-05     -0.15174048E-19      0.18184923E-11     -0.16484037E-25
    0.138160996260         0.40100669E-06      0.16887904E-05     -0.55789715E-19      0.19088178E-11     -0.63058385E-25
    0.141301018902         0.42656868E-06      0.16664206E-05     -0.47926795E-19      0.19590740E-11     -0.56343601E-25
    0.144441041544         0.45338618E-06      0.17025810E-05     -0.47870023E-19      0.20811722E-11     -0.58514547E-25
    0.147581064187         0.48150828E-06      0.17859461E-05      0.31788843E-20      0.22691542E-11      0.40389678E-26
    0.150721086829         0.51098541E-06      0.17744901E-05     -0.39234737E-19      0.23427751E-11     -0.51799762E-25
    0.153861109471         0.54186934E-06      0.16415617E-05     -0.21940090E-19      0.22513627E-11     -0.30090310E-25
    0.157001132113         0.57421319E-06      0.15166897E-05     -0.23643585E-19      0.21601786E-11     -0.33674894E-25
    0.160141154756         0.60807142E-06      0.14314163E-05     -0.15876661E-19      0.21166065E-11     -0.23476501E-25
    0.163281177398         0.64349984E-06      0.13682450E-05     -0.51350946E-19      0.20999006E-11     -0.78810360E-25
    0.166421200040         0.68055556E-06      0.12647443E-05     -0.48236399E-19      0.20140963E-11     -0.76816120E-25
    0.169561222683         0.71929702E-06      0.11457654E-05     -0.30408796E-20      0.18927793E-11     -0.50234662E-26
    0.172701245325         0.75978397E-06      0.11174704E-05      0.47150162E-20      0.19144906E-11      0.80779357E-26
    0.175841267967         0.80207741E-06      0.11213366E-05     -0.35442866E-19      0.19918380E-11     -0.62957411E-25
    0.178981290609         0.84623967E-06      0.10892732E-05     -0.19015974E-19      0.20056037E-11     -0.35012802E-25
    0.182121313252         0.89233427E-06      0.10381451E-05     -0.10716330E-19      0.19808309E-11     -0.20447275E-25
    0.185261335894         0.94042601E-06      0.98970534E-06     -0.22155804E-19      0.19564479E-11     -0.43797557E-25
    0.188401358536         0.99058087E-06      0.94598943E-06     -0.40105693E-19      0.19369336E-11     -0.82117265E-25
    0.191541381178         0.10428660E-05      0.91845042E-06     -0.16430132E-19      0.19473506E-11     -0.34836098E-25
    0.194681403821         0.10973497E-05      0.85929132E-06     -0.11833757E-19      0.18861819E-11     -0.25975612E-25
    0.197821426463         0.11541015E-05      0.76557942E-06     -0.12088880E-19      0.17393360E-11     -0.27464981E-25
    0.200961449105         0.12131919E-05      0.69516760E-06     -0.19241952E-19      0.16342888E-11     -0.45236440E-25
    0.204101471747         0.12746923E-05      0.65344730E-06     -0.32466492E-19      0.15892505E-11     -0.78961821E-25
    0.207241494390         0.13386756E-05      0.62265148E-06     -0.10757814E-19      0.15662684E-11     -0.27061084E-25
    0.210381517032         0.14052151E-05      0.57705995E-06     -0.12810515E-19      0.15009931E-11     -0.33321485E-25
    0.213521539674         0.14743854E-05      0.54452751E-06      0.49285351E-20      0.14642380E-11      0.13252863E-25
    0.216661562317         0.15462618E-05      0.54611238E-06     -0.96642542E-20      0.15177692E-11     -0.26859136E-25
    0.219801584959         0.16209206E-05      0.53487021E-06     -0.13308307E-19      0.15360377E-11     -0.38218733E-25
    0.222941607601         0.16984387E-05      0.46437609E-06     -0.14328846E-19      0.13776889E-11     -0.42510136E-25
    0.226081630243         0.17788939E-05      0.39535570E-06     -0.77111464E-20      0.12114216E-11     -0.23627962E-25
    0.229221652886         0.18623645E-05      0.38201719E-06     -0.18230770E-19      0.12086888E-11     -0.57681509E-25
    0.232361675528         0.19489296E-05      0.38897552E-06     -0.20673785E-19      0.12705052E-11     -0.67526493E-25
    0.235501698170         0.20386687E-05      0.38387307E-06     -0.48673057E-21      0.12940850E-11     -0.16408307E-26
    0.238641720812         0.21316617E-05      0.35224893E-06     -0.59289530E-20      0.12253048E-11     -0.20623980E-25
    0.241781743455         0.22279893E-05      0.31911937E-06     -0.14111371E-19      0.11451577E-11     -0.50638559E-25
    0.244921766097         0.23277321E-05      0.30350424E-06     -0.81369696E-20      0.11232927E-11     -0.30115554E-25
    0.248061788739         0.24309714E-05      0.29182519E-06     -0.45707339E-20      0.11136925E-11     -0.17443292E-25
    0.251201811381         0.25377883E-05      0.27235534E-06     -0.90728694E-20      0.10714972E-11     -0.35694378E-25
    0.254341834024         0.26482643E-05      0.24699472E-06     -0.11442735E-19      0.10015064E-11     -0.46397643E-25
    0.257481856666         0.27624808E-05      0.22518639E-06     -0.72503082E-20      0.94084338E-12     -0.30292259E-25
    0.260621879308         0.28805194E-05      0.21921917E-06     -0.53312839E-20      0.94354150E-12     -0.22946386E-25
    0.263761901951         0.30024614E-05      0.21797661E-06     -0.94530202E-21      0.96626847E-12     -0.41904291E-26
    0.266901924593         0.31283879E-05      0.19865458E-06     -0.13604860E-20      0.90675512E-12     -0.62099130E-26
    0.270041947235         0.32583797E-05      0.18242952E-06     -0.69248493E-20      0.85721176E-12     -0.32538935E-25
    0.273181969877         0.33925174E-05      0.18113126E-06     -0.13451547E-19      0.87596349E-12     -0.65052626E-25
    0.276321992520         0.35308809E-05      0.16904057E-06     -0.10876396E-19      0.84116484E-12     -0.54122169E-25
    0.279462015162         0.36735498E-05      0.14544824E-06     -0.11051127E-19      0.74455050E-12     -0.56570793E-25
    0.282602037804         0.38206029E-05      0.13222182E-06     -0.11809613E-19      0.69611707E-12     -0.62174861E-25
    0.285742060446         0.39721182E-05      0.13484383E-06     -0.11151936E-19      0.72996426E-12     -0.60369947E-25
    0.288882083089         0.41281729E-05      0.13926142E-06     -0.13291017E-19      0.77498028E-12     -0.73963598E-25
    0.292022105731         0.42888434E-05      0.13141665E-06      0.13903174E-21      0.75161842E-12      0.79517179E-27
    0.295162128373         0.44542050E-05      0.11837723E-06     -0.10094532E-20      0.69566522E-12     -0.59322340E-26
    0.298302151016         0.46243316E-05      0.11137534E-06      0.48714832E-21      0.67236356E-12      0.29408735E-26
    0.301442173658         0.47992961E-05      0.10663508E-06     -0.37356003E-20      0.66114419E-12     -0.23160956E-25
    0.304582196300         0.49791702E-05      0.98967868E-07     -0.46056892E-20      0.63004159E-12     -0.29320382E-25
    0.307722218942         0.51640238E-05      0.93088272E-07     -0.49115080E-20      0.60834073E-12     -0.32097173E-25
    0.310862241585         0.53539254E-05      0.92209220E-07     -0.15017458E-20      0.61844521E-12     -0.10072176E-25
    0.314002264227         0.55489418E-05      0.96333004E-07     -0.31803109E-20      0.66294124E-12     -0.21886157E-25
    0.317142286869         0.57491382E-05      0.99091048E-07     -0.37582182E-20      0.69952874E-12     -0.26530970E-25
    0.320282309511         0.59545777E-05      0.86347338E-07     -0.32286491E-20      0.62515759E-12     -0.23375526E-25
    0.323422332154         0.61653214E-05      0.73643936E-07     -0.27748040E-20      0.54669519E-12     -0.20598736E-25
    0.326562354796         0.63814285E-05      0.76493639E-07     -0.61949341E-20      0.58210275E-12     -0.47142328E-25
    0.329702377438         0.66029559E-05      0.81237786E-07     -0.68247250E-20      0.63357341E-12     -0.53226023E-25
    0.332842400080         0.68299581E-05      0.76377600E-07     -0.58709859E-20      0.61033454E-12     -0.46915136E-25
    0.335982422723         0.70624875E-05      0.67606800E-07     -0.12951976E-20      0.55341899E-12     -0.10602291E-25
    0.339122445365         0.73005935E-05      0.64476486E-07     -0.95753214E-21      0.54053713E-12     -0.80274486E-26
    0.342262468007         0.75443232E-05      0.67189874E-07     -0.25746785E-20      0.57674970E-12     -0.22100727E-25
    0.345402490650         0.77937209E-05      0.68602957E-07     -0.28354738E-20      0.60281600E-12     -0.24915383E-25
    0.348542513292         0.80488281E-05      0.62362325E-07     -0.11466821E-20      0.56081774E-12     -0.10311990E-25
    0.351682535934         0.83096834E-05      0.54858516E-07     -0.48147231E-20      0.50477783E-12     -0.44302428E-25
    0.354822558576         0.85763220E-05      0.48702432E-07     -0.44867715E-20      0.45841946E-12     -0.42232457E-25
    0.357962581219         0.88487764E-05      0.46877965E-07     -0.32726297E-20      0.45127044E-12     -0.31503949E-25
    0.361102603861         0.91270757E-05      0.49113796E-07     -0.35199718E-20      0.48342274E-12     -0.34646771E-25
    0.364242626503         0.94112456E-05      0.47766177E-07     -0.23570474E-20      0.48061726E-12     -0.23716314E-25
    0.367382649145         0.97013084E-05      0.45828212E-07     -0.27383299E-20      0.47126711E-12     -0.28159179E-25
    0.370522671788         0.99972828E-05      0.44563461E-07     -0.93937162E-21      0.46824015E-12     -0.98702276E-26
    0.373662694430         0.10299184E-04      0.38638852E-07     -0.15333892E-20      0.41473419E-12     -0.16458794E-25
    0.376802717072         0.10607023E-04      0.31209595E-07     -0.19320143E-20      0.34212923E-12     -0.21179338E-25
    0.379942739715         0.10920809E-04      0.31216670E-07      0.53223475E-21      0.34941839E-12      0.59574776E-26
    0.383082762357         0.11240543E-04      0.35475999E-07     -0.13520246E-20      0.40537025E-12     -0.15449052E-25
    0.386222784999         0.11566227E-04      0.35374601E-07     -0.11082660E-20      0.41254176E-12     -0.12924697E-25
    0.389362807641         0.11897856E-04      0.30188605E-07     -0.77429506E-21      0.35923599E-12     -0.92138954E-26
    0.392502830284         0.12235421E-04      0.26866595E-07     -0.23050876E-20      0.32614543E-12     -0.27982474E-25
    0.395642852926         0.12578910E-04      0.28067915E-07     -0.39452010E-21      0.34751407E-12     -0.48846267E-26
    0.398782875568         0.12928306E-04      0.27413679E-07      0.18795357E-21      0.34609473E-12      0.23728936E-26
    0.401922898210         0.13283588E-04      0.24129757E-07     -0.68255000E-21      0.31056187E-12     -0.87847550E-26
    0.405062920853         0.13644729E-04      0.22359151E-07     -0.13884229E-20      0.29330555E-12     -0.18213221E-25
    0.408202943495         0.14011700E-04      0.23211529E-07     -0.10424429E-20      0.31027085E-12     -0.13934439E-25
    0.411342966137         0.14384465E-04      0.25235966E-07     -0.29186424E-20      0.34366249E-12     -0.39745968E-25
    0.414482988779         0.14762986E-04      0.25290743E-07      0.10664929E-20      0.35079358E-12      0.14792720E-25
    0.417623011422         0.15147219E-04      0.22223359E-07      0.93829346E-21      0.31389235E-12      0.13252863E-25
    0.420763034064         0.15537114E-04      0.20813270E-07      0.18695828E-21      0.29929237E-12      0.26884380E-26
    0.423903056706         0.15932619E-04      0.22358521E-07      0.25956357E-21      0.32725496E-12      0.37991541E-26
    0.427043079349         0.16333675E-04      0.20944934E-07      0.21650930E-20      0.31197067E-12      0.32248634E-25
    0.430183101991         0.16740219E-04      0.16971294E-07     -0.53971574E-21      0.25718480E-12     -0.81789099E-26
    0.433323124633         0.17152184E-04      0.15997494E-07     -0.11655953E-20      0.24659375E-12     -0.17967096E-25
    0.436463147275         0.17569496E-04      0.19822057E-07     -0.10129005E-20      0.31072986E-12     -0.15878192E-25
    0.439603169918         0.17992079E-04      0.22744204E-07     -0.30243149E-20      0.36250484E-12     -0.48202557E-25
    0.442743192560         0.18419849E-04      0.20684266E-07     -0.16032789E-20      0.33511728E-12     -0.25975612E-25
    0.445883215202         0.18852719E-04      0.17883950E-07     -0.88000856E-21      0.29446850E-12     -0.14489797E-25
    0.449023237844         0.19290597E-04      0.16791065E-07     -0.19283323E-20      0.28091675E-12     -0.32261256E-25
    0.452163260487         0.19733385E-04      0.15403142E-07     -0.24181094E-20      0.26178103E-12     -0.41096498E-25
    0.455303283129         0.20180982E-04      0.14048438E-07     -0.16876880E-20      0.24248904E-12     -0.29131056E-25
    0.458443305771         0.20633280E-04      0.12236659E-07     -0.27249991E-20      0.21447074E-12     -0.47760795E-25
    0.461583328413         0.21090167E-04      0.10587784E-07     -0.14662514E-20      0.18838987E-12     -0.26089208E-25
    0.464723351056         0.21551527E-04      0.12308104E-07     -0.13876637E-20      0.22227839E-12     -0.25060533E-25
    0.467863373698         0.22017237E-04      0.13321929E-07     -0.21430086E-20      0.24413690E-12     -0.39272651E-25
    0.471003396340         0.22487171E-04      0.12388577E-07     -0.12779742E-20      0.23033226E-12     -0.23760490E-25
    0.474143418983         0.22961198E-04      0.13145224E-07     -0.63080398E-21      0.24789931E-12     -0.11896022E-25
    0.477283441625         0.23439180E-04      0.14946545E-07     -0.10790699E-20      0.28584421E-12     -0.20636601E-25
    0.480423464267         0.23920978E-04      0.14605850E-07      0.11912262E-21      0.28320707E-12      0.23097847E-26
    0.483563486909         0.24406446E-04      0.12078550E-07     -0.38818893E-21      0.23740419E-12     -0.76298627E-26
    0.486703509552         0.24895433E-04      0.11212922E-07     -0.17418767E-20      0.22335544E-12     -0.34697258E-25
    0.489843532194         0.25387784E-04      0.13248754E-07     -0.99307250E-21      0.26740222E-12     -0.20043378E-25
    0.492983554836         0.25883341E-04      0.14196027E-07     -0.84511036E-21      0.29025336E-12     -0.17279209E-25
    0.496123577478         0.26381938E-04      0.12139888E-07     -0.14018736E-20      0.25139351E-12     -0.29030081E-25
    0.499263600121         0.26883410E-04      0.10404079E-07     -0.17233154E-20      0.21816276E-12     -0.36136140E-25
    0.502403622763         0.27387581E-04      0.11176171E-07     -0.15214835E-20      0.23725562E-12     -0.32299121E-25
    0.505543645405         0.27894277E-04      0.13243445E-07     -0.24600735E-20      0.28456402E-12     -0.52859992E-25
    0.508683668048         0.28403316E-04      0.15253366E-07     -0.15121134E-20      0.33167252E-12     -0.32879723E-25
