 
 # Omega; pulse ft; projected flux at t=    1000.25000000000     
    0.000000000000         0.20584359E-10      0.00000000E+00      0.00000000E+00      0.57287615E-07     -0.84702261E-20
    0.003140022642         0.15396239E-09      0.30284097E+01     -0.29134697E-12      0.57825452E-07     -0.55630751E-20
    0.006280045285         0.55451303E-09      0.16975651E+01     -0.20375242E-12      0.58371112E-07     -0.70060672E-20
    0.009420067927         0.12234864E-08      0.11650176E+01      0.76671085E-13      0.58925079E-07      0.38779239E-20
    0.012560090569         0.21629680E-08      0.88704409E+00      0.18226711E-13      0.59487412E-07      0.12223292E-20
    0.015700113211         0.33758810E-08      0.71724556E+00     -0.25162469E-12      0.60058539E-07     -0.21069787E-19
    0.018840135854         0.48659904E-08      0.60288887E+00     -0.77236451E-13      0.60638301E-07     -0.77684088E-20
    0.021980158496         0.66379073E-08      0.52062370E+00     -0.20801174E-12      0.61227545E-07     -0.24463058E-19
    0.025120181138         0.86970953E-08      0.45856360E+00     -0.17054293E-12      0.61826346E-07     -0.22993640E-19
    0.028260203780         0.11049877E-07      0.41002894E+00     -0.22708818E-13      0.62433717E-07     -0.34577947E-20
    0.031400226423         0.13703440E-07      0.37098805E+00     -0.10902493E-13      0.63049159E-07     -0.18528710E-20
    0.034540249065         0.16665851E-07      0.33887932E+00     -0.13188477E-12      0.63675102E-07     -0.24781022E-19
    0.037680271707         0.19946058E-07      0.31197479E+00      0.12968463E-13      0.64310977E-07      0.26733394E-20
    0.040820294349         0.23553907E-07      0.28908142E+00      0.15650031E-14      0.64957537E-07      0.35166129E-21
    0.043960316992         0.27500150E-07      0.26933891E+00     -0.78794721E-14      0.65613906E-07     -0.19195256E-20
    0.047100339634         0.31796458E-07      0.25212522E+00      0.26980713E-13      0.66281685E-07      0.70930115E-20
    0.050240362276         0.36455434E-07      0.23696381E+00     -0.54401739E-14      0.66959789E-07     -0.15372512E-20
    0.053380384919         0.41490627E-07      0.22349617E+00     -0.75328200E-13      0.67648928E-07     -0.22800713E-19
    0.056520407561         0.46916548E-07      0.21143880E+00      0.30561325E-13      0.68348343E-07      0.98790567E-20
    0.059660430203         0.52748678E-07      0.20057540E+00      0.17409749E-13      0.69059815E-07      0.59943244E-20
    0.062800452845         0.59003495E-07      0.19072682E+00      0.65321782E-14      0.69782941E-07      0.23899869E-20
    0.065940475488         0.65698477E-07      0.18175305E+00     -0.17313219E-13      0.70519217E-07     -0.67174368E-20
    0.069080498130         0.72852130E-07      0.17353212E+00     -0.43155542E-13      0.71267120E-07     -0.17723354E-19
    0.072220520772         0.80483997E-07      0.16597143E+00     -0.47943096E-13      0.72028570E-07     -0.20806429E-19
    0.075360543414         0.88614678E-07      0.15898452E+00     -0.18198092E-13      0.72801282E-07     -0.83331660E-20
    0.078500566057         0.97265847E-07      0.15250794E+00     -0.36678399E-13      0.73587251E-07     -0.17697850E-19
    0.081640588699         0.10646027E-06      0.14648406E+00     -0.39643736E-13      0.74386537E-07     -0.20131612E-19
    0.084780611341         0.11622182E-06      0.14086723E+00     -0.41559709E-14      0.75201006E-07     -0.22186366E-20
    0.087920633984         0.12657550E-06      0.13561282E+00     -0.31438470E-13      0.76029499E-07     -0.17625555E-19
    0.091060656626         0.13754746E-06      0.13068672E+00     -0.38877668E-13      0.76873353E-07     -0.22868862E-19
    0.094200679268         0.14916500E-06      0.12605458E+00     -0.12732986E-13      0.77730970E-07     -0.78517367E-20
    0.097340701910         0.16145662E-06      0.12169898E+00     -0.24703938E-13      0.78608740E-07     -0.15956958E-19
    0.100480724553         0.17445198E-06      0.11759171E+00     -0.41223377E-14      0.79504622E-07     -0.27871430E-20
    0.103620747195         0.18818198E-06      0.11369812E+00      0.22101997E-13      0.80409460E-07      0.15630950E-19
    0.106760769837         0.20267875E-06      0.11000261E+00      0.15231358E-13      0.81324621E-07      0.11260501E-19
    0.109900792479         0.21797565E-06      0.10650337E+00     -0.89488939E-14      0.82260821E-07     -0.69119256E-20
    0.113040815122         0.23410730E-06      0.10317842E+00      0.50894815E-15      0.83212979E-07      0.41046465E-21
    0.116180837764         0.25110960E-06      0.10001738E+00      0.32629270E-14      0.84183470E-07      0.27463679E-20
    0.119320860406         0.26901973E-06      0.97009176E-01      0.60441401E-14      0.85173228E-07      0.53067034E-20
    0.122460883048         0.28787616E-06      0.94143679E-01      0.14436385E-13      0.86183082E-07      0.13215674E-19
    0.125600905691         0.30771869E-06      0.91408777E-01      0.12638054E-13      0.87211056E-07      0.12057683E-19
    0.128740928333         0.32858842E-06      0.88796625E-01      0.24717923E-13      0.88258111E-07      0.24568020E-19
    0.131880950975         0.35052780E-06      0.86298986E-01     -0.41413455E-14      0.89324097E-07     -0.42865156E-20
    0.135020973618         0.37358059E-06      0.83910427E-01      0.60422463E-15      0.90411057E-07      0.65103456E-21
    0.138160996260         0.39779192E-06      0.81623011E-01     -0.51984094E-14      0.91517818E-07     -0.58285903E-20
    0.141301018902         0.42320825E-06      0.79431794E-01      0.38064262E-15      0.92645803E-07      0.44396506E-21
    0.144441041544         0.44987741E-06      0.77332103E-01      0.14716524E-14      0.93796350E-07      0.17849718E-20
    0.147581064187         0.47784857E-06      0.75319139E-01     -0.15493256E-13      0.94970241E-07     -0.19535516E-19
    0.150721086829         0.50717226E-06      0.73387393E-01     -0.11154665E-13      0.96166868E-07     -0.14617077E-19
    0.153861109471         0.53790037E-06      0.71534477E-01     -0.14969487E-13      0.97389231E-07     -0.20379918E-19
    0.157001132113         0.57008615E-06      0.69756811E-01     -0.12450791E-13      0.98638593E-07     -0.17605859E-19
    0.160141154756         0.60378418E-06      0.68048794E-01     -0.72732826E-14      0.99912943E-07     -0.10679029E-19
    0.163281177398         0.63905039E-06      0.66406654E-01     -0.49445604E-14      0.10121226E-06     -0.75361445E-20
    0.166421200040         0.67594205E-06      0.64827531E-01     -0.20629014E-14      0.10253753E-06     -0.32628854E-20
    0.169561222683         0.71451775E-06      0.63306409E-01      0.54620950E-14      0.10388592E-06      0.89633071E-20
    0.172701245325         0.75483738E-06      0.61841255E-01      0.83725196E-14      0.10525888E-06      0.14250715E-19
    0.175841267967         0.79696213E-06      0.60433786E-01     -0.72129382E-14      0.10666433E-06     -0.12730681E-19
    0.178981290609         0.84095448E-06      0.59081068E-01     -0.87260556E-14      0.10810250E-06     -0.15966340E-19
    0.182121313252         0.88687816E-06      0.57778491E-01     -0.58998388E-14      0.10957007E-06     -0.11188346E-19
    0.185261335894         0.93479813E-06      0.56524035E-01     -0.32336987E-14      0.11106795E-06     -0.63541160E-20
    0.188401358536         0.98478058E-06      0.55319095E-01     -0.90850423E-14      0.11260380E-06     -0.18492897E-19
    0.191541381178         0.10368929E-05      0.54159490E-01      0.11927082E-14      0.11417431E-06      0.25143633E-20
    0.194681403821         0.10912036E-05      0.53041822E-01      0.47150243E-14      0.11577700E-06      0.10291716E-19
    0.197821426463         0.11477823E-05      0.51964631E-01     -0.26350644E-14      0.11741311E-06     -0.59538786E-20
    0.200961449105         0.12066998E-05      0.50927380E-01      0.48230416E-14      0.11908591E-06      0.11277947E-19
    0.204101471747         0.12680280E-05      0.49928552E-01     -0.40460761E-14      0.12079646E-06     -0.97890218E-20
    0.207241494390         0.13318396E-05      0.48967130E-01      0.94848165E-15      0.12254692E-06      0.23737046E-20
    0.210381517032         0.13982084E-05      0.48041100E-01      0.34517933E-14      0.12433684E-06      0.89337061E-20
    0.213521539674         0.14672093E-05      0.47149754E-01      0.54640911E-14      0.12616891E-06      0.14621463E-19
    0.216661562317         0.15389178E-05      0.46291441E-01     -0.40505092E-14      0.12804328E-06     -0.11203809E-19
    0.219801584959         0.16134104E-05      0.45465435E-01      0.13079569E-14      0.12996246E-06      0.37387808E-20
    0.222941607601         0.16907644E-05      0.44670305E-01      0.42368112E-14      0.13192692E-06      0.12512774E-19
    0.226081630243         0.17710577E-05      0.43905235E-01     -0.14294952E-14      0.13393876E-06     -0.43608653E-20
    0.229221652886         0.18543692E-05      0.43168864E-01     -0.16058356E-14      0.13599838E-06     -0.50589942E-20
    0.232361675528         0.19407779E-05      0.42460750E-01     -0.16642737E-14      0.13810886E-06     -0.54132570E-20
    0.235501698170         0.20303639E-05      0.41779454E-01      0.29249128E-14      0.14027011E-06      0.98200862E-20
    0.238641720812         0.21232074E-05      0.41124541E-01      0.37635669E-14      0.14248517E-06      0.13039719E-19
    0.241781743455         0.22193892E-05      0.40495230E-01     -0.79689931E-16      0.14475594E-06     -0.28486295E-21
    0.244921766097         0.23189905E-05      0.39891723E-01     -0.10398732E-13      0.14708789E-06     -0.38341977E-19
    0.248061788739         0.24220926E-05      0.39311959E-01     -0.97068687E-14      0.14947828E-06     -0.36909024E-19
    0.251201811381         0.25287771E-05      0.38755118E-01     -0.95779273E-14      0.15192855E-06     -0.37547573E-19
    0.254341834024         0.26391259E-05      0.38220681E-01     -0.59530074E-14      0.15444124E-06     -0.24054773E-19
    0.257481856666         0.27532206E-05      0.37708842E-01     -0.32213302E-14      0.15702186E-06     -0.13413811E-19
    0.260621879308         0.28711432E-05      0.37218494E-01     -0.52808556E-14      0.15967073E-06     -0.22655352E-19
    0.263761901951         0.29929751E-05      0.36749420E-01      0.70166918E-14      0.16239179E-06      0.31006018E-19
    0.266901924593         0.31187981E-05      0.36301030E-01      0.29513671E-14      0.16518745E-06      0.13430164E-19
    0.270041947235         0.32486931E-05      0.35872812E-01      0.22005713E-14      0.16806041E-06      0.10309449E-19
    0.273181969877         0.33827410E-05      0.35464008E-01     -0.25051978E-14      0.17101220E-06     -0.12080399E-19
    0.276321992520         0.35210223E-05      0.35074279E-01     -0.61518098E-14      0.17404623E-06     -0.30526623E-19
    0.279462015162         0.36636166E-05      0.34703025E-01     -0.65597057E-14      0.17716466E-06     -0.33488379E-19
    0.282602037804         0.38106031E-05      0.34349976E-01     -0.49117926E-14      0.18037129E-06     -0.25791761E-19
    0.285742060446         0.39620603E-05      0.34014844E-01     -0.76601557E-14      0.18366988E-06     -0.41362526E-19
    0.288882083089         0.41180657E-05      0.33697464E-01     -0.83706791E-14      0.18706495E-06     -0.46468205E-19
    0.292022105731         0.42786958E-05      0.33397507E-01      0.20899311E-14      0.19056023E-06      0.11924775E-19
    0.295162128373         0.44440263E-05      0.33114718E-01     -0.16850191E-14      0.19415992E-06     -0.98796911E-20
    0.298302151016         0.46141316E-05      0.32849041E-01     -0.14319909E-16      0.19786949E-06     -0.86257409E-22
    0.301442173658         0.47890848E-05      0.32600056E-01      0.72945097E-15      0.20169234E-06      0.45130191E-20
    0.304582196300         0.49689578E-05      0.32367631E-01     -0.26978247E-14      0.20563368E-06     -0.17139457E-19
    0.307722218942         0.51538208E-05      0.32151366E-01     -0.27466248E-14      0.20969710E-06     -0.17913991E-19
    0.310862241585         0.53437427E-05      0.31951180E-01      0.22251157E-14      0.21388829E-06      0.14895419E-19
    0.314002264227         0.55387906E-05      0.31766910E-01     -0.53664789E-15      0.21821253E-06     -0.36863294E-20
    0.317142286869         0.57390298E-05      0.31598556E-01      0.42153561E-15      0.22267636E-06      0.29705793E-20
    0.320282309511         0.59445238E-05      0.31446108E-01     -0.15711017E-14      0.22728646E-06     -0.11355622E-19
    0.323422332154         0.61553339E-05      0.31309444E-01     -0.46268398E-14      0.23204890E-06     -0.34291669E-19
    0.326562354796         0.63715196E-05      0.31188633E-01     -0.38287669E-14      0.23697132E-06     -0.29090982E-19
    0.329702377438         0.65931380E-05      0.31083683E-01     -0.19689541E-14      0.24206115E-06     -0.15333038E-19
    0.332842400080         0.68202438E-05      0.30994755E-01     -0.31430679E-14      0.24732727E-06     -0.25080579E-19
    0.335982422723         0.70528895E-05      0.30921672E-01     -0.89211420E-15      0.25277611E-06     -0.72927868E-20
    0.339122445365         0.72911249E-05      0.30864706E-01     -0.33606320E-14      0.25841796E-06     -0.28137241E-19
    0.342262468007         0.75349972E-05      0.30823874E-01     -0.52425081E-14      0.26426131E-06     -0.44945423E-19
    0.345402490650         0.77845510E-05      0.30799586E-01     -0.35090270E-14      0.27031835E-06     -0.30797635E-19
    0.348542513292         0.80398277E-05      0.30791815E-01     -0.44640793E-15      0.27659786E-06     -0.40100097E-20
    0.351682535934         0.83008661E-05      0.30800997E-01     -0.41835643E-14      0.28311307E-06     -0.38454007E-19
    0.354822558576         0.85677017E-05      0.30827114E-01     -0.46925969E-14      0.28987351E-06     -0.44125426E-19
    0.357962581219         0.88403671E-05      0.30870886E-01     -0.21722455E-14      0.29689598E-06     -0.20891235E-19
    0.361102603861         0.91188913E-05      0.30932298E-01     -0.34614452E-14      0.30419086E-06     -0.34040146E-19
    0.364242626503         0.94033002E-05      0.31012202E-01     -0.50526185E-14      0.31177744E-06     -0.50795891E-19
    0.367382649145         0.96936162E-05      0.31110499E-01     -0.77606056E-15      0.31966618E-06     -0.79741671E-20
    0.370522671788         0.99898580E-05      0.31228347E-01     -0.13405860E-14      0.32788086E-06     -0.14075433E-19
    0.373662694430         0.10292041E-04      0.31365623E-01     -0.10303413E-14      0.33643271E-06     -0.11051607E-19
    0.376802717072         0.10600176E-04      0.31523793E-01     -0.20247741E-14      0.34535048E-06     -0.22181871E-19
    0.379942739715         0.10914271E-04      0.31702565E-01     -0.20633239E-14      0.35464476E-06     -0.23081634E-19
    0.383082762357         0.11234330E-04      0.31903871E-01     -0.30791759E-14      0.36435145E-06     -0.35165081E-19
    0.386222784999         0.11560353E-04      0.32127179E-01     -0.31576512E-14      0.37447974E-06     -0.36806108E-19
    0.389362807641         0.11892334E-04      0.32375085E-01     -0.35818411E-14      0.38507568E-06     -0.42603129E-19
    0.392502830284         0.12230266E-04      0.32646635E-01     -0.45743900E-14      0.39614491E-06     -0.55507139E-19
    0.395642852926         0.12574136E-04      0.32945363E-01      0.90920168E-16      0.40774783E-06      0.11252722E-20
    0.398782875568         0.12923926E-04      0.33269610E-01     -0.17554760E-14      0.41988292E-06     -0.22155186E-19
    0.401922898210         0.13279615E-04      0.33624277E-01     -0.11201706E-14      0.43263160E-06     -0.14412836E-19
    0.405062920853         0.13641178E-04      0.34006559E-01     -0.17872725E-14      0.44597921E-06     -0.23439196E-19
    0.408202943495         0.14008583E-04      0.34423200E-01     -0.31878812E-14      0.46003605E-06     -0.42603253E-19
    0.411342966137         0.14381797E-04      0.34869770E-01     -0.39582052E-14      0.47476719E-06     -0.53892697E-19
    0.414482988779         0.14760779E-04      0.35355807E-01     -0.27331911E-14      0.49032706E-06     -0.37904877E-19
    0.417623011422         0.15145484E-04      0.35874154E-01     -0.33174433E-14      0.50664406E-06     -0.46851641E-19
    0.420763034064         0.15535866E-04      0.36438429E-01     -0.34250236E-14      0.52393821E-06     -0.49247477E-19
    0.423903056706         0.15931868E-04      0.37037158E-01     -0.34379926E-14      0.54207621E-06     -0.50318495E-19
    0.427043079349         0.16333434E-04      0.37690487E-01     -0.12759302E-14      0.56138409E-06     -0.19004449E-19
    0.430183101991         0.16740499E-04      0.38379278E-01     -0.33850249E-14      0.58161339E-06     -0.51297886E-19
    0.433323124633         0.17152996E-04      0.39134672E-01     -0.16089208E-14      0.60327087E-06     -0.24801921E-19
    0.436463147275         0.17570851E-04      0.39922928E-01     -0.30763375E-14      0.62587866E-06     -0.48228275E-19
    0.439603169918         0.17993986E-04      0.40795841E-01     -0.10561550E-14      0.65028691E-06     -0.16835141E-19
    0.442743192560         0.18422319E-04      0.41687864E-01     -0.50643629E-15      0.67549884E-06     -0.82061562E-20
    0.445883215202         0.18855762E-04      0.42694880E-01     -0.27147892E-14      0.70310682E-06     -0.44707628E-19
    0.449023237844         0.19294222E-04      0.43666927E-01     -0.39910643E-14      0.73069077E-06     -0.66783583E-19
    0.452163260487         0.19737601E-04      0.44816507E-01     -0.23029974E-14      0.76183274E-06     -0.39148496E-19
    0.455303283129         0.20185796E-04      0.45614639E-01     -0.53859636E-14      0.78753865E-06     -0.92988887E-19
    0.458443305771         0.20638700E-04      0.46730829E-01     -0.64198588E-14      0.81926185E-06     -0.11254980E-18
    0.461583328413         0.21096200E-04      0.51250394E-01     -0.34503245E-14      0.91216600E-06     -0.61409648E-19
    0.464723351056         0.21558180E-04      0.53459241E-01     -0.45539824E-14      0.96574601E-06     -0.82268103E-19
    0.467863373698         0.22024515E-04      0.53795005E-01     -0.41035971E-14      0.98617004E-06     -0.75227143E-19
    0.471003396340         0.22495080E-04      0.55657083E-01      0.20792975E-14      0.10351576E-05      0.38672539E-19
    0.474143418983         0.22969743E-04      0.57611038E-01      0.75771461E-16      0.10868626E-05      0.14294686E-20
    0.477283441625         0.23448366E-04      0.59935802E-01      0.21584071E-15      0.11466875E-05      0.41294491E-20
    0.480423464267         0.23930807E-04      0.62490481E-01     -0.26690725E-14      0.12121868E-05     -0.51774517E-19
    0.483563486909         0.24416922E-04      0.65343722E-01     -0.72206916E-14      0.12848837E-05     -0.14198379E-18
    0.486703509552         0.24906558E-04      0.68541784E-01     -0.69600157E-14      0.13659260E-05     -0.13870177E-18
    0.489843532194         0.25399560E-04      0.72081664E-01     -0.23176171E-14      0.14555132E-05     -0.46798620E-19
    0.492983554836         0.25895769E-04      0.76111172E-01     -0.40398409E-14      0.15569237E-05     -0.82638643E-19
    0.496123577478         0.26395019E-04      0.80584630E-01     -0.37075978E-14      0.16695786E-05     -0.76815219E-19
    0.499263600121         0.26897142E-04      0.85760270E-01     -0.19076895E-14      0.17992227E-05     -0.40022707E-19
    0.502403622763         0.27401965E-04      0.91563745E-01     -0.37013267E-14      0.19448004E-05     -0.78615630E-19
    0.505543645405         0.27909310E-04      0.98416232E-01     -0.20389291E-14      0.21158248E-05     -0.43834405E-19
    0.508683668048         0.28418995E-04      0.10624186E+00     -0.12336872E-13      0.23114214E-05     -0.26840372E-18
