 
 # Omega; pulse ft; proj flux t=    1000.25000000000     
    0.000000000000         0.45239627E-10      0.00000000E+00      0.00000000E+00      0.66322201E-07      0.59292306E-20
    0.003140022642         0.18021395E-09      0.29957872E+01     -0.45473296E-12      0.66955943E-07     -0.10163297E-19
    0.006280045285         0.58555420E-09      0.18617749E+01     -0.38399217E-12      0.67601141E-07     -0.13942775E-19
    0.009420067927         0.12625127E-08      0.13078123E+01      0.11330795E-12      0.68257390E-07      0.59137727E-20
    0.012560090569         0.22131784E-08      0.10043940E+01     -0.17824891E-12      0.68920801E-07     -0.12231313E-19
    0.015700113211         0.34404797E-08      0.81556325E+00     -0.26182935E-12      0.69597944E-07     -0.22343803E-19
    0.018840135854         0.49481878E-08      0.68725094E+00     -0.46171683E-13      0.70291049E-07     -0.47223741E-20
    0.021980158496         0.67409214E-08      0.59439964E+00     -0.52015083E-13      0.70988750E-07     -0.62121264E-20
    0.025120181138         0.88241530E-08      0.52412413E+00     -0.21846128E-12      0.71697986E-07     -0.29884588E-19
    0.028260203780         0.11204215E-07      0.46905465E+00      0.54517772E-13      0.72418933E-07      0.84171831E-20
    0.031400226423         0.13888307E-07      0.42468248E+00     -0.88151053E-13      0.73148160E-07     -0.15183314E-19
    0.034540249065         0.16884505E-07      0.38815890E+00     -0.12327588E-12      0.73891582E-07     -0.23467321E-19
    0.037680271707         0.20201772E-07      0.35753203E+00      0.58625069E-13      0.74647100E-07      0.12239998E-19
    0.040820294349         0.23849967E-07      0.33145354E+00      0.14642953E-13      0.75414846E-07      0.33316767E-20
    0.043960316992         0.27839854E-07      0.30896721E+00     -0.43628019E-14      0.76197562E-07     -0.10759552E-20
    0.047100339634         0.32183120E-07      0.28934283E+00      0.18809745E-13      0.76990897E-07      0.50050631E-20
    0.050240362276         0.36892382E-07      0.27205280E+00     -0.43239131E-13      0.77796432E-07     -0.12364696E-19
    0.053380384919         0.41981203E-07      0.25669581E+00     -0.70040463E-13      0.78616646E-07     -0.21450861E-19
    0.056520407561         0.47464107E-07      0.24294871E+00      0.55339511E-13      0.79450597E-07      0.18097471E-19
    0.059660430203         0.53356591E-07      0.23055103E+00      0.12925122E-13      0.80295516E-07      0.45015169E-20
    0.062800452845         0.59675142E-07      0.21932245E+00      0.53816248E-14      0.81158929E-07      0.19914373E-20
    0.065940475488         0.66437253E-07      0.20910146E+00     -0.19426295E-13      0.82042558E-07     -0.76220558E-20
    0.069080498130         0.73661441E-07      0.19969510E+00     -0.46059419E-13      0.82922942E-07     -0.19126070E-19
    0.072220520772         0.81367256E-07      0.19108561E+00     -0.13312357E-13      0.83837745E-07     -0.58407223E-20
    0.075360543414         0.89575309E-07      0.18320459E+00     -0.18133956E-13      0.84801433E-07     -0.83938153E-20
    0.078500566057         0.98307280E-07      0.17581812E+00     -0.47460045E-13      0.85743077E-07     -0.23145341E-19
    0.081640588699         0.10758594E-06      0.16888933E+00     -0.82124475E-14      0.86671067E-07     -0.42144852E-20
    0.084780611341         0.11743516E-06      0.16246023E+00     -0.95604389E-14      0.87633711E-07     -0.51570575E-20
    0.087920633984         0.12787995E-06      0.15646327E+00     -0.30228425E-13      0.88623028E-07     -0.17121811E-19
    0.091060656626         0.13894644E-06      0.15085206E+00     -0.25871625E-13      0.89637649E-07     -0.15373152E-19
    0.094200679268         0.15066195E-06      0.14555545E+00     -0.41848189E-14      0.90656834E-07     -0.26064461E-20
    0.097340701910         0.16305493E-06      0.14058369E+00     -0.19538202E-13      0.91705829E-07     -0.12745199E-19
    0.100480724553         0.17615507E-06      0.13593031E+00     -0.10768853E-13      0.92800701E-07     -0.73519813E-20
    0.103620747195         0.18999324E-06      0.13148024E+00      0.13391962E-13      0.93880297E-07      0.95622079E-20
    0.106760769837         0.20460153E-06      0.12723615E+00      0.10000727E-13      0.94957710E-07      0.74636507E-20
    0.109900792479         0.22001329E-06      0.12324028E+00     -0.10053307E-13      0.96077859E-07     -0.78375363E-20
    0.113040815122         0.23626311E-06      0.11944766E+00      0.47907857E-14      0.97221166E-07      0.38993294E-20
    0.116180837764         0.25338685E-06      0.11585335E+00      0.71720288E-14      0.98396734E-07      0.60913580E-20
    0.119320860406         0.27142164E-06      0.11242631E+00     -0.64627679E-14      0.99590654E-07     -0.57249170E-20
    0.122460883048         0.29040593E-06      0.10914546E+00      0.19751405E-13      0.10079438E-06      0.18240160E-19
    0.125600905691         0.31037944E-06      0.10602434E+00      0.17590953E-13      0.10203010E-06      0.16928251E-19
    0.128740928333         0.33138323E-06      0.10304218E+00      0.18683555E-13      0.10328838E-06      0.18728196E-19
    0.131880950975         0.35345968E-06      0.10018446E+00     -0.10315672E-13      0.10456365E-06     -0.10766583E-19
    0.135020973618         0.37665248E-06      0.97459282E-01     -0.14302972E-13      0.10587303E-06     -0.15537761E-19
    0.138160996260         0.40100669E-06      0.94849396E-01     -0.99536527E-14      0.10720703E-06     -0.11250484E-19
    0.141301018902         0.42656868E-06      0.92346062E-01      0.51279349E-14      0.10856369E-06      0.60284923E-20
    0.144441041544         0.45338618E-06      0.89952937E-01     -0.85089034E-14      0.10995515E-06     -0.10400969E-19
    0.147581064187         0.48150828E-06      0.87672775E-01      0.68384770E-14      0.11139365E-06      0.86887052E-20
    0.150721086829         0.51098541E-06      0.85475310E-01     -0.13612036E-13      0.11284900E-06     -0.17971326E-19
    0.153861109471         0.54186934E-06      0.83350670E-01     -0.91229687E-14      0.11431346E-06     -0.12511934E-19
    0.157001132113         0.57421319E-06      0.81312392E-01     -0.13748090E-13      0.11581096E-06     -0.19581019E-19
    0.160141154756         0.60807142E-06      0.79358966E-01     -0.11191452E-13      0.11734651E-06     -0.16548575E-19
    0.163281177398         0.64349984E-06      0.77483628E-01     -0.14145836E-13      0.11891724E-06     -0.21710182E-19
    0.166421200040         0.68055556E-06      0.75677606E-01     -0.55370707E-14      0.12051604E-06     -0.88177453E-20
    0.169561222683         0.71929702E-06      0.73942747E-01      0.97079849E-14      0.12215179E-06      0.16037378E-19
    0.172701245325         0.75978397E-06      0.72281319E-01      0.31499024E-14      0.12383496E-06      0.53965263E-20
    0.175841267967         0.80207741E-06      0.70674899E-01      0.71881494E-14      0.12554032E-06      0.12768360E-19
    0.178981290609         0.84623967E-06      0.69126906E-01      0.30576235E-14      0.12727860E-06      0.56297912E-20
    0.182121313252         0.89233427E-06      0.67642738E-01     -0.60563004E-14      0.12906560E-06     -0.11555713E-19
    0.185261335894         0.94042601E-06      0.66214007E-01     -0.48773902E-14      0.13089174E-06     -0.96416172E-20
    0.188401358536         0.99058087E-06      0.64838131E-01     -0.74609094E-14      0.13275746E-06     -0.15276372E-19
    0.191541381178         0.10428660E-05      0.63511636E-01      0.23002200E-14      0.13466097E-06      0.48770569E-20
    0.194681403821         0.10973497E-05      0.62234698E-01      0.55553780E-14      0.13660787E-06      0.12194297E-19
    0.197821426463         0.11541015E-05      0.61008516E-01      0.24277430E-14      0.13860653E-06      0.55156403E-20
    0.200961449105         0.12131919E-05      0.59826514E-01     -0.65395370E-14      0.14064781E-06     -0.15373979E-19
    0.204101471747         0.12746923E-05      0.58687841E-01     -0.73926166E-14      0.14273482E-06     -0.17979598E-19
    0.207241494390         0.13386756E-05      0.57592981E-01     -0.90627165E-15      0.14487409E-06     -0.22797098E-20
    0.210381517032         0.14052151E-05      0.56539241E-01      0.48159635E-14      0.14706446E-06      0.12526823E-19
    0.213521539674         0.14743854E-05      0.55524338E-01      0.32028946E-14      0.14930531E-06      0.86126045E-20
    0.216661562317         0.15462618E-05      0.54547548E-01      0.17381590E-15      0.15159991E-06      0.48307348E-21
    0.219801584959         0.16209206E-05      0.53611462E-01      0.38170541E-14      0.15396114E-06      0.10961797E-19
    0.222941607601         0.16984387E-05      0.52706019E-01      0.68142844E-14      0.15636571E-06      0.20216294E-19
    0.226081630243         0.17788939E-05      0.51835716E-01     -0.17244791E-14      0.15883142E-06     -0.52840298E-20
    0.229221652886         0.18623645E-05      0.51013134E-01     -0.27043149E-14      0.16140374E-06     -0.85563563E-20
    0.232361675528         0.19489296E-05      0.50215311E-01      0.57537963E-15      0.16401756E-06      0.18793544E-20
    0.235501698170         0.20386687E-05      0.49434580E-01      0.47376447E-14      0.16665026E-06      0.15971203E-19
    0.238641720812         0.21316617E-05      0.48690976E-01      0.62588101E-14      0.16937252E-06      0.21771394E-19
    0.241781743455         0.22279893E-05      0.47983027E-01      0.12521258E-14      0.17218677E-06      0.44932451E-20
    0.244921766097         0.23277321E-05      0.47314752E-01     -0.84982594E-14      0.17511556E-06     -0.31452716E-19
    0.248061788739         0.24309714E-05      0.46698538E-01     -0.86734425E-14      0.17821563E-06     -0.33100459E-19
    0.251201811381         0.25377883E-05      0.46096164E-01     -0.11225905E-13      0.18135100E-06     -0.44164827E-19
    0.254341834024         0.26482643E-05      0.45467573E-01     -0.34802730E-14      0.18436048E-06     -0.14111701E-19
    0.257481856666         0.27624808E-05      0.44869277E-01     -0.29174591E-14      0.18746676E-06     -0.12189334E-19
    0.260621879308         0.28805194E-05      0.44320965E-01     -0.33393941E-14      0.19076192E-06     -0.14373090E-19
    0.263761901951         0.30024614E-05      0.43806949E-01      0.78887160E-14      0.19419182E-06      0.34969888E-19
    0.266901924593         0.31283879E-05      0.43408722E-01      0.78628238E-14      0.19813830E-06      0.35889712E-19
    0.270041947235         0.32583797E-05      0.43044894E-01      0.42016838E-14      0.20226216E-06      0.19743147E-19
    0.273181969877         0.33925174E-05      0.42526853E-01     -0.29939535E-14      0.20566285E-06     -0.14478969E-19
    0.276321992520         0.35308809E-05      0.41963779E-01     -0.39722392E-14      0.20881647E-06     -0.19766308E-19
    0.279462015162         0.36735498E-05      0.41510929E-01     -0.54539879E-14      0.21249472E-06     -0.27919000E-19
    0.282602037804         0.38206029E-05      0.41119546E-01     -0.60420637E-14      0.21648483E-06     -0.31810058E-19
    0.285742060446         0.39721182E-05      0.40750574E-01     -0.44557143E-14      0.22059937E-06     -0.24120587E-19
    0.288882083089         0.41281729E-05      0.40416187E-01     -0.53879627E-14      0.22491331E-06     -0.29983643E-19
    0.292022105731         0.42888434E-05      0.40101069E-01      0.17054571E-14      0.22935222E-06      0.97541138E-20
    0.295162128373         0.44542050E-05      0.39789789E-01      0.25133468E-14      0.23383189E-06      0.14770137E-19
    0.298302151016         0.46243316E-05      0.39494974E-01      0.28938708E-15      0.23842783E-06      0.17470055E-20
    0.301442173658         0.47992961E-05      0.39231367E-01      0.10011453E-14      0.24323693E-06      0.62071633E-20
    0.304582196300         0.49791702E-05      0.38989429E-01      0.15072432E-15      0.24821148E-06      0.95952951E-21
    0.307722218942         0.51640238E-05      0.38764575E-01     -0.44483568E-14      0.25333019E-06     -0.29070435E-19
    0.310862241585         0.53539254E-05      0.38562794E-01      0.15993609E-14      0.25863981E-06      0.10726878E-19
    0.314002264227         0.55489418E-05      0.38382121E-01      0.35444245E-14      0.26413680E-06      0.24391902E-19
    0.317142286869         0.57491382E-05      0.38218974E-01      0.15841850E-15      0.26980511E-06      0.11183482E-20
    0.320282309511         0.59545777E-05      0.38073977E-01     -0.29942887E-14      0.27565686E-06     -0.21678749E-19
    0.323422332154         0.61653214E-05      0.37949909E-01     -0.16134691E-15      0.28172086E-06     -0.11977575E-20
    0.326562354796         0.63814285E-05      0.37848020E-01     -0.51601645E-14      0.28801659E-06     -0.39267918E-19
    0.329702377438         0.66029559E-05      0.37764695E-01     -0.15485112E-14      0.29452682E-06     -0.12076837E-19
    0.332842400080         0.68299581E-05      0.37702210E-01     -0.94156186E-15      0.30127892E-06     -0.75240349E-20
    0.335982422723         0.70624875E-05      0.37663061E-01     -0.15141344E-14      0.30830409E-06     -0.12394474E-19
    0.339122445365         0.73005935E-05      0.37641816E-01     -0.28826833E-14      0.31556929E-06     -0.24166909E-19
    0.342262468007         0.75443232E-05      0.37641746E-01     -0.20876392E-14      0.32311216E-06     -0.17920041E-19
    0.345402490650         0.77937209E-05      0.37671177E-01     -0.37632039E-14      0.33101763E-06     -0.33067372E-19
    0.348542513292         0.80488281E-05      0.37717477E-01     -0.11942889E-14      0.33918925E-06     -0.10740113E-19
    0.351682535934         0.83096834E-05      0.37773368E-01     -0.25789588E-14      0.34756971E-06     -0.23730157E-19
    0.354822558576         0.85763220E-05      0.37852562E-01     -0.50393663E-14      0.35629332E-06     -0.47433845E-19
    0.357962581219         0.88487764E-05      0.37961784E-01     -0.20127659E-14      0.36543887E-06     -0.19375879E-19
    0.361102603861         0.91270757E-05      0.38095469E-01     -0.27900684E-14      0.37497033E-06     -0.27462396E-19
    0.364242626503         0.94112456E-05      0.38253758E-01     -0.36185288E-14      0.38490450E-06     -0.36409182E-19
    0.367382649145         0.97013084E-05      0.38437086E-01      0.70657531E-15      0.39526164E-06      0.72659545E-20
    0.370522671788         0.99972828E-05      0.38647121E-01      0.11752012E-14      0.40607559E-06      0.12348152E-19
    0.373662694430         0.10299184E-04      0.38886385E-01     -0.21023213E-14      0.41739111E-06     -0.22565487E-19
    0.376802717072         0.10607023E-04      0.39154272E-01     -0.89582296E-15      0.42922124E-06     -0.98202882E-20
    0.379942739715         0.10920809E-04      0.39447883E-01     -0.34407580E-15      0.44155305E-06     -0.38513529E-20
    0.383082762357         0.11240543E-04      0.39773890E-01     -0.24543362E-14      0.45448055E-06     -0.28044731E-19
    0.386222784999         0.11566227E-04      0.40133659E-01     -0.34749547E-14      0.46804232E-06     -0.40525233E-19
    0.389362807641         0.11897856E-04      0.40528382E-01     -0.30730132E-14      0.48227645E-06     -0.36568001E-19
    0.392502830284         0.12235421E-04      0.40957019E-01     -0.41320052E-14      0.49719531E-06     -0.50160232E-19
    0.395642852926         0.12578910E-04      0.41424497E-01      0.15606695E-15      0.51288440E-06      0.19322939E-20
    0.398782875568         0.12928306E-04      0.41931127E-01      0.61850707E-16      0.52937595E-06      0.78085850E-21
    0.401922898210         0.13283588E-04      0.42482037E-01      0.29718233E-15      0.54676476E-06      0.38248832E-20
    0.405062920853         0.13644729E-04      0.43074148E-01     -0.50849408E-15      0.56504321E-06     -0.66703845E-20
    0.408202943495         0.14011700E-04      0.43718070E-01     -0.20128920E-14      0.58438386E-06     -0.26906531E-19
    0.411342966137         0.14384465E-04      0.44410125E-01     -0.21769886E-14      0.60477549E-06     -0.29646153E-19
    0.414482988779         0.14762986E-04      0.45161015E-01     -0.36468757E-14      0.62640288E-06     -0.50583749E-19
    0.417623011422         0.15147219E-04      0.45963948E-01     -0.24587430E-14      0.64921470E-06     -0.34728351E-19
    0.420763034064         0.15537114E-04      0.46837157E-01     -0.24261096E-14      0.67351280E-06     -0.34887170E-19
    0.423903056706         0.15932619E-04      0.47769295E-01     -0.29966061E-14      0.69918483E-06     -0.43860425E-19
    0.427043079349         0.16333675E-04      0.48785279E-01      0.17771151E-15      0.72664713E-06      0.26469780E-20
    0.430183101991         0.16740219E-04      0.49865215E-01     -0.25624187E-14      0.75566279E-06     -0.38831167E-19
    0.433323124633         0.17152184E-04      0.51048596E-01     -0.20537681E-14      0.78688979E-06     -0.31657856E-19
    0.436463147275         0.17569496E-04      0.52297652E-01     -0.24146383E-14      0.81981615E-06     -0.37851785E-19
    0.439603169918         0.17992079E-04      0.53677869E-01     -0.84200606E-15      0.85553609E-06     -0.13420178E-19
    0.442743192560         0.18419849E-04      0.55112051E-01     -0.66331474E-15      0.89290095E-06     -0.10746731E-19
    0.445883215202         0.18852719E-04      0.56721760E-01     -0.27923814E-14      0.93395318E-06     -0.45978007E-19
    0.449023237844         0.19290597E-04      0.58315002E-01     -0.44980864E-14      0.97561773E-06     -0.75253583E-19
    0.452163260487         0.19733385E-04      0.60159596E-01     -0.22926052E-14      0.10224305E-05     -0.38963516E-19
    0.455303283129         0.20180982E-04      0.61460658E-01     -0.61033650E-14      0.10608678E-05     -0.10534972E-18
    0.458443305771         0.20633280E-04      0.63034077E-01     -0.68927223E-14      0.11047921E-05     -0.12080807E-18
    0.461583328413         0.21090167E-04      0.69112583E-01     -0.48229291E-14      0.12297295E-05     -0.85815025E-19
    0.464723351056         0.21551527E-04      0.73308533E-01     -0.48690458E-14      0.13239166E-05     -0.87932608E-19
    0.467863373698         0.22017237E-04      0.75166085E-01     -0.45556012E-14      0.13774893E-05     -0.83485685E-19
    0.471003396340         0.22487171E-04      0.78527984E-01      0.15632172E-14      0.14600165E-05      0.29063818E-19
    0.474143418983         0.22961198E-04      0.82303737E-01      0.65688422E-15      0.15521258E-05      0.12387857E-19
    0.477283441625         0.23439180E-04      0.86671060E-01      0.79723107E-15      0.16575350E-05      0.15246593E-19
    0.480423464267         0.23920978E-04      0.91629640E-01     -0.33636729E-14      0.17766965E-05     -0.65221537E-19
    0.483563486909         0.24406446E-04      0.97341325E-01     -0.79833458E-14      0.19132461E-05     -0.15691285E-18
    0.486703509552         0.24895433E-04      0.10392311E+00     -0.93337698E-14      0.20700932E-05     -0.18592373E-18
    0.489843532194         0.25387784E-04      0.11158391E+00     -0.43908218E-14      0.22521201E-05     -0.88620822E-19
    0.492983554836         0.25883341E-04      0.12151693E+00     -0.55305858E-14      0.24845470E-05     -0.11307890E-18
    0.496123577478         0.26381938E-04      0.13424454E+00     -0.60537243E-14      0.27799438E-05     -0.12536088E-18
    0.499263600121         0.26883410E-04      0.14687334E+00     -0.45090473E-14      0.30797818E-05     -0.94550053E-19
    0.502403622763         0.27387581E-04      0.16618211E+00     -0.60648551E-14      0.35278307E-05     -0.12874901E-18
    0.505543645405         0.27894277E-04      0.19701191E+00     -0.55287147E-14      0.42332262E-05     -0.11879637E-18
    0.508683668048         0.28403316E-04      0.22580462E+00     -0.24015387E-13      0.49099449E-05     -0.52219581E-18
