 
 # six columns.
 # Omega (column 1); |pulse ft|^2 (2); cross section (Mb) (3); flux (column 5)
 
  0.0000      0.205844E-10      0.000000E+00      0.000000E+00      0.135150E-06      0.101644E-19
  0.0031      0.153962E-09      0.357051E+01      0.987721E-12      0.136353E-06      0.377197E-19
  0.0063      0.554513E-09      0.200048E+01      0.292637E-12      0.137574E-06      0.201248E-19
  0.0094      0.122349E-08      0.137225E+01      0.255212E-12      0.138813E-06      0.258166E-19
  0.0126      0.216297E-08      0.104433E+01      0.199169E-12      0.140070E-06      0.267135E-19
  0.0157      0.337588E-08      0.844006E+00      0.465539E-13      0.141346E-06      0.779638E-20
  0.0188      0.486599E-08      0.709090E+00     -0.740173E-13      0.142640E-06     -0.148893E-19
  0.0220      0.663791E-08      0.612027E+00      0.501865E-13      0.143954E-06      0.118043E-19
  0.0251      0.869710E-08      0.538798E+00     -0.572511E-13      0.145288E-06     -0.154379E-19
  0.0283      0.110499E-07      0.481525E+00      0.388610E-13      0.146640E-06      0.118345E-19
  0.0314      0.137034E-07      0.435462E+00      0.101256E-12      0.148013E-06      0.344169E-19
  0.0345      0.166659E-07      0.397570E+00      0.174440E-13      0.149406E-06      0.655541E-20
  0.0377      0.199461E-07      0.365819E+00      0.100514E-12      0.150821E-06      0.414401E-19
  0.0408      0.235539E-07      0.338795E+00      0.872125E-13      0.152257E-06      0.391939E-19
  0.0440      0.275001E-07      0.315494E+00      0.807195E-13      0.153716E-06      0.393283E-19
  0.0471      0.317965E-07      0.295172E+00      0.989524E-13      0.155197E-06      0.520276E-19
  0.0502      0.364554E-07      0.277273E+00      0.509249E-13      0.156700E-06      0.287801E-19
  0.0534      0.414906E-07      0.261373E+00      0.500788E-14      0.158227E-06      0.303162E-20
  0.0565      0.469165E-07      0.247141E+00      0.738505E-13      0.159778E-06      0.477449E-19
  0.0597      0.527487E-07      0.234317E+00      0.782931E-13      0.161355E-06      0.539140E-19
  0.0628      0.590035E-07      0.222690E+00      0.181068E-13      0.162955E-06      0.132498E-19
  0.0659      0.656985E-07      0.212089E+00      0.912043E-14      0.164579E-06      0.707736E-20
  0.0691      0.728521E-07      0.202381E+00      0.476346E-14      0.166230E-06      0.391256E-20
  0.0722      0.804840E-07      0.193452E+00     -0.310816E-13      0.167909E-06     -0.269777E-19
  0.0754      0.886147E-07      0.185204E+00      0.280084E-14      0.169615E-06      0.256509E-20
  0.0785      0.972658E-07      0.177559E+00      0.432521E-14      0.171350E-06      0.417395E-20
  0.0816      0.106460E-06      0.170450E+00     -0.120091E-13      0.173113E-06     -0.121968E-19
  0.0848      0.116222E-06      0.163822E+00      0.272360E-13      0.174910E-06      0.290795E-19
  0.0879      0.126576E-06      0.157627E+00     -0.217921E-14      0.176743E-06     -0.244349E-20
  0.0911      0.137547E-06      0.151808E+00     -0.201513E-14      0.178595E-06     -0.237070E-20
  0.0942      0.149165E-06      0.146331E+00      0.135054E-13      0.180469E-06      0.166561E-19
  0.0973      0.161457E-06      0.141176E+00      0.258542E-13      0.182379E-06      0.333999E-19
  0.1005      0.174452E-06      0.136314E+00      0.681215E-14      0.184326E-06      0.921148E-20
  0.1036      0.188182E-06      0.131718E+00      0.418503E-13      0.186307E-06      0.591947E-19
  0.1068      0.202679E-06      0.127367E+00      0.538111E-13      0.188324E-06      0.795648E-19
  0.1099      0.217976E-06      0.123240E+00      0.217479E-13      0.190375E-06      0.335951E-19
  0.1130      0.234107E-06      0.119320E+00      0.229622E-13      0.192462E-06      0.370378E-19
  0.1162      0.251110E-06      0.115590E+00      0.246054E-13      0.194582E-06      0.414202E-19
  0.1193      0.269020E-06      0.112039E+00      0.651670E-14      0.196739E-06      0.114432E-19
  0.1225      0.287876E-06      0.108655E+00      0.269558E-13      0.198934E-06      0.493529E-19
  0.1256      0.307719E-06      0.105426E+00      0.388960E-13      0.201170E-06      0.742196E-19
  0.1287      0.328588E-06      0.102344E+00      0.270258E-13      0.203448E-06      0.537237E-19
  0.1319      0.350528E-06      0.993993E-01      0.878364E-14      0.205767E-06      0.181831E-19
  0.1350      0.373581E-06      0.965822E-01     -0.215649E-14      0.208129E-06     -0.464710E-20
  0.1382      0.397792E-06      0.938857E-01     -0.982752E-14      0.210534E-06     -0.220377E-19
  0.1413      0.423208E-06      0.913031E-01      0.181328E-13      0.212984E-06      0.422987E-19
  0.1444      0.449877E-06      0.888281E-01      0.141580E-13      0.215480E-06      0.343445E-19
  0.1476      0.477849E-06      0.864547E-01      0.973667E-14      0.218022E-06      0.245540E-19
  0.1507      0.507172E-06      0.841776E-01     -0.790190E-14      0.220613E-06     -0.207093E-19
  0.1539      0.537900E-06      0.819915E-01      0.421662E-14      0.223251E-06      0.114813E-19
  0.1570      0.570086E-06      0.798921E-01     -0.479800E-14      0.225941E-06     -0.135691E-19
  0.1601      0.603784E-06      0.778753E-01      0.166692E-13      0.228681E-06      0.489492E-19
  0.1633      0.639050E-06      0.759372E-01      0.150725E-13      0.231476E-06      0.459449E-19
  0.1664      0.675942E-06      0.740741E-01      0.243286E-14      0.234326E-06      0.769609E-20
  0.1696      0.714518E-06      0.722826E-01      0.114696E-13      0.237232E-06      0.376433E-19
  0.1727      0.754837E-06      0.705593E-01      0.179823E-13      0.240196E-06      0.612147E-19
  0.1758      0.796962E-06      0.689014E-01      0.109883E-13      0.243219E-06      0.387882E-19
  0.1790      0.840954E-06      0.673058E-01      0.680829E-15      0.246303E-06      0.249147E-20
  0.1821      0.886878E-06      0.657700E-01      0.472218E-14      0.249450E-06      0.179101E-19
  0.1853      0.934798E-06      0.642915E-01      0.143801E-14      0.252661E-06      0.565130E-20
  0.1884      0.984781E-06      0.628678E-01     -0.325909E-14      0.255939E-06     -0.132680E-19
  0.1915      0.103689E-05      0.614969E-01      0.372839E-14      0.259285E-06      0.157197E-19
  0.1947      0.109120E-05      0.601765E-01      0.462941E-14      0.262701E-06      0.202097E-19
  0.1978      0.114778E-05      0.589049E-01      0.696602E-14      0.266189E-06      0.314792E-19
  0.2010      0.120670E-05      0.576799E-01      0.107730E-13      0.269751E-06      0.503819E-19
  0.2041      0.126803E-05      0.565000E-01      0.818501E-14      0.273390E-06      0.396054E-19
  0.2072      0.133184E-05      0.553633E-01      0.574847E-14      0.277108E-06      0.287727E-19
  0.2104      0.139821E-05      0.542684E-01      0.681589E-14      0.280908E-06      0.352809E-19
  0.2135      0.146721E-05      0.532136E-01      0.127864E-13      0.284790E-06      0.684310E-19
  0.2167      0.153892E-05      0.521976E-01      0.216034E-14      0.288760E-06      0.119511E-19
  0.2198      0.161341E-05      0.512189E-01      0.263680E-14      0.292818E-06      0.150745E-19
  0.2229      0.169076E-05      0.502765E-01      0.595231E-14      0.296968E-06      0.351585E-19
  0.2261      0.177106E-05      0.493687E-01      0.869851E-15      0.301212E-06      0.530719E-20
  0.2292      0.185437E-05      0.484948E-01      0.212468E-14      0.305554E-06      0.133871E-19
  0.2324      0.194078E-05      0.476532E-01      0.550534E-14      0.309996E-06      0.358136E-19
  0.2355      0.203036E-05      0.468433E-01      0.852164E-14      0.314543E-06      0.572210E-19
  0.2386      0.212321E-05      0.460637E-01      0.784798E-14      0.319196E-06      0.543822E-19
  0.2418      0.221939E-05      0.453138E-01      0.600073E-14      0.323961E-06      0.429009E-19
  0.2449      0.231899E-05      0.445923E-01     -0.684057E-14      0.328840E-06     -0.504448E-19
  0.2481      0.242209E-05      0.438987E-01     -0.460584E-14      0.333838E-06     -0.350261E-19
  0.2512      0.252878E-05      0.432319E-01     -0.307643E-14      0.338957E-06     -0.241206E-19
  0.2543      0.263913E-05      0.425912E-01     -0.182682E-14      0.344203E-06     -0.147635E-19
  0.2575      0.275322E-05      0.419759E-01     -0.725461E-15      0.349580E-06     -0.604173E-20
  0.2606      0.287114E-05      0.413852E-01      0.225976E-14      0.355093E-06      0.193891E-19
  0.2638      0.299298E-05      0.408185E-01      0.101114E-13      0.360745E-06      0.893620E-19
  0.2669      0.311880E-05      0.402752E-01      0.111765E-13      0.366543E-06      0.101717E-18
  0.2700      0.324869E-05      0.397545E-01      0.873847E-14      0.372491E-06      0.818776E-19
  0.2732      0.338274E-05      0.392560E-01      0.247358E-14      0.378596E-06      0.238559E-19
  0.2763      0.352102E-05      0.387792E-01      0.182032E-14      0.384861E-06      0.180656E-19
  0.2795      0.366362E-05      0.383234E-01     -0.174861E-14      0.391295E-06     -0.178539E-19
  0.2826      0.381060E-05      0.378883E-01     -0.475043E-14      0.397902E-06     -0.498889E-19
  0.2857      0.396206E-05      0.374733E-01     -0.586535E-14      0.404689E-06     -0.633422E-19
  0.2889      0.411807E-05      0.370781E-01     -0.671364E-14      0.411664E-06     -0.745389E-19
  0.2920      0.427870E-05      0.367023E-01      0.418677E-14      0.418834E-06      0.477780E-19
  0.2952      0.444403E-05      0.363455E-01      0.282383E-14      0.426206E-06      0.331137E-19
  0.2983      0.461413E-05      0.360073E-01      0.198515E-14      0.433787E-06      0.239154E-19
  0.3014      0.478908E-05      0.356875E-01      0.595764E-15      0.441588E-06      0.737183E-20
  0.3046      0.496896E-05      0.353858E-01      0.198740E-14      0.449616E-06      0.252522E-19
  0.3077      0.515382E-05      0.351019E-01     -0.856327E-15      0.457882E-06     -0.111702E-19
  0.3109      0.534374E-05      0.348355E-01      0.303479E-14      0.466393E-06      0.406311E-19
  0.3140      0.553879E-05      0.345865E-01      0.603445E-14      0.475162E-06      0.829033E-19
  0.3171      0.573903E-05      0.343547E-01      0.351388E-14      0.484199E-06      0.495250E-19
  0.3203      0.594452E-05      0.341401E-01      0.110050E-14      0.493516E-06      0.159083E-19
  0.3234      0.615533E-05      0.339422E-01      0.195805E-14      0.503123E-06      0.290241E-19
  0.3266      0.637152E-05      0.337613E-01     -0.277570E-14      0.513037E-06     -0.421796E-19
  0.3297      0.659314E-05      0.335971E-01      0.255524E-14      0.523268E-06      0.397973E-19
  0.3328      0.682024E-05      0.334496E-01      0.107808E-14      0.533833E-06      0.172054E-19
  0.3360      0.705289E-05      0.333188E-01      0.143201E-14      0.544745E-06      0.234125E-19
  0.3391      0.729112E-05      0.332049E-01     -0.861502E-16      0.556022E-06     -0.144260E-20
  0.3423      0.753500E-05      0.331076E-01      0.231561E-17      0.567680E-06      0.397047E-22
  0.3454      0.778455E-05      0.330273E-01     -0.385661E-14      0.579740E-06     -0.676965E-19
  0.3485      0.803983E-05      0.329638E-01      0.237947E-15      0.592217E-06      0.427487E-20
  0.3517      0.830087E-05      0.329176E-01     -0.691861E-15      0.605136E-06     -0.127187E-19
  0.3548      0.856770E-05      0.328886E-01     -0.287128E-14      0.618517E-06     -0.539984E-19
  0.3580      0.884037E-05      0.328773E-01     -0.157500E-14      0.632384E-06     -0.302947E-19
  0.3611      0.911889E-05      0.328837E-01     -0.133034E-14      0.646761E-06     -0.261654E-19
  0.3642      0.940330E-05      0.329082E-01     -0.310488E-14      0.661678E-06     -0.624290E-19
  0.3674      0.969362E-05      0.329512E-01      0.123137E-14      0.677159E-06      0.253051E-19
  0.3705      0.998986E-05      0.330131E-01      0.257274E-14      0.693239E-06      0.540248E-19
  0.3737      0.102920E-04      0.330943E-01      0.740333E-16      0.709949E-06      0.158819E-20
  0.3768      0.106002E-04      0.331953E-01     -0.101359E-14      0.727324E-06     -0.222081E-19
  0.3799      0.109143E-04      0.333167E-01      0.123279E-14      0.745403E-06      0.275815E-19
  0.3831      0.112343E-04      0.334591E-01     -0.126088E-14      0.764225E-06     -0.287991E-19
  0.3862      0.115604E-04      0.336233E-01     -0.105142E-14      0.783838E-06     -0.245110E-19
  0.3894      0.118923E-04      0.338099E-01     -0.715478E-15      0.804283E-06     -0.170201E-19
  0.3925      0.122303E-04      0.340200E-01     -0.311176E-14      0.825619E-06     -0.755183E-19
  0.3956      0.125741E-04      0.342541E-01      0.156447E-14      0.847892E-06      0.387253E-19
  0.3988      0.129239E-04      0.345139E-01      0.105182E-14      0.871173E-06      0.265492E-19
  0.4019      0.132796E-04      0.347998E-01      0.154293E-15      0.895514E-06      0.397047E-20
  0.4051      0.136412E-04      0.351138E-01      0.104551E-14      0.921002E-06      0.274227E-19
  0.4082      0.140086E-04      0.354565E-01     -0.245602E-15      0.947691E-06     -0.656451E-20
  0.4113      0.143818E-04      0.358305E-01     -0.238444E-14      0.975695E-06     -0.649304E-19
  0.4145      0.147608E-04      0.362360E-01     -0.244402E-14      0.100507E-05     -0.677891E-19
  0.4176      0.151455E-04      0.366767E-01     -0.208792E-14      0.103596E-05     -0.589747E-19
  0.4208      0.155359E-04      0.371523E-01     -0.356858E-14      0.106841E-05     -0.102623E-18
  0.4239      0.159319E-04      0.376682E-01     -0.117374E-14      0.110262E-05     -0.343578E-19
  0.4270      0.163334E-04      0.382230E-01      0.228363E-15      0.113863E-05      0.680273E-20
  0.4302      0.167405E-04      0.388242E-01     -0.194405E-14      0.117671E-05     -0.589217E-19
  0.4333      0.171530E-04      0.394690E-01     -0.841387E-16      0.121685E-05     -0.259404E-20
  0.4365      0.175709E-04      0.401685E-01     -0.386650E-15      0.125946E-05     -0.121232E-19
  0.4396      0.179940E-04      0.409163E-01     -0.582865E-15      0.130441E-05     -0.185818E-19
  0.4427      0.184223E-04      0.417302E-01      0.331613E-15      0.135237E-05      0.107467E-19
  0.4459      0.188558E-04      0.425967E-01     -0.695974E-15      0.140298E-05     -0.229228E-19
  0.4490      0.192942E-04      0.435457E-01     -0.173531E-14      0.145733E-05     -0.580747E-19
  0.4522      0.197376E-04      0.445491E-01     -0.162566E-14      0.151457E-05     -0.552689E-19
  0.4553      0.201858E-04      0.456609E-01     -0.392178E-14      0.157667E-05     -0.135419E-18
  0.4584      0.206387E-04      0.468185E-01     -0.423963E-14      0.164160E-05     -0.148654E-18
  0.4616      0.210962E-04      0.481346E-01     -0.292386E-14      0.171342E-05     -0.104079E-18
  0.4647      0.215582E-04      0.494479E-01     -0.294075E-14      0.178656E-05     -0.106250E-18
  0.4679      0.220245E-04      0.510604E-01     -0.287338E-14      0.187208E-05     -0.105350E-18
  0.4710      0.224951E-04      0.523717E-01      0.333739E-14      0.194811E-05      0.124143E-18
  0.4741      0.229697E-04      0.559659E-01      0.272197E-14      0.211165E-05      0.102703E-18
  0.4773      0.234484E-04      0.602871E-01      0.153296E-14      0.230682E-05      0.586570E-19
  0.4804      0.239308E-04      0.604999E-01     -0.222424E-14      0.234715E-05     -0.862915E-19
  0.4836      0.244169E-04      0.618160E-01     -0.436688E-14      0.243103E-05     -0.171736E-18
  0.4867      0.249066E-04      0.644531E-01     -0.504999E-14      0.256889E-05     -0.201276E-18
  0.4898      0.253996E-04      0.673086E-01     -0.122959E-14      0.271826E-05     -0.496573E-19
  0.4930      0.258958E-04      0.705886E-01     -0.126035E-14      0.288791E-05     -0.515631E-19
  0.4961      0.263950E-04      0.743448E-01     -0.173498E-14      0.308060E-05     -0.718919E-19
  0.4993      0.268971E-04      0.784997E-01     -0.580376E-15      0.329380E-05     -0.243522E-19
  0.5024      0.274020E-04      0.834121E-01     -0.143317E-14      0.354332E-05     -0.608805E-19
  0.5055      0.279093E-04      0.888472E-01     -0.987442E-15      0.382021E-05     -0.424575E-19
  0.5087      0.284190E-04      0.954772E-01     -0.102686E-13      0.415445E-05     -0.446810E-18
  0.5118      0.289308E-04      0.102927E+00     -0.114767E-13      0.453129E-05     -0.505255E-18
  0.5150      0.294446E-04      0.112388E+00     -0.496431E-14      0.500496E-05     -0.221076E-18
  0.5181      0.299602E-04      0.123427E+00      0.212989E-14      0.555894E-05      0.959265E-19
  0.5212      0.304774E-04      0.138377E+00     -0.530098E-14      0.630163E-05     -0.241404E-18
  0.5244      0.309959E-04      0.157553E+00     -0.143052E-13      0.725326E-05     -0.658568E-18
  0.5275      0.315156E-04      0.187039E+00     -0.810073E-14      0.870298E-05     -0.376930E-18
  0.5307      0.320363E-04      0.237206E+00     -0.220229E-13      0.111532E-04     -0.103550E-17
  0.5338      0.325577E-04      0.350705E+00     -0.989621E-14      0.166597E-04     -0.470103E-18
  0.5369      0.330796E-04      0.934274E+00     -0.694112E-13      0.448289E-04     -0.333053E-17
  0.5401      0.336019E-04      0.183493E+01     -0.297862E-13      0.889147E-04     -0.144334E-17
  0.5432      0.341243E-04      0.164196E+01     -0.114817E-12      0.803341E-04     -0.561752E-17
  0.5464      0.346465E-04      0.915977E+00     -0.114358E-12      0.452392E-04     -0.564802E-17
  0.5495      0.351684E-04      0.905692E+00     -0.599507E-13      0.451456E-04     -0.298833E-17
  0.5526      0.356897E-04      0.122153E+01     -0.146376E-12      0.614405E-04     -0.736241E-17
  0.5558      0.362103E-04      0.203079E+01     -0.119852E-12      0.103049E-03     -0.608170E-17
  0.5589      0.367298E-04      0.434887E+01     -0.497806E-12      0.222584E-03     -0.254788E-16
  0.5621      0.372480E-04      0.143377E+02     -0.794547E-12      0.740031E-03     -0.410099E-16
  0.5652      0.377647E-04      0.255882E+02     -0.280845E-11      0.133160E-02     -0.146150E-15
  0.5683      0.382796E-04      0.210268E+02     -0.106131E-11      0.110302E-02     -0.556738E-16
  0.5715      0.387926E-04      0.109814E+02     -0.114791E-11      0.580570E-03     -0.606882E-16
  0.5746      0.393034E-04      0.825739E+01     -0.131043E-11      0.439887E-03     -0.698091E-16
  0.5778      0.398117E-04      0.810140E+01     -0.805561E-12      0.434783E-03     -0.432326E-16
  0.5809      0.403173E-04      0.939865E+01     -0.375070E-12      0.508048E-03     -0.202746E-16
  0.5840      0.408199E-04      0.117035E+02      0.222576E-12      0.637083E-03      0.121160E-16
  0.5872      0.413194E-04      0.143771E+02     -0.507418E-12      0.787961E-03     -0.278098E-16
  0.5903      0.418154E-04      0.157916E+02      0.383219E-12      0.871215E-03      0.211419E-16
  0.5935      0.423077E-04      0.149776E+02     -0.453511E-12      0.831612E-03     -0.251806E-16
  0.5966      0.427961E-04      0.133137E+02      0.386668E-12      0.743824E-03      0.216027E-16
  0.5997      0.432804E-04      0.116091E+02     -0.291279E-12      0.652493E-03     -0.163715E-16
  0.6029      0.437602E-04      0.106060E+02     -0.839055E-12      0.599584E-03     -0.474338E-16
  0.6060      0.442354E-04      0.101010E+02     -0.199771E-12      0.574243E-03     -0.113570E-16
  0.6092      0.447057E-04      0.101142E+02     -0.748301E-12      0.578114E-03     -0.427718E-16
  0.6123      0.451708E-04      0.104358E+02     -0.151902E-12      0.599609E-03     -0.872783E-17
  0.6154      0.456306E-04      0.109923E+02     -0.757590E-12      0.634760E-03     -0.437476E-16
  0.6186      0.460847E-04      0.115767E+02     -0.108842E-12      0.671733E-03     -0.631548E-17
  0.6217      0.465330E-04      0.120150E+02     -0.765822E-12      0.700390E-03     -0.446420E-16
  0.6249      0.469752E-04      0.121860E+02     -0.143878E-11      0.713504E-03     -0.842425E-16
  0.6280      0.474111E-04      0.120113E+02     -0.705297E-12      0.706249E-03     -0.414707E-16
