 ## Photon energy (column 1); D(omega) (2,3); E(omega) (4,5); response (6,7); cr
 oss sect (9); integrated (10)
 ## UNITLESS RESPONSE FUNCTION FOR ABSORPTION/EMISSION 2 omega im(D(omega)E(omeg
 a)^*) IN COLUMN 7
 ## QUANTUM MECHANICAL PHOTOABSORPTION/EMISSION CROSS SECTION IN MEGABARNS (no f
 actor of 1/3) IN COLUMN NINE
 ## INTEGRATED DIFFERENTIAL OSCILLATOR STRENGTH (CUMULATIVE EXCITATION PROBABILI
 TY FOR SUM RULE) IN COLUMN 10
 
    0.000000000000         0.70950885E-05      0.00000000E+00      0.45369989E-05      0.00000000E+00      0.00000000E+00      0.00000000E+00      0.00000000E+00      0.00000000E+00      0.00000000E+00
    0.006276908399         0.66715131E-06     -0.17937848E-03      0.56884023E-05      0.22839030E-04     -0.51383217E-10     -0.13000909E-10     -0.11908999E+00     -0.30131982E-01      0.00000000E+00
    0.012553816798        -0.52004561E-04     -0.32906486E-03      0.91439841E-05      0.45576386E-04     -0.38849333E-09     -0.16038352E-10     -0.23084079E+00     -0.95299083E-02      0.00000000E+00
    0.018830725196        -0.81883823E-04     -0.48195625E-03      0.14907774E-04      0.68109209E-04     -0.12822355E-08     -0.60554053E-10     -0.33867267E+00     -0.15993944E-01      0.00000000E+00
    0.025107633595        -0.13704315E-03     -0.63881882E-03      0.22986200E-04      0.90332285E-04     -0.30559035E-08     -0.11572591E-09     -0.45159897E+00     -0.17101882E-01      0.00000000E+00
    0.031384541994        -0.21352659E-03     -0.79137707E-03      0.33387663E-04      0.11213692E-03     -0.60177815E-08     -0.15554277E-09     -0.56441514E+00     -0.14588548E-01      0.00000000E+00
    0.037661450393        -0.30064186E-03     -0.94353834E-03      0.46121946E-04      0.13340988E-03     -0.10525888E-07     -0.25679294E-09     -0.67826355E+00     -0.16547135E-01      0.00000000E+00
    0.043938358791        -0.40828270E-03     -0.10927244E-02      0.61199468E-04      0.15403239E-03     -0.16986713E-07     -0.35022318E-09     -0.79392007E+00     -0.16368629E-01      0.00000000E+00
    0.050215267190        -0.53341435E-03     -0.12345897E-02      0.78630387E-04      0.17387924E-03     -0.25771690E-07     -0.43452172E-09     -0.90863498E+00     -0.15319975E-01     -0.23840014E-04
    0.056492175589        -0.67288630E-03     -0.13709679E-02      0.98423575E-04      0.19281799E-03     -0.37349819E-07     -0.58649944E-09     -0.10232418E+01     -0.16067836E-01     -0.48843804E-04
    0.062769083988        -0.83390131E-03     -0.15126402E-02      0.12058546E-03      0.21070835E-03     -0.52635932E-07     -0.84015644E-09     -0.11466425E+01     -0.18302308E-01     -0.77324745E-04
    0.069045992387        -0.10194063E-02     -0.16309979E-02      0.14511874E-03      0.22740164E-03     -0.71645791E-07     -0.67301992E-09     -0.12640960E+01     -0.11874554E-01     -0.95803204E-04
    0.075322900785        -0.12222001E-02     -0.17417868E-02      0.17202108E-03      0.24274043E-03     -0.95365759E-07     -0.44390486E-09     -0.13833343E+01     -0.64390910E-02     -0.10582333E-03
    0.081599809184        -0.14294229E-02     -0.18382601E-02      0.20128362E-03      0.25655835E-03     -0.12392406E-06     -0.53550179E-09     -0.14962962E+01     -0.64658086E-02     -0.11588502E-03
    0.087876717583        -0.16598279E-02     -0.19329082E-02      0.23288948E-03      0.26868008E-03     -0.15921335E-06     -0.73663320E-09     -0.16169211E+01     -0.74810171E-02     -0.12752653E-03
    0.094153625982        -0.19123822E-02     -0.20150443E-02      0.26681228E-03      0.27892153E-03     -0.20191928E-06     -0.79729088E-09     -0.17401222E+01     -0.68709811E-02     -0.13821873E-03
    0.100430534380        -0.21840291E-02     -0.20807185E-02      0.30301451E-03      0.28709018E-03     -0.25291348E-06     -0.69791182E-09     -0.18636964E+01     -0.51428485E-02     -0.14622172E-03
    0.106707442779        -0.24712569E-02     -0.21309616E-02      0.34144603E-03      0.29298562E-03     -0.31332336E-06     -0.76095915E-09     -0.19873484E+01     -0.48266141E-02     -0.15373260E-03
    0.112984351178        -0.27790788E-02     -0.21671212E-02      0.38204251E-03      0.29640034E-03     -0.38506461E-06     -0.95189745E-09     -0.21145534E+01     -0.52272733E-02     -0.16186697E-03
    0.119261259577        -0.31075235E-02     -0.21844808E-02      0.42472395E-03      0.29712061E-03     -0.46962553E-06     -0.10714478E-08     -0.22442862E+01     -0.51203253E-02     -0.16983491E-03
    0.125538167976        -0.34551612E-02     -0.21804513E-02      0.46939322E-03      0.29492766E-03     -0.56866396E-06     -0.11214117E-08     -0.23758729E+01     -0.46852480E-02     -0.17712581E-03
    0.131815076374        -0.38218749E-02     -0.21544471E-02      0.51593475E-03      0.28959901E-03     -0.68432162E-06     -0.12503766E-08     -0.25099778E+01     -0.45861734E-02     -0.18426253E-03
    0.138091984773        -0.42079474E-02     -0.21037715E-02      0.56421330E-03      0.28090990E-03     -0.81892694E-06     -0.13593191E-08     -0.26468660E+01     -0.43934756E-02     -0.19109939E-03
    0.144368893172        -0.46125839E-02     -0.20264409E-02      0.61407281E-03      0.26863505E-03     -0.97501998E-06     -0.15246971E-08     -0.27865875E+01     -0.43575536E-02     -0.19788035E-03
    0.150645801571        -0.50361881E-02     -0.19199555E-02      0.66533545E-03      0.25255042E-03     -0.11556461E-05     -0.16640496E-08     -0.29297678E+01     -0.42186608E-02     -0.20444518E-03
    0.156922709970        -0.54771849E-02     -0.17814790E-02      0.71780080E-03      0.23243524E-03     -0.13638486E-05     -0.17751933E-08     -0.30760954E+01     -0.40038637E-02     -0.21067574E-03
    0.163199618368        -0.59351473E-02     -0.16085898E-02      0.77124525E-03      0.20807410E-03     -0.16033253E-05     -0.18496480E-08     -0.32260477E+01     -0.37216731E-02     -0.21646719E-03
    0.169476526767        -0.64090541E-02     -0.13993489E-02      0.82542157E-03      0.17925919E-03     -0.18781449E-05     -0.20916425E-08     -0.33799493E+01     -0.37641641E-02     -0.22232475E-03
    0.175753435166        -0.68985011E-02     -0.11503093E-02      0.88005865E-03      0.14579261E-03     -0.21929783E-05     -0.23161464E-08     -0.35383468E+01     -0.37370772E-02     -0.22814016E-03
    0.182030343565        -0.74021159E-02     -0.85826354E-03      0.93486154E-03      0.10748880E-03     -0.25528690E-05     -0.24439480E-08     -0.37014990E+01     -0.35435704E-02     -0.23365445E-03
    0.188307251963        -0.79181914E-02     -0.52003381E-03      0.98951165E-03      0.64176989E-04     -0.29633975E-05     -0.24155409E-08     -0.38696576E+01     -0.31542567E-02     -0.23856291E-03
    0.194584160362        -0.84448048E-02     -0.13180925E-03      0.10436673E-02      0.15703702E-04     -0.34307663E-05     -0.19264991E-08     -0.40431156E+01     -0.22703554E-02     -0.24209590E-03
    0.200861068761        -0.89787590E-02      0.30877318E-03      0.10969642E-02     -0.38064731E-04     -0.39614345E-05     -0.12296343E-08     -0.42217488E+01     -0.13104362E-02     -0.24413512E-03
    0.207137977160        -0.95193160E-02      0.80460709E-03      0.11490170E-02     -0.97239672E-04     -0.45637034E-05     -0.47557752E-09     -0.44066916E+01     -0.45921553E-03     -0.24484973E-03
    0.213414885559        -0.10063549E-01      0.13590625E-02      0.11994196E-02     -0.16190771E-03     -0.52459348E-05      0.30733680E-09     -0.45981763E+01      0.26938740E-03     -0.24443052E-03
    0.219691793957        -0.10610091E-01      0.19773328E-02      0.12477477E-02     -0.23212827E-03     -0.60185500E-05      0.18939092E-08     -0.47974346E+01      0.15096502E-02     -0.24208130E-03
    0.225968702356        -0.11153358E-01      0.26623345E-02      0.12935596E-02     -0.30793125E-03     -0.68908476E-05      0.42577583E-08     -0.50039021E+01      0.30918411E-02     -0.23726996E-03
    0.232245610755        -0.11691363E-01      0.34173827E-02      0.13363988E-02     -0.38931487E-03     -0.78753382E-05      0.71367761E-08     -0.52187766E+01      0.47293511E-02     -0.22991043E-03
    0.238522519154        -0.12220457E-01      0.42467772E-02      0.13757960E-02     -0.47624356E-03     -0.89853131E-05      0.10869396E-07     -0.54427974E+01      0.65840686E-02     -0.21966471E-03
    0.244799427552        -0.12736702E-01      0.51546269E-02      0.14112713E-02     -0.56864604E-03     -0.10235602E-04      0.15618990E-07     -0.56767720E+01      0.86624551E-02     -0.20618472E-03
    0.251076335951        -0.13235304E-01      0.61457274E-02      0.14423374E-02     -0.66641362E-03     -0.11642596E-04      0.22107515E-07     -0.59214966E+01      0.11244020E-01     -0.18868746E-03
    0.257353244350        -0.13711384E-01      0.72240199E-02      0.14685021E-02     -0.76939864E-03     -0.13224533E-04      0.30351489E-07     -0.61778357E+01      0.14178687E-01     -0.16662345E-03
    0.263630152749        -0.14160222E-01      0.83942429E-02      0.14892716E-02     -0.87741317E-03     -0.15002473E-04      0.40568389E-07     -0.64470517E+01      0.17433560E-01     -0.13949440E-03
    0.269907061148        -0.14574993E-01      0.96616474E-02      0.15041532E-02     -0.99022795E-03     -0.16998885E-04      0.53999138E-07     -0.67300324E+01      0.21378810E-01     -0.10622599E-03
    0.276183969546        -0.14951001E-01      0.11030710E-01      0.15126596E-02     -0.11075716E-02     -0.19240675E-04      0.69821852E-07     -0.70284649E+01      0.25505365E-01     -0.66536095E-04
    0.282460877945        -0.15280057E-01      0.12508420E-01      0.15143114E-02     -0.12291301E-02     -0.21756967E-04      0.90649709E-07     -0.73437306E+01      0.30597419E-01     -0.18922251E-04
    0.288737786344        -0.15556321E-01      0.14099078E-01      0.15086415E-02     -0.13545467E-02     -0.24581270E-04      0.11473864E-06     -0.76776069E+01      0.35836966E-01      0.36845059E-04
    0.295014694743        -0.15770703E-01      0.15810828E-01      0.14951982E-02     -0.14834216E-02     -0.27751708E-04      0.14498254E-06     -0.80321209E+01      0.41962004E-01      0.10214378E-03
    0.301291603141        -0.15915344E-01      0.17651075E-01      0.14735495E-02     -0.16153128E-02     -0.31312667E-04      0.18166262E-06     -0.84098179E+01      0.48790143E-01      0.17806804E-03
    0.307568511540        -0.15979766E-01      0.19627668E-01      0.14432864E-02     -0.17497368E-02     -0.35312944E-04      0.22634684E-06     -0.88130286E+01      0.56489236E-01      0.26597315E-03
    0.313845419939        -0.15954321E-01      0.21751431E-01      0.14040268E-02     -0.18861692E-02     -0.39812655E-04      0.28060389E-06     -0.92454462E+01      0.65162902E-01      0.36737570E-03
    0.320122328338        -0.15825608E-01      0.24032776E-01      0.13554193E-02     -0.20240466E-02     -0.44877176E-04      0.34747256E-06     -0.97102599E+01      0.75184072E-01      0.48437259E-03
    0.326399236737        -0.15580682E-01      0.26484791E-01      0.12971468E-02     -0.21627682E-02     -0.50585938E-04      0.42905691E-06     -0.10211969E+02      0.86615297E-01      0.61915805E-03
    0.332676145135        -0.15204319E-01      0.29123010E-01      0.12289300E-02     -0.23016976E-02     -0.57032271E-04      0.52855481E-06     -0.10755818E+02      0.99681092E-01      0.77427572E-03
    0.338953053534        -0.14678190E-01      0.31965924E-01      0.11505312E-02     -0.24401655E-02     -0.64326416E-04      0.65118270E-06     -0.11347940E+02      0.11487632E+00      0.95303927E-03
    0.345229961933        -0.13981494E-01      0.35036126E-01      0.10617569E-02     -0.25774723E-02     -0.72601579E-04      0.80296019E-06     -0.11995929E+02      0.13267278E+00      0.11594966E-02
    0.351506870332        -0.13089094E-01      0.38360667E-01      0.96246156E-03     -0.27128910E-02     -0.82017842E-04      0.99222230E-06     -0.12708817E+02      0.15374668E+00      0.13987478E-02
    0.357783778731        -0.11970106E-01      0.41972604E-01      0.85255017E-03     -0.28456707E-02     -0.92769990E-04      0.12313279E-05     -0.13497577E+02      0.17915215E+00      0.16775335E-02
    0.364060687129        -0.10591516E-01      0.45912964E-01      0.73198098E-03     -0.29750401E-02     -0.10510119E-03      0.15270386E-05     -0.14376197E+02      0.20887496E+00      0.20025721E-02
    0.370337595528        -0.89072360E-02      0.50240420E-01      0.60076791E-03     -0.31002114E-02     -0.11932803E-03      0.19024375E-05     -0.15363761E+02      0.24494324E+00      0.23837379E-02
    0.376614503927        -0.68572324E-02      0.55023184E-01      0.45898265E-03     -0.32203841E-02     -0.13583968E-03      0.23890653E-05     -0.16482584E+02      0.28988562E+00      0.28348403E-02
    0.382891412326        -0.43687040E-02      0.60354397E-01      0.30675641E-03     -0.33347498E-02     -0.15515291E-03      0.30214448E-05     -0.17763210E+02      0.34592040E+00      0.33731406E-02
    0.389168320724        -0.13377672E-02      0.66354536E-01      0.14428145E-03     -0.34424964E-02     -0.17794197E-03      0.38671419E-05     -0.19244944E+02      0.41824269E+00      0.40239844E-02
    0.395445229123         0.23618925E-02      0.73203505E-01     -0.28187876E-04     -0.35428130E-02     -0.20516719E-03      0.49860044E-05     -0.20986085E+02      0.51000703E+00      0.48176264E-02
    0.401722137522         0.69363619E-02      0.81142401E-01     -0.21033434E-03     -0.36348944E-02     -0.23814330E-03      0.65447843E-05     -0.23064842E+02      0.63388058E+00      0.58040328E-02
    0.407999045921         0.12668672E-01      0.90524368E-01     -0.40177751E-03     -0.37179462E-02     -0.27878960E-03      0.87563001E-05     -0.25596204E+02      0.80393258E+00      0.70550639E-02
    0.414275954320         0.20005888E-01      0.10189370E+00     -0.60207376E-03     -0.37911899E-02     -0.33004818E-03      0.12012840E-04     -0.28757860E+02      0.10467065E+01      0.86838849E-02
    0.420552862718         0.29669173E-01      0.11612588E+00     -0.81071678E-03     -0.38538680E-02     -0.39665463E-03      0.16986864E-04     -0.32836776E+02      0.14062456E+01      0.10872199E-01
    0.426829771117         0.42998617E-01      0.13466723E+00     -0.10271384E-02     -0.39052486E-02     -0.48664958E-03      0.25266961E-04     -0.38319242E+02      0.19895441E+01      0.13968207E-01
    0.433106679516         0.62494386E-01      0.16022914E+00     -0.12507097E-02     -0.39446311E-02     -0.61519096E-03      0.39947286E-04     -0.46125631E+02      0.29951574E+01      0.18629089E-01
    0.439383587915         0.93864781E-01      0.19840489E+00     -0.14807432E-02     -0.39713507E-02     -0.81455130E-03      0.69407897E-04     -0.58218013E+02      0.49607555E+01      0.26348715E-01
    0.445660496313         0.15397078E+00      0.26291622E+00     -0.17164944E-02     -0.39847835E-02     -0.11693723E-02      0.14461328E-03     -0.79756979E+02      0.98633411E+01      0.41697447E-01
    0.451937404712         0.31229063E+00      0.39511170E+00     -0.19571644E-02     -0.39843512E-02     -0.19753894E-02      0.42570424E-03     -0.12870982E+03      0.27737476E+02      0.84860822E-01
    0.458214313111         0.15032444E+01      0.64861018E+00     -0.22019033E-02     -0.39695259E-02     -0.53928835E-02      0.41596612E-02     -0.33603541E+03      0.25919222E+03      0.48820001E+00
    0.464491221510         0.54638361E-01     -0.15206478E+01     -0.24498129E-02     -0.39398342E-02      0.54412790E-02      0.36607190E-02      0.32458464E+03      0.21837019E+03      0.82801444E+00
    0.470768129909        -0.17066063E+00     -0.42528012E+00     -0.26999507E-02     -0.38948615E-02      0.19934040E-02      0.45526652E-03      0.11395654E+03      0.26026132E+02      0.86851473E+00
    0.477045038307        -0.12727633E+00     -0.22667422E+00     -0.29513339E-02     -0.38342559E-02      0.11876150E-02      0.17267244E-03      0.65130835E+02      0.94696516E+01      0.88325082E+00
    0.483321946706        -0.97168628E-01     -0.14385478E+00     -0.32029440E-02     -0.37577322E-02      0.82338089E-03      0.92435436E-04      0.43363588E+02      0.48681384E+01      0.89082633E+00
    0.489598855105        -0.75365055E-01     -0.97191058E-01     -0.34537308E-02     -0.36650744E-02      0.60367840E-03      0.58216459E-04      0.30562316E+02      0.29473140E+01      0.89541276E+00
    0.495875763504        -0.57536687E-01     -0.66470025E-01     -0.37026184E-02     -0.35561394E-02      0.44570610E-03      0.41162308E-04      0.21713238E+02      0.20052833E+01      0.89853326E+00
    0.502152671902        -0.41086856E-01     -0.43729371E-01     -0.39485096E-02     -0.34308593E-02      0.31360556E-03      0.31839110E-04      0.14716039E+02      0.14940602E+01      0.90085822E+00
    0.508429580301        -0.23812113E-01     -0.25265879E-01     -0.41902919E-02     -0.32892436E-02      0.18596863E-03      0.28011997E-04      0.84141534E+01      0.12674032E+01      0.90283048E+00
    0.514706488700        -0.25056862E-02     -0.79084340E-02     -0.44268429E-02     -0.31313807E-02      0.36911246E-04      0.27962086E-04      0.16118409E+01      0.12210488E+01      0.90473060E+00
    0.520983397099         0.29021565E-01      0.10065139E-01     -0.46570365E-02     -0.29574398E-02     -0.17184276E-03      0.40590659E-04     -0.72495891E+01      0.17124120E+01      0.90739535E+00
    0.527260305498         0.10047966E+00      0.34797325E-01     -0.48797486E-02     -0.27676711E-02     -0.61860609E-03      0.11419663E-03     -0.25237016E+02      0.46588324E+01      0.91464514E+00
    0.533537213896         0.34458741E+00     -0.37881906E+00     -0.50938636E-02     -0.25624067E-02     -0.83721887E-03      0.30012810E-02     -0.33061642E+02      0.11852012E+03      0.10990789E+01
    0.539814122295        -0.22104384E+00     -0.13889556E+00     -0.52982799E-02     -0.23420605E-02      0.16156139E-02      0.23558515E-03      0.61816114E+02      0.90138851E+01      0.11131058E+01
    0.546091030694        -0.88817237E-01     -0.46954440E-01     -0.54919169E-02     -0.21071271E-02      0.64080053E-03      0.77239852E-04      0.23778255E+02      0.28661475E+01      0.11175659E+01
    0.552367939093        -0.23464246E-01     -0.25123822E-01     -0.56737205E-02     -0.18581815E-02      0.19864719E-03      0.10930778E-03      0.71555687E+01      0.39374295E+01      0.11236931E+01
    0.558644847491         0.82281018E-01     -0.86552504E-01     -0.58426699E-02     -0.15958769E-02     -0.38279874E-03      0.71172257E-03     -0.13398181E+02      0.24910708E+02      0.11624577E+01
    0.564921755890        -0.98379651E-01     -0.14947620E+00     -0.59977830E-02     -0.13209434E-02      0.88976237E-03      0.86610621E-03      0.30287922E+02      0.29482655E+02      0.12083368E+01
    0.571198664289        -0.58803472E-01     -0.57257370E-01     -0.61381226E-02     -0.10341846E-02      0.47998693E-03      0.33202534E-03      0.15905562E+02      0.11002487E+02      0.12254582E+01
    0.577475572688        -0.27619341E-01     -0.65971257E-01     -0.62628021E-02     -0.73647557E-03      0.25589176E-03      0.45369248E-03      0.82623168E+01      0.14648971E+02      0.12482540E+01
    0.583752481087        -0.38837345E-01     -0.90810984E-01     -0.63709912E-02     -0.42875869E-03      0.33433651E-03      0.65602586E-03      0.10528215E+02      0.20658172E+02      0.12804010E+01
    0.590029389485        -0.67505102E-01     -0.80584055E-01     -0.64619208E-02     -0.11204024E-03      0.52541088E-03      0.60556427E-03      0.16150751E+02      0.18614608E+02      0.13093679E+01
    0.596306297884        -0.68477967E-01     -0.59515887E-01     -0.65348884E-02      0.21261407E-03      0.51859799E-03      0.48120613E-03      0.15575517E+02      0.14452494E+02      0.13318580E+01
