            ## Photon energy (column 1); D(omega) (2,3); E(omega) (4,5); response (6,7); cross sect (9); integrated (10)
                        ## UNITLESS RESPONSE FUNCTION FOR ABSORPTION/EMISSION 2 omega im(D(omega)E(omega)^*) IN COLUMN 7
             ## QUANTUM MECHANICAL PHOTOABSORPTION/EMISSION CROSS SECTION IN MEGABARNS (no factor of 1/3) IN COLUMN NINE
                                              ## INTEGRATED DIFFERENTIAL OSCILLATOR STRENGTH (FOR SUM RULE) IN COLUMN 10
 
    0.000000000000        -0.11341905E-04      0.00000000E+00      0.67260410E-05      0.00000000E+00      0.00000000E+00      0.00000000E+00      0.00000000E+00      0.00000000E+00      0.00000000E+00
    0.006276908399        -0.14523587E-04     -0.17855941E-03      0.78641746E-05      0.22872883E-04     -0.52705749E-10     -0.13458019E-10     -0.11567491E+00     -0.29536724E-01      0.00000000E+00
    0.012553816798        -0.71000694E-04     -0.32625698E-03      0.11280069E-04      0.45648268E-04     -0.39403817E-09     -0.11025831E-10     -0.22882115E+00     -0.64027894E-02      0.00000000E+00
    0.018830725196        -0.95221796E-04     -0.48316876E-03      0.16978122E-04      0.68227481E-04     -0.13024111E-08     -0.64271325E-10     -0.33828547E+00     -0.16693696E-01      0.00000000E+00
    0.025107633595        -0.15054292E-03     -0.64126633E-03      0.24965381E-04      0.90509513E-04     -0.31032565E-08     -0.11970779E-09     -0.45199215E+00     -0.17435549E-01      0.00000000E+00
    0.031384541994        -0.22711580E-03     -0.79420292E-03      0.35251132E-04      0.11238990E-03     -0.61053274E-08     -0.15510435E-09     -0.56500284E+00     -0.14353759E-01      0.00000000E+00
    0.037661450393        -0.31283530E-03     -0.94713797E-03      0.47846319E-04      0.13375965E-03     -0.10670005E-07     -0.26154569E-09     -0.67884604E+00     -0.16640034E-01      0.00000000E+00
    0.043938358791        -0.41935238E-03     -0.10979830E-02      0.62762817E-04      0.15450427E-03     -0.17220568E-07     -0.36212024E-09     -0.79502792E+00     -0.16718130E-01      0.00000000E+00
    0.050215267190        -0.54369818E-03     -0.12411642E-02      0.80012563E-04      0.17450286E-03     -0.26120917E-07     -0.44509181E-09     -0.91003892E+00     -0.15506763E-01     -0.24130683E-04
    0.056492175589        -0.68274845E-03     -0.13784892E-02      0.99606541E-04      0.19362734E-03     -0.37840652E-07     -0.57709922E-09     -0.10247279E+01     -0.15627893E-01     -0.48449860E-04
    0.062769083988        -0.83891528E-03     -0.15234937E-02      0.12155366E-03      0.21174174E-03     -0.53298539E-07     -0.94817326E-09     -0.11480074E+01     -0.20422885E-01     -0.80230713E-04
    0.069045992387        -0.10252411E-02     -0.16431546E-02      0.14585953E-03      0.22870171E-03     -0.72544339E-07     -0.71743626E-09     -0.12658852E+01     -0.12519129E-01     -0.99712221E-04
    0.075322900785        -0.12258246E-02     -0.17581044E-02      0.17252508E-03      0.24435415E-03     -0.96576854E-07     -0.56971103E-09     -0.13858760E+01     -0.81753423E-02     -0.11243419E-03
    0.081599809184        -0.14316541E-02     -0.18555204E-02      0.20154523E-03      0.25853694E-03     -0.12538033E-06     -0.62600249E-09     -0.14980373E+01     -0.74794434E-02     -0.12407325E-03
    0.087876717583        -0.16598031E-02     -0.19544492E-02      0.23290735E-03      0.27107897E-03     -0.16105876E-06     -0.92584644E-09     -0.16189749E+01     -0.93066788E-02     -0.13855574E-03
    0.094153625982        -0.19108808E-02     -0.20412010E-02      0.26658980E-03      0.28180018E-03     -0.20424410E-06     -0.10689847E-08     -0.17426652E+01     -0.91208631E-02     -0.15274907E-03
    0.100430534380        -0.21810379E-02     -0.21115363E-02      0.30256035E-03      0.29051195E-03     -0.25576084E-06     -0.10544318E-08     -0.18664529E+01     -0.76948731E-02     -0.16472336E-03
    0.106707442779        -0.24666301E-02     -0.21666585E-02      0.34077470E-03      0.29701756E-03     -0.31672919E-06     -0.12185924E-08     -0.19900668E+01     -0.76566365E-02     -0.17663816E-03
    0.112984351178        -0.27730513E-02     -0.22088946E-02      0.38117493E-03      0.30111289E-03     -0.38915071E-06     -0.15758396E-08     -0.21174874E+01     -0.85746224E-02     -0.18998146E-03
    0.119261259577        -0.31004778E-02     -0.22329867E-02      0.42368800E-03      0.30258731E-03     -0.47449491E-06     -0.18901526E-08     -0.22474839E+01     -0.89528623E-02     -0.20391336E-03
    0.125538167976        -0.34474406E-02     -0.22360355E-02      0.46822439E-03      0.30122474E-03     -0.57439361E-06     -0.21371582E-08     -0.23792321E+01     -0.88524582E-02     -0.21768902E-03
    0.131815076374        -0.38136444E-02     -0.22179546E-02      0.51467669E-03      0.29680488E-03     -0.69099931E-06     -0.25364536E-08     -0.25134401E+01     -0.92260934E-02     -0.23204611E-03
    0.138091984773        -0.41997450E-02     -0.21760835E-02      0.56291837E-03      0.28910470E-03     -0.82668203E-06     -0.29804125E-08     -0.26505031E+01     -0.95557811E-02     -0.24691623E-03
    0.144368893172        -0.46049229E-02     -0.21082824E-02      0.61280271E-03      0.27789995E-03     -0.98396086E-06     -0.35380047E-08     -0.27903682E+01     -0.10033260E-01     -0.26252938E-03
    0.150645801571        -0.50296897E-02     -0.20122853E-02      0.66416171E-03      0.26296700E-03     -0.11659057E-05     -0.41700124E-08     -0.29337108E+01     -0.10492796E-01     -0.27885763E-03
    0.156922709970        -0.54725848E-02     -0.18850427E-02      0.71680532E-03      0.24408466E-03     -0.13755493E-05     -0.48440757E-08     -0.30801767E+01     -0.10847019E-01     -0.29573711E-03
    0.163199618368        -0.59335472E-02     -0.17243368E-02      0.77052076E-03      0.22103630E-03     -0.16166758E-05     -0.55840316E-08     -0.32304066E+01     -0.11157891E-01     -0.31310034E-03
    0.169476526767        -0.64111026E-02     -0.15280896E-02      0.82507202E-03      0.19361193E-03     -0.18932147E-05     -0.66157129E-08     -0.33844192E+01     -0.11826628E-01     -0.33150422E-03
    0.175753435166        -0.69054183E-02     -0.12929982E-02      0.88019959E-03      0.16161047E-03     -0.22099618E-05     -0.77713374E-08     -0.35429955E+01     -0.12458954E-01     -0.35089209E-03
    0.182030343565        -0.74151365E-02     -0.10158537E-02      0.93562040E-03      0.12484210E-03     -0.25719338E-05     -0.90040124E-08     -0.37063261E+01     -0.12975375E-01     -0.37108358E-03
    0.188307251963        -0.79387638E-02     -0.69339753E-03      0.99102795E-03      0.83130656E-04     -0.29847375E-05     -0.10252083E-07     -0.38746870E+01     -0.13308914E-01     -0.39179410E-03
    0.194584160362        -0.84744189E-02     -0.32180736E-03      0.10460927E-02      0.36316035E-04     -0.34545360E-05     -0.11240363E-07     -0.40483100E+01     -0.13172383E-01     -0.41229216E-03
    0.200861068761        -0.90191036E-02      0.10114966E-03      0.11004627E-02     -0.15743325E-04     -0.39878070E-05     -0.12324535E-07     -0.42270957E+01     -0.13064070E-01     -0.43262168E-03
    0.207137977160        -0.95723950E-02      0.57845586E-03      0.11537644E-02     -0.73168002E-04     -0.45929172E-05     -0.13667475E-07     -0.44122357E+01     -0.13129808E-01     -0.45305349E-03
    0.213414885559        -0.10131750E-01      0.11135600E-02      0.12056040E-02     -0.13605517E-03     -0.52783408E-05     -0.15350786E-07     -0.46040439E+01     -0.13389756E-01     -0.47388981E-03
    0.219691793957        -0.10695399E-01      0.17121070E-02      0.12555683E-02     -0.20447622E-03     -0.60542178E-05     -0.16383466E-07     -0.48034865E+01     -0.12998832E-01     -0.49411780E-03
    0.225968702356        -0.11258621E-01      0.23761567E-02      0.13032270E-02     -0.27847447E-03     -0.69301158E-05     -0.17429897E-07     -0.50102288E+01     -0.12601199E-01     -0.51372702E-03
    0.232245610755        -0.11819479E-01      0.31100441E-02      0.13481338E-02     -0.35806296E-03     -0.79185677E-05     -0.18283264E-07     -0.52254542E+01     -0.12065106E-01     -0.53250201E-03
    0.238522519154        -0.12374471E-01      0.39178183E-02      0.13898291E-02     -0.44322238E-03     -0.90327834E-05     -0.18864419E-07     -0.54498295E+01     -0.11381637E-01     -0.55021342E-03
    0.244799427552        -0.12919981E-01      0.48037504E-02      0.14278420E-02     -0.53389912E-03     -0.10287652E-04     -0.19079595E-07     -0.56841888E+01     -0.10541961E-01     -0.56661818E-03
    0.251076335951        -0.13451506E-01      0.57727744E-02      0.14616928E-02     -0.63000355E-03     -0.11699574E-04     -0.18315535E-07     -0.59293232E+01     -0.92822807E-02     -0.58106270E-03
    0.257353244350        -0.13964456E-01      0.68290018E-02      0.14908957E-02     -0.73140837E-03     -0.13286806E-04     -0.16671608E-07     -0.61860953E+01     -0.77619976E-02     -0.59314145E-03
    0.263630152749        -0.14454581E-01      0.79773975E-02      0.15149619E-02     -0.83794734E-03     -0.15070565E-04     -0.14090662E-07     -0.64558256E+01     -0.60360614E-02     -0.60253440E-03
    0.269907061148        -0.14915207E-01      0.92234352E-02      0.15334027E-02     -0.94941405E-03     -0.17073175E-04     -0.94284327E-08     -0.67393231E+01     -0.37217011E-02     -0.60832589E-03
    0.276183969546        -0.15342227E-01      0.10571873E-01      0.15457324E-02     -0.10655611E-02     -0.19321805E-04     -0.37527026E-08     -0.70383663E+01     -0.13669994E-02     -0.61045313E-03
    0.282460877945        -0.15727746E-01      0.12029969E-01      0.15514718E-02     -0.11860995E-02     -0.21845465E-04      0.53597558E-08     -0.73542740E+01      0.18043614E-02     -0.60764529E-03
    0.288737786344        -0.16066582E-01      0.13602577E-01      0.15501520E-02     -0.13106982E-02     -0.24678140E-04      0.15951617E-07     -0.76889618E+01      0.49700412E-02     -0.59991121E-03
    0.295014694743        -0.16349806E-01      0.15297977E-01      0.15413175E-02     -0.14389841E-02     -0.27857521E-04      0.30639303E-07     -0.80442912E+01      0.88475736E-02     -0.58614316E-03
    0.301291603141        -0.16570386E-01      0.17124220E-01      0.15245299E-02     -0.15705424E-02     -0.31428548E-04      0.49345590E-07     -0.84229498E+01      0.13224774E-01     -0.56556357E-03
    0.307568511540        -0.16718367E-01      0.19089616E-01      0.14993718E-02     -0.17049171E-02     -0.35440049E-04      0.73202413E-07     -0.88272427E+01      0.18232917E-01     -0.53719061E-03
    0.313845419939        -0.16784686E-01      0.21205483E-01      0.14654504E-02     -0.18416117E-02     -0.39952139E-04      0.10338606E-06     -0.92608315E+01      0.23964697E-01     -0.49989821E-03
    0.320122328338        -0.16756995E-01      0.23483115E-01      0.14224008E-02     -0.19800906E-02     -0.45030878E-04      0.14215594E-06     -0.97270313E+01      0.30706826E-01     -0.45211411E-03
    0.326399236737        -0.16622984E-01      0.25936248E-01      0.13698900E-02     -0.21197808E-02     -0.50755617E-04      0.19109064E-06     -0.10230278E+02      0.38516137E-01     -0.39217764E-03
    0.332676145135        -0.16368663E-01      0.28581476E-01      0.13076202E-02     -0.22600731E-02     -0.57220443E-04      0.25239634E-06     -0.10775920E+02      0.47532012E-01     -0.31821121E-03
    0.338953053534        -0.15976806E-01      0.31438246E-01      0.12353322E-02     -0.24003249E-02     -0.64535759E-04      0.33024500E-06     -0.11370067E+02      0.58183368E-01     -0.22766979E-03
    0.345229961933        -0.15428146E-01      0.34530683E-01      0.11528089E-02     -0.25398625E-02     -0.72835852E-04      0.42940310E-06     -0.12020439E+02      0.70866389E-01     -0.11739182E-03
    0.351506870332        -0.14699133E-01      0.37887110E-01      0.10598779E-02     -0.26779837E-02     -0.82280973E-04      0.55655488E-06     -0.12736021E+02      0.86147430E-01      0.16665583E-04
    0.357783778731        -0.13761030E-01      0.41542622E-01      0.95641502E-03     -0.28139609E-02     -0.93067124E-04      0.72199862E-06     -0.13527899E+02      0.10494709E+00      0.17997787E-03
    0.364060687129        -0.12584503E-01      0.45540508E-01      0.84234671E-03     -0.29470446E-02     -0.10543956E-03      0.92748550E-06     -0.14410261E+02      0.12675800E+00      0.37723098E-03
    0.370337595528        -0.11125237E-01      0.49942918E-01      0.71765248E-03     -0.30764669E-02     -0.11971665E-03      0.11963644E-05     -0.15402304E+02      0.15391984E+00      0.61675168E-03
    0.376614503927        -0.93284410E-02      0.54821151E-01      0.58236715E-03     -0.32014454E-02     -0.13628888E-03      0.15528140E-05     -0.16526366E+02      0.18829397E+00      0.90976332E-03
    0.382891412326        -0.71267652E-02      0.60274489E-01      0.43658280E-03     -0.33211872E-02     -0.15567927E-03      0.20258663E-05     -0.17813571E+02      0.23180937E+00      0.12704910E-02
    0.389168320724        -0.44260864E-02      0.66426253E-01      0.28045033E-03     -0.34348931E-02     -0.17855695E-03      0.26666833E-05     -0.19302440E+02      0.28827495E+00      0.17190870E-02
    0.395445229123        -0.11067284E-02      0.73472872E-01      0.11418071E-03     -0.35417624E-02     -0.20590819E-03      0.35348181E-05     -0.21053830E+02      0.36143030E+00      0.22815228E-02
    0.401722137522         0.30191864E-02      0.81662943E-01     -0.61954050E-04     -0.36409969E-02     -0.23904200E-03      0.47672353E-05     -0.23144902E+02      0.46158076E+00      0.29998068E-02
    0.407999045921         0.82131697E-02      0.91371230E-01     -0.24762037E-03     -0.37318063E-02     -0.27989835E-03      0.65480425E-05     -0.25692222E+02      0.60105308E+00      0.39351291E-02
    0.414275954320         0.14888854E-01      0.10317299E+00     -0.44242291E-03     -0.38134124E-02     -0.33144424E-03      0.92228145E-05     -0.28875116E+02      0.80348307E+00      0.51854606E-02
    0.420552862718         0.23712845E-01      0.11800130E+00     -0.64590476E-03     -0.38850545E-02     -0.39848033E-03      0.13380391E-04     -0.32985190E+02      0.11075948E+01      0.69090323E-02
    0.426829771117         0.35934411E-01      0.13738563E+00     -0.85754804E-03     -0.39459939E-02     -0.48909429E-03      0.20472622E-04     -0.38511088E+02      0.16120061E+01      0.94175383E-02
    0.433106679516         0.53889617E-01      0.16423564E+00     -0.10767749E-02     -0.39955188E-02     -0.61867865E-03      0.33325108E-04     -0.46389228E+02      0.24987545E+01      0.13305948E-01
    0.439383587915         0.82939751E-01      0.20458385E+00     -0.13029488E-02     -0.40329496E-02     -0.82001509E-03      0.59694254E-04     -0.58614621E+02      0.42669411E+01      0.19945903E-01
    0.445660496313         0.13948801E+00      0.27333322E+00     -0.15353766E-02     -0.40576432E-02     -0.11794452E-02      0.13042088E-03     -0.80456835E+02      0.88967687E+01      0.33790514E-01
    0.451937404712         0.29382982E+00      0.41663210E+00     -0.17733103E-02     -0.40689980E-02     -0.20032818E-02      0.41286737E-03     -0.13055484E+03      0.26906765E+02      0.75661188E-01
    0.458214313111         0.18076831E+01      0.63281625E+00     -0.20159501E-02     -0.40664584E-02     -0.56979131E-02      0.55674340E-02     -0.35513472E+03      0.34700233E+03      0.61564514E+00
    0.464491221510        -0.15798175E+00     -0.14560775E+01     -0.22624469E-02     -0.40495190E-02      0.58097066E-02      0.24660285E-02      0.34666859E+03      0.14714936E+03      0.84463003E+00
    0.470768129909        -0.16802289E+00     -0.42765039E+00     -0.25119058E-02     -0.40177291E-02      0.20151146E-02      0.37581145E-03      0.11523800E+03      0.21491462E+02      0.87807374E+00
    0.477045038307        -0.12107682E+00     -0.23180511E+00     -0.27633902E-02     -0.39706963E-02      0.11973928E-02      0.15247191E-03      0.65692701E+02      0.83650846E+01      0.89109097E+00
    0.483321946706        -0.92219398E-01     -0.14869036E+00     -0.30159250E-02     -0.39080905E-02      0.83056185E-03      0.85100635E-04      0.43760490E+02      0.44837666E+01      0.89806834E+00
    0.489598855105        -0.71703442E-01     -0.10137479E+00     -0.32685017E-02     -0.38296473E-02      0.60964116E-03      0.55564361E-04      0.30878468E+02      0.28143479E+01      0.90244786E+00
    0.495875763504        -0.54983896E-01     -0.69934770E-01     -0.35200826E-02     -0.37351707E-02      0.45101503E-03      0.40465375E-04      0.21982738E+02      0.19723062E+01      0.90551704E+00
    0.502152671902        -0.39491447E-01     -0.46413823E-01     -0.37696058E-02     -0.36245365E-02      0.31846099E-03      0.31960633E-04      0.14951713E+02      0.15005487E+01      0.90785210E+00
    0.508429580301        -0.23070652E-01     -0.27000267E-01     -0.40159904E-02     -0.34976940E-02      0.19024437E-03      0.28206386E-04      0.86123522E+01      0.12769015E+01      0.90983914E+00
    0.514706488700        -0.26243592E-02     -0.82876407E-02     -0.42581420E-02     -0.33546683E-02      0.40123615E-04      0.27265131E-04      0.17531269E+01      0.11912993E+01      0.91169297E+00
    0.520983397099         0.28041753E-01      0.12118781E-01     -0.44949579E-02     -0.31955620E-02     -0.17168780E-03      0.36610283E-04     -0.72473803E+01      0.15454135E+01      0.91409784E+00
    0.527260305498         0.98989840E-01      0.44286499E-01     -0.47253332E-02     -0.30205562E-02     -0.63432561E-03      0.94628361E-04     -0.25894294E+02      0.38628972E+01      0.92010905E+00
    0.533537213896         0.35562512E+00     -0.39100448E+00     -0.49481664E-02     -0.28299110E-02     -0.69699638E-03      0.31384181E-02     -0.27541752E+02      0.12401432E+03      0.11130926E+01
    0.539814122295        -0.21136222E+00     -0.13590117E+00     -0.51623653E-02     -0.26239662E-02      0.15630092E-02      0.15866669E-03      0.59842248E+02      0.60748020E+01      0.11225458E+01
    0.546091030694        -0.85997960E-01     -0.49486214E-01     -0.53668532E-02     -0.24031409E-02      0.63396885E-03      0.64351403E-04      0.23540354E+02      0.23894783E+01      0.11262642E+01
    0.552367939093        -0.22419314E-01     -0.25995988E-01     -0.55605746E-02     -0.21679328E-02      0.19998130E-03      0.10599837E-03      0.72084830E+01      0.38207945E+01      0.11322099E+01
    0.558644847491         0.87125096E-01     -0.84676594E-01     -0.57425013E-02     -0.19189170E-02     -0.37745244E-03      0.73008320E-03     -0.13220085E+02      0.25570804E+02      0.11720016E+01
    0.564921755890        -0.93723787E-01     -0.15171289E+00     -0.59116382E-02     -0.16567445E-02      0.90998796E-03      0.83788666E-03      0.30997797E+02      0.28541741E+02      0.12164165E+01
    0.571198664289        -0.55912185E-01     -0.59746016E-01     -0.60670292E-02     -0.13821405E-02      0.48186119E-03      0.32581437E-03      0.15978777E+02      0.10804180E+02      0.12332294E+01
    0.577475572688        -0.24493644E-01     -0.67453300E-01     -0.62077628E-02     -0.10959012E-02      0.26098764E-03      0.45261551E-03      0.84327426E+01      0.14624409E+02      0.12559870E+01
    0.583752481087        -0.35121986E-01     -0.92842819E-01     -0.63329777E-02     -0.79889126E-03      0.34627972E-03      0.65370104E-03      0.10911940E+02      0.20599377E+02      0.12880425E+01
    0.590029389485        -0.64038673E-01     -0.83229871E-01     -0.64418678E-02     -0.49204053E-03      0.53513439E-03      0.59551218E-03      0.16461156E+02      0.18318424E+02      0.13165485E+01
    0.596306297884        -0.65442030E-01     -0.62385682E-01     -0.65336874E-02     -0.17633995E-03      0.52305466E-03      0.47235628E-03      0.15720328E+02      0.14196596E+02      0.13386404E+01
