 
 # Omega; pulse ft; proj flux t=    500.050000000000     
    0.000000000000         0.16626861E-13      0.00000000E+00      0.00000000E+00      0.00000000E+00      0.00000000E+00      0.00000000E+00      0.00000000E+00
    0.006280045285         0.55619039E-10     -0.69857882E+03     -0.10367878E-07     -0.38345888E-06     -0.56910611E-17     -0.24081391E-08     -0.35740121E-19
    0.012560090569         0.22310564E-09     -0.20584341E+03     -0.12224724E-07     -0.22661958E-06     -0.13458588E-16     -0.38313203E-08     -0.12026066E-18
    0.018840135854         0.50451792E-09     -0.22761717E+02     -0.93088823E-08     -0.37778113E-07     -0.15450153E-16     -0.40685686E-08     -0.21728832E-18
    0.025120181138         0.90326950E-09     -0.99023877E+01     -0.70064798E-08     -0.22068722E-07     -0.15614825E-16     -0.42071612E-08     -0.31535013E-18
    0.031400226423         0.14241628E-08     -0.22881789E+01     -0.56152113E-08     -0.64321995E-08     -0.15784674E-16     -0.42475557E-08     -0.41447860E-18
    0.037680271707         0.20734119E-08     -0.17611166E+00     -0.46385544E-08     -0.60062351E-09     -0.15819650E-16     -0.42513276E-08     -0.51382672E-18
    0.043960316992         0.28586714E-08      0.12888853E+01     -0.39369408E-08      0.51946986E-08     -0.15867371E-16     -0.42187047E-08     -0.61347453E-18
    0.050240362276         0.37890711E-08      0.15077782E+01     -0.34024409E-08      0.70479064E-08     -0.15904252E-16     -0.41744435E-08     -0.71335396E-18
    0.056520407561         0.48752551E-08      0.16636941E+01     -0.29757793E-08      0.88942270E-08     -0.15908728E-16     -0.41185874E-08     -0.81326149E-18
    0.062800452845         0.61294263E-08      0.18596245E+01     -0.26320795E-08      0.11249287E-07     -0.15922041E-16     -0.40479413E-08     -0.91325262E-18
    0.069080498130         0.75653939E-08      0.20013464E+01     -0.23486085E-08      0.13584418E-07     -0.15941508E-16     -0.39626306E-08     -0.10133660E-17
    0.075360543414         0.91986243E-08      0.19320093E+01     -0.21046743E-08      0.14616074E-07     -0.15922323E-16     -0.38708410E-08     -0.11133589E-17
    0.081640588699         0.11046294E-07      0.18648691E+01     -0.18993896E-08      0.15638731E-07     -0.15928219E-16     -0.37726290E-08     -0.12133889E-17
    0.087920633984         0.13127346E-07      0.17161789E+01     -0.17224165E-08      0.15881494E-07     -0.15939217E-16     -0.36728925E-08     -0.13134879E-17
    0.094200679268         0.15462541E-07      0.15848430E+01     -0.15657293E-08      0.16123367E-07     -0.15928914E-16     -0.35716370E-08     -0.14135222E-17
    0.100480724553         0.18074516E-07      0.14490003E+01     -0.14290277E-08      0.16154558E-07     -0.15931888E-16     -0.34701857E-08     -0.15135751E-17
    0.106760769837         0.20987836E-07      0.13284791E+01     -0.13082429E-08      0.16186516E-07     -0.15939953E-16     -0.33685336E-08     -0.16136788E-17
    0.113040815122         0.24229044E-07      0.12054756E+01     -0.12003190E-08      0.16014083E-07     -0.15945581E-16     -0.32679645E-08     -0.17138177E-17
    0.119320860406         0.27826708E-07      0.10962991E+01     -0.11033242E-08      0.15845910E-07     -0.15947451E-16     -0.31684514E-08     -0.18139684E-17
    0.125600905691         0.31811467E-07      0.98760783E+00     -0.10162440E-08      0.15503085E-07     -0.15952604E-16     -0.30710914E-08     -0.19141515E-17
    0.131880950975         0.36216061E-07      0.89123727E+00     -0.93725871E-09      0.15168937E-07     -0.15952226E-16     -0.29758298E-08     -0.20143322E-17
    0.138160996260         0.41075368E-07      0.79971794E+00     -0.86568067E-09      0.14735861E-07     -0.15951312E-16     -0.28832879E-08     -0.21145072E-17
    0.144441041544         0.46426423E-07      0.71860215E+00     -0.80106857E-09      0.14315476E-07     -0.15958313E-16     -0.27933860E-08     -0.22147261E-17
    0.150721086829         0.52308432E-07      0.64417527E+00     -0.74138481E-09      0.13856208E-07     -0.15947185E-16     -0.27063684E-08     -0.23148752E-17
    0.157001132113         0.58762774E-07      0.57823418E+00     -0.68747923E-09      0.13413618E-07     -0.15947836E-16     -0.26221303E-08     -0.24150283E-17
    0.163281177398         0.65832996E-07      0.51903948E+00     -0.63838546E-09      0.12970316E-07     -0.15952662E-16     -0.25406761E-08     -0.25152117E-17
    0.169561222683         0.73564796E-07      0.46663892E+00     -0.59336465E-09      0.12547787E-07     -0.15955405E-16     -0.24618755E-08     -0.26154124E-17
    0.175841267967         0.82005985E-07      0.42033093E+00     -0.55202313E-09      0.12149510E-07     -0.15956025E-16     -0.23855760E-08     -0.27156170E-17
    0.182121313252         0.91206450E-07      0.37940759E+00     -0.51417793E-09      0.11776425E-07     -0.15959559E-16     -0.23116195E-08     -0.28158437E-17
    0.188401358536         0.10121809E-06      0.34365376E+00     -0.47904696E-09      0.11442947E-07     -0.15951255E-16     -0.22397573E-08     -0.29160183E-17
    0.194681403821         0.11209474E-06      0.31215433E+00     -0.44701236E-09      0.11139683E-07     -0.15952288E-16     -0.21697996E-08     -0.30161994E-17
    0.200961449105         0.12389210E-06      0.28494458E+00     -0.41761219E-09      0.10887644E-07     -0.15956833E-16     -0.21014247E-08     -0.31164090E-17
    0.207241494390         0.13666760E-06      0.26109416E+00     -0.39037640E-09      0.10671579E-07     -0.15955671E-16     -0.20344067E-08     -0.32166114E-17
    0.213521539674         0.15048030E-06      0.24068894E+00     -0.36529450E-09      0.10513244E-07     -0.15955990E-16     -0.19683830E-08     -0.33168157E-17
    0.219801584959         0.16539075E-06      0.22295213E+00     -0.34220634E-09      0.10397638E-07     -0.15959201E-16     -0.19030854E-08     -0.34170402E-17
    0.226081630243         0.18146085E-06      0.20794667E+00     -0.32075536E-09      0.10344567E-07     -0.15956377E-16     -0.18381210E-08     -0.35172470E-17
    0.232361675528         0.19875365E-06      0.19508782E+00     -0.30101002E-09      0.10342450E-07     -0.15957845E-16     -0.17731700E-08     -0.36174630E-17
    0.238641720812         0.21733318E-06      0.18439322E+00     -0.28274027E-09      0.10408000E-07     -0.15959159E-16     -0.17078073E-08     -0.37176872E-17
    0.244921766097         0.23726424E-06      0.17545841E+00     -0.26576219E-09      0.10534691E-07     -0.15956616E-16     -0.16416489E-08     -0.38178955E-17
    0.251201811381         0.25861222E-06      0.16827524E+00     -0.25006523E-09      0.10737153E-07     -0.15955935E-16     -0.15742191E-08     -0.39180995E-17
    0.257481856666         0.28144279E-06      0.16257139E+00     -0.23556685E-09      0.11013625E-07     -0.15958804E-16     -0.15050530E-08     -0.40183215E-17
    0.263761901951         0.30582173E-06      0.15835287E+00     -0.22202133E-09      0.11379545E-07     -0.15954884E-16     -0.14335890E-08     -0.41185189E-17
    0.270041947235         0.33181462E-06      0.15541951E+00     -0.20950461E-09      0.11836206E-07     -0.15955137E-16     -0.13592571E-08     -0.42187179E-17
    0.276321992520         0.35948656E-06      0.15388493E+00     -0.19789282E-09      0.12408120E-07     -0.15956584E-16     -0.12813335E-08     -0.43189260E-17
    0.282602037804         0.38890192E-06      0.15351111E+00     -0.18706504E-09      0.13093245E-07     -0.15955122E-16     -0.11991074E-08     -0.44191248E-17
    0.288882083089         0.42012400E-06      0.15472379E+00     -0.17701948E-09      0.13946225E-07     -0.15955875E-16     -0.11115244E-08     -0.45193285E-17
    0.295162128373         0.45321473E-06      0.15702473E+00     -0.16766679E-09      0.14943561E-07     -0.15956333E-16     -0.10176782E-08     -0.46195349E-17
    0.301442173658         0.48823435E-06      0.16149198E+00     -0.15896458E-09      0.16211304E-07     -0.15957592E-16     -0.91587047E-09     -0.47197493E-17
    0.307722218942         0.52524111E-06      0.16701375E+00     -0.15085333E-09      0.17668300E-07     -0.15958697E-16     -0.80491275E-09     -0.48199707E-17
    0.314002264227         0.56429086E-06      0.17568245E+00     -0.14328250E-09      0.19567768E-07     -0.15959014E-16     -0.68202628E-09     -0.49201940E-17
    0.320282309511         0.60543679E-06      0.18545666E+00     -0.13622895E-09      0.21728061E-07     -0.15960554E-16     -0.54557307E-09     -0.50204270E-17
    0.326562354796         0.64872905E-06      0.20053247E+00     -0.12964275E-09      0.24690199E-07     -0.15962030E-16     -0.39051750E-09     -0.51206693E-17
    0.332842400080         0.69421440E-06      0.21693179E+00     -0.12348160E-09      0.28042766E-07     -0.15962463E-16     -0.21440767E-09     -0.52209143E-17
    0.339122445365         0.74193587E-06      0.24380022E+00     -0.11766274E-09      0.33058763E-07     -0.15954804E-16     -0.67971387E-11     -0.53211112E-17
    0.345402490650         0.79193243E-06      0.27268409E+00     -0.11228410E-09      0.38749414E-07     -0.15955984E-16      0.23655094E-09     -0.54213155E-17
    0.351682535934         0.84423861E-06      0.32523769E+00     -0.10724234E-09      0.48390259E-07     -0.15955975E-16      0.54044396E-09     -0.55215197E-17
    0.357962581219         0.89888421E-06      0.38272298E+00     -0.10254445E-09      0.59565299E-07     -0.15959562E-16      0.91451674E-09     -0.56217465E-17
    0.364242626503         0.95589395E-06      0.50727390E+00     -0.98129222E-10      0.82509534E-07     -0.15960996E-16      0.14326803E-08     -0.57219823E-17
    0.370522671788         0.10152872E-05      0.65421765E+00     -0.93984601E-10      0.11110639E-06     -0.15961492E-16      0.21304335E-08     -0.58222212E-17
    0.376802717072         0.10770774E-05      0.10945873E+01     -0.90128899E-10      0.19392150E-06     -0.15967600E-16      0.33482693E-08     -0.59224984E-17
    0.383082762357         0.11412724E-05      0.17515030E+01     -0.86460679E-10      0.32340763E-06     -0.15964599E-16      0.53792839E-08     -0.60227568E-17
    0.389362807641         0.12078734E-05      0.61280424E+01     -0.83077534E-10      0.11782335E-05     -0.15973247E-16      0.12778644E-07     -0.61230695E-17
    0.395642852926         0.12768751E-05      0.27551280E+02     -0.80069360E-10      0.55109893E-05     -0.16016003E-16      0.47387906E-07     -0.62236508E-17
    0.401922898210         0.13482657E-05      0.53542954E+02     -0.77187662E-10      0.11132116E-04     -0.16048088E-16      0.11729810E-06     -0.63244335E-17
    0.408202943495         0.14220259E-05      0.47207534E+02     -0.75499197E-10      0.10192609E-04     -0.16301081E-16      0.18130815E-06     -0.64268050E-17
    0.414482988779         0.14981296E-05      0.21365238E+02     -0.71907252E-10      0.47862249E-05     -0.16108609E-16      0.21136586E-06     -0.65279678E-17
    0.420763034064         0.15765431E-05      0.97092279E+01     -0.69011934E-10      0.22547357E-05     -0.16026369E-16      0.22552570E-06     -0.66286141E-17
    0.427043079349         0.16572251E-05      0.86116606E+01     -0.66336961E-10      0.20712827E-05     -0.15955413E-16      0.23853345E-06     -0.67288148E-17
    0.433323124633         0.17401266E-05      0.87981798E+01     -0.64322653E-10      0.21898001E-05     -0.16009420E-16      0.25228549E-06     -0.68293547E-17
    0.439603169918         0.18251908E-05      0.95163482E+01     -0.62217574E-10      0.24488402E-05     -0.16010438E-16      0.26766432E-06     -0.69299010E-17
    0.445883215202         0.19123531E-05      0.10654436E+02     -0.60226066E-10      0.28321750E-05     -0.16009366E-16      0.28545051E-06     -0.70304405E-17
    0.452163260487         0.20015409E-05      0.13501841E+02     -0.58376307E-10      0.37042888E-05     -0.16015794E-16      0.30871361E-06     -0.71310204E-17
    0.458443305771         0.20926735E-05      0.18617466E+02     -0.57180435E-10      0.52671914E-05     -0.16177298E-16      0.34179181E-06     -0.72326146E-17
    0.464723351056         0.21856626E-05      0.25420715E+02     -0.55732390E-10      0.74100146E-05     -0.16245720E-16      0.38832704E-06     -0.73346385E-17
    0.471003396340         0.22804117E-05      0.31990326E+02     -0.53432180E-10      0.95995430E-05     -0.16033738E-16      0.44861260E-06     -0.74353311E-17
    0.477283441625         0.23768165E-05      0.36097646E+02     -0.51900133E-10      0.11141428E-04     -0.16018817E-16      0.51858127E-06     -0.75359300E-17
    0.483563486909         0.24747652E-05      0.37729492E+02     -0.51490601E-10      0.11967519E-04     -0.16332442E-16      0.59373783E-06     -0.76384984E-17
    0.489843532194         0.25741382E-05      0.38574007E+02     -0.50109363E-10      0.12563537E-04     -0.16320597E-16      0.67263741E-06     -0.77409925E-17
    0.496123577478         0.26748086E-05      0.39713935E+02     -0.48805668E-10      0.13270536E-04     -0.16308567E-16      0.75597698E-06     -0.78434111E-17
    0.502403622763         0.27766424E-05      0.41286440E+02     -0.47566099E-10      0.14142211E-04     -0.16293238E-16      0.84479070E-06     -0.79457333E-17
    0.508683668048         0.28794986E-05      0.43026801E+02     -0.47618131E-10      0.15095615E-04     -0.16706447E-16      0.93959185E-06     -0.80506506E-17
    0.514963713332         0.29832293E-05      0.44647902E+02     -0.45279783E-10      0.16030746E-04     -0.16257622E-16      0.10402657E-05     -0.81527492E-17
    0.521243758617         0.30876806E-05      0.45949808E+02     -0.44203147E-10      0.16870109E-04     -0.16228836E-16      0.11462107E-05     -0.82546670E-17
    0.527523803901         0.31926924E-05      0.46888579E+02     -0.43184402E-10      0.17588336E-04     -0.16198865E-16      0.12566663E-05     -0.83563966E-17
    0.533803849186         0.32980988E-05      0.47501807E+02     -0.42205105E-10      0.18190087E-04     -0.16161796E-16      0.13709008E-05     -0.84578934E-17
    0.540083894470         0.34037289E-05      0.47880470E+02     -0.41261664E-10      0.18702291E-04     -0.16116961E-16      0.14883521E-05     -0.85591087E-17
    0.546363939755         0.35094067E-05      0.48092995E+02     -0.43096207E-10      0.19145917E-04     -0.17156686E-16      0.16085893E-05     -0.86668534E-17
    0.552643985039         0.36149520E-05      0.48197779E+02     -0.42262545E-10      0.19540100E-04     -0.17133868E-16      0.17313020E-05     -0.87744549E-17
    0.558924030324         0.37201804E-05      0.48218263E+02     -0.41454601E-10      0.19891405E-04     -0.17101202E-16      0.18562209E-05     -0.88818512E-17
    0.565204075608         0.38249044E-05      0.48174639E+02     -0.40690537E-10      0.20205818E-04     -0.17066772E-16      0.19831144E-05     -0.89890313E-17
    0.571484120893         0.39289333E-05      0.48069714E+02     -0.39971261E-10      0.20482582E-04     -0.17031818E-16      0.21117459E-05     -0.90959919E-17
    0.577764166177         0.40320740E-05      0.47912063E+02     -0.39278288E-10      0.20723611E-04     -0.16989208E-16      0.22418911E-05     -0.92026849E-17
    0.584044211462         0.41341318E-05      0.47702915E+02     -0.35929962E-10      0.20927926E-04     -0.15762969E-16      0.23733195E-05     -0.93016771E-17
    0.590324256747         0.42349105E-05      0.47449173E+02     -0.35330598E-10      0.21097205E-04     -0.15708954E-16      0.25058109E-05     -0.94003300E-17
    0.596604302031         0.43342134E-05      0.47153719E+02     -0.34758756E-10      0.21231591E-04     -0.15650594E-16      0.26391462E-05     -0.94986164E-17
    0.602884347316         0.44318436E-05      0.46822145E+02     -0.36893596E-10      0.21332630E-04     -0.16809085E-16      0.27731161E-05     -0.96041783E-17
    0.609164392600         0.45276046E-05      0.46457562E+02     -0.36381666E-10      0.21400951E-04     -0.16759430E-16      0.29075150E-05     -0.97094282E-17
    0.615444437885         0.46213012E-05      0.46063690E+02     -0.35890105E-10      0.21437633E-04     -0.16702936E-16      0.30421443E-05     -0.98143234E-17
    0.621724483169         0.47127398E-05      0.45643241E+02     -0.35437767E-10      0.21443449E-04     -0.16648861E-16      0.31768102E-05     -0.99188790E-17
    0.628004528454         0.48017293E-05      0.45198509E+02     -0.35016252E-10      0.21419123E-04     -0.16593853E-16      0.33113232E-05     -0.10023089E-16
    0.634284573738         0.48880813E-05      0.44732085E+02     -0.34619944E-10      0.21365649E-04     -0.16535727E-16      0.34455005E-05     -0.10126934E-16
    0.640564619023         0.49716111E-05      0.44245513E+02     -0.34257895E-10      0.21283650E-04     -0.16479254E-16      0.35791628E-05     -0.10230425E-16
    0.646844664307         0.50521382E-05      0.43741571E+02     -0.33927865E-10      0.21174456E-04     -0.16423829E-16      0.37121393E-05     -0.10333567E-16
    0.653124709592         0.51294867E-05      0.43221433E+02     -0.36075533E-10      0.21038735E-04     -0.17560352E-16      0.38442635E-05     -0.10443847E-16
    0.659404754876         0.52034861E-05      0.42688100E+02     -0.35765795E-10      0.20878141E-04     -0.17492540E-16      0.39753792E-05     -0.10553701E-16
    0.665684800161         0.52739718E-05      0.42142473E+02     -0.35491397E-10      0.20693400E-04     -0.17427494E-16      0.41053347E-05     -0.10663146E-16
    0.671964845445         0.53407857E-05      0.41587638E+02     -0.32875307E-10      0.20486394E-04     -0.16194632E-16      0.42339902E-05     -0.10764849E-16
    0.678244890730         0.54037765E-05      0.41024200E+02     -0.32686333E-10      0.20257864E-04     -0.16140602E-16      0.43612105E-05     -0.10866213E-16
    0.684524936015         0.54628005E-05      0.40455165E+02     -0.32526832E-10      0.20009799E-04     -0.16088313E-16      0.44868729E-05     -0.10967248E-16
    0.690804981299         0.55177220E-05      0.39880807E+02     -0.32388488E-10      0.19742901E-04     -0.16033846E-16      0.46108592E-05     -0.11067942E-16
    0.697085026584         0.55684138E-05      0.39303927E+02     -0.32289185E-10      0.19459172E-04     -0.15986210E-16      0.47330637E-05     -0.11168336E-16
    0.703365071868         0.56147573E-05      0.38724465E+02     -0.34413646E-10      0.19159241E-04     -0.17026428E-16      0.48533846E-05     -0.11275263E-16
    0.709645117153         0.56566434E-05      0.38144961E+02     -0.34328246E-10      0.18845056E-04     -0.16959454E-16      0.49717324E-05     -0.11381769E-16
    0.715925162437         0.56939728E-05      0.37565027E+02     -0.34269087E-10      0.18517150E-04     -0.16892463E-16      0.50880209E-05     -0.11487854E-16
    0.722205207722         0.57266558E-05      0.36986945E+02     -0.34246410E-10      0.18177393E-04     -0.16830546E-16      0.52021758E-05     -0.11593551E-16
    0.728485253006         0.57546134E-05      0.36409957E+02     -0.34246542E-10      0.17826178E-04     -0.16766978E-16      0.53141250E-05     -0.11698848E-16
    0.734765298291         0.57777770E-05      0.35836169E+02     -0.34294054E-10      0.17465314E-04     -0.16713740E-16      0.54238080E-05     -0.11803811E-16
    0.741045343575         0.57960889E-05      0.35264110E+02     -0.34355834E-10      0.17094872E-04     -0.16654570E-16      0.55311645E-05     -0.11908403E-16
    0.747325388860         0.58095025E-05      0.34696038E+02     -0.34441081E-10      0.16716747E-04     -0.16593907E-16      0.56361465E-05     -0.12012613E-16
    0.753605434144         0.58179822E-05      0.34127497E+02     -0.36506854E-10      0.16329598E-04     -0.17468091E-16      0.57386971E-05     -0.12122313E-16
    0.759885479429         0.58215039E-05      0.33563790E+02     -0.34721192E-10      0.15936785E-04     -0.16486344E-16      0.58387808E-05     -0.12225848E-16
    0.766165524714         0.58200549E-05      0.33031446E+02     -0.34901974E-10      0.15551588E-04     -0.16432254E-16      0.59364455E-05     -0.12329044E-16
