 
 # Omega; pulse ft; proj flux t=    500.050000000000     
    0.000000000000         0.16626861E-13      0.00000000E+00      0.00000000E+00      0.00000000E+00      0.00000000E+00      0.00000000E+00      0.00000000E+00
    0.006280045285         0.55619039E-10     -0.99913437E+03     -0.53687762E-07     -0.54843767E-06     -0.29469901E-16     -0.34442134E-08     -0.18507231E-18
    0.012560090569         0.22310564E-09     -0.34392353E+03     -0.63190399E-07     -0.37863639E-06     -0.69568327E-16     -0.58220671E-08     -0.62196456E-18
    0.018840135854         0.50451792E-09     -0.96481247E+02     -0.48305951E-07     -0.16013201E-06     -0.80174429E-16     -0.68277033E-08     -0.11254636E-17
    0.025120181138         0.90326950E-09     -0.57392190E+02     -0.36354841E-07     -0.12790574E-06     -0.81021355E-16     -0.76309572E-08     -0.16342814E-17
    0.031400226423         0.14241628E-08     -0.34050249E+02     -0.29128067E-07     -0.95717163E-07     -0.81880632E-16     -0.82320653E-08     -0.21484955E-17
    0.037680271707         0.20734119E-08     -0.24141390E+02     -0.24073886E-07     -0.82333484E-07     -0.82103266E-16     -0.87491233E-08     -0.26641077E-17
    0.043960316992         0.28586714E-08     -0.17111825E+02     -0.20429406E-07     -0.68967174E-07     -0.82338287E-16     -0.91822403E-08     -0.31811959E-17
    0.050240362276         0.37890711E-08     -0.13264318E+02     -0.17637224E-07     -0.62002268E-07     -0.82442829E-16     -0.95716174E-08     -0.36989406E-17
    0.056520407561         0.48752551E-08     -0.10295786E+02     -0.15438720E-07     -0.55042003E-07     -0.82536494E-16     -0.99172836E-08     -0.42172735E-17
    0.062800452845         0.61294263E-08     -0.83296015E+01     -0.13652179E-07     -0.50387632E-07     -0.82585102E-16     -0.10233720E-07     -0.47359117E-17
    0.069080498130         0.75653939E-08     -0.67382733E+01     -0.12174934E-07     -0.45736969E-07     -0.82639059E-16     -0.10520950E-07     -0.52548887E-17
    0.075360543414         0.91986243E-08     -0.56195590E+01     -0.10925582E-07     -0.42513197E-07     -0.82654423E-16     -0.10787935E-07     -0.57739622E-17
    0.081640588699         0.11046294E-07     -0.46851714E+01     -0.98598829E-08     -0.39289694E-07     -0.82684653E-16     -0.11034676E-07     -0.62932256E-17
    0.087920633984         0.13127346E-07     -0.39835773E+01     -0.89372858E-08     -0.36863965E-07     -0.82705508E-16     -0.11266184E-07     -0.68126199E-17
    0.094200679268         0.15462541E-07     -0.33849781E+01     -0.81303687E-08     -0.34437004E-07     -0.82714136E-16     -0.11482450E-07     -0.73320684E-17
    0.100480724553         0.18074516E-07     -0.29178388E+01     -0.74203483E-08     -0.32530287E-07     -0.82727687E-16     -0.11686741E-07     -0.78516021E-17
    0.106760769837         0.20987836E-07     -0.25131577E+01     -0.67909966E-08     -0.30620930E-07     -0.82743169E-16     -0.11879042E-07     -0.83712329E-17
    0.113040815122         0.24229044E-07     -0.21881320E+01     -0.62291756E-08     -0.29068136E-07     -0.82751189E-16     -0.12061591E-07     -0.88909141E-17
    0.119320860406         0.27826708E-07     -0.19033804E+01     -0.57258729E-08     -0.27511466E-07     -0.82761782E-16     -0.12234365E-07     -0.94106619E-17
    0.125600905691         0.31811467E-07     -0.16700218E+01     -0.52727346E-08     -0.26215355E-07     -0.82769343E-16     -0.12398998E-07     -0.99304571E-17
    0.131880950975         0.36216061E-07     -0.14638069E+01     -0.48632228E-08     -0.24914123E-07     -0.82772482E-16     -0.12555460E-07     -0.10450272E-16
    0.138160996260         0.41075368E-07     -0.12922036E+01     -0.44923790E-08     -0.23810561E-07     -0.82778027E-16     -0.12704991E-07     -0.10970122E-16
    0.144441041544         0.46426423E-07     -0.11395148E+01     -0.41555942E-08     -0.22700596E-07     -0.82784765E-16     -0.12847552E-07     -0.11490014E-16
    0.150721086829         0.52308432E-07     -0.10109869E+01     -0.38485735E-08     -0.21746327E-07     -0.82782806E-16     -0.12984120E-07     -0.12009894E-16
    0.157001132113         0.58762774E-07     -0.89597313E+00     -0.35687978E-08     -0.20784384E-07     -0.82787377E-16     -0.13114647E-07     -0.12529802E-16
    0.163281177398         0.65832996E-07     -0.79851195E+00     -0.33130874E-08     -0.19954075E-07     -0.82790989E-16     -0.13239959E-07     -0.13049733E-16
    0.169561222683         0.73564796E-07     -0.71085769E+00     -0.30790223E-08     -0.19114759E-07     -0.82794027E-16     -0.13360001E-07     -0.13569683E-16
    0.175841267967         0.82005985E-07     -0.63651173E+00     -0.28644759E-08     -0.18398136E-07     -0.82796617E-16     -0.13475542E-07     -0.14089650E-16
    0.182121313252         0.91206450E-07     -0.56931711E+00     -0.26676351E-08     -0.17671023E-07     -0.82800675E-16     -0.13586517E-07     -0.14609642E-16
    0.188401358536         0.10121809E-06     -0.51265862E+00     -0.24865885E-08     -0.17070453E-07     -0.82798165E-16     -0.13693720E-07     -0.15129618E-16
    0.194681403821         0.11209474E-06     -0.46117365E+00     -0.23202342E-08     -0.16457654E-07     -0.82800942E-16     -0.13797075E-07     -0.15649612E-16
    0.200961449105         0.12389210E-06     -0.41839201E+00     -0.21671103E-08     -0.15986630E-07     -0.82804617E-16     -0.13897472E-07     -0.16169629E-16
    0.207241494390         0.13666760E-06     -0.37925881E+00     -0.20259104E-08     -0.15501267E-07     -0.82804082E-16     -0.13994820E-07     -0.16689642E-16
    0.213521539674         0.15048030E-06     -0.34764272E+00     -0.18957584E-08     -0.15184964E-07     -0.82806345E-16     -0.14090183E-07     -0.17209670E-16
    0.219801584959         0.16539075E-06     -0.31845802E+00     -0.17756199E-08     -0.14851669E-07     -0.82808150E-16     -0.14183452E-07     -0.17729709E-16
    0.226081630243         0.18146085E-06     -0.29606267E+00     -0.16646046E-08     -0.14728008E-07     -0.82807837E-16     -0.14275944E-07     -0.18249746E-16
    0.232361675528         0.19875365E-06     -0.27509402E+00     -0.15620265E-08     -0.14583926E-07     -0.82809790E-16     -0.14367532E-07     -0.18769795E-16
    0.238641720812         0.21733318E-06     -0.26054134E+00     -0.14671258E-08     -0.14706149E-07     -0.82811316E-16     -0.14459887E-07     -0.19289854E-16
    0.244921766097         0.23726424E-06     -0.24655563E+00     -0.13792234E-08     -0.14803436E-07     -0.82809890E-16     -0.14552854E-07     -0.19809903E-16
    0.251201811381         0.25861222E-06     -0.23892577E+00     -0.12978434E-08     -0.15245159E-07     -0.82811610E-16     -0.14648594E-07     -0.20329964E-16
    0.257481856666         0.28144279E-06     -0.23109492E+00     -0.12224059E-08     -0.15655847E-07     -0.82813589E-16     -0.14746913E-07     -0.20850037E-16
    0.263761901951         0.30582173E-06     -0.22988220E+00     -0.11523754E-08     -0.16519781E-07     -0.82811939E-16     -0.14850658E-07     -0.21370100E-16
    0.270041947235         0.33181462E-06     -0.22774418E+00     -0.10874007E-08     -0.17344199E-07     -0.82812631E-16     -0.14959581E-07     -0.21890167E-16
    0.276321992520         0.35948656E-06     -0.23284775E+00     -0.10270437E-08     -0.18775086E-07     -0.82813052E-16     -0.15077489E-07     -0.22410237E-16
    0.282602037804         0.38890192E-06     -0.23629727E+00     -0.97094055E-09     -0.20154229E-07     -0.82813305E-16     -0.15204059E-07     -0.22930308E-16
    0.288882083089         0.42012400E-06     -0.24803983E+00     -0.91876705E-09     -0.22357384E-07     -0.82814231E-16     -0.15344464E-07     -0.23450385E-16
    0.295162128373         0.45321473E-06     -0.25734399E+00     -0.87021742E-09     -0.24490637E-07     -0.82815920E-16     -0.15498266E-07     -0.23970473E-16
    0.301442173658         0.48823435E-06     -0.27664008E+00     -0.82498302E-09     -0.27770397E-07     -0.82815572E-16     -0.15672666E-07     -0.24490558E-16
    0.307722218942         0.52524111E-06     -0.29258167E+00     -0.78284587E-09     -0.30952066E-07     -0.82816866E-16     -0.15867046E-07     -0.25010652E-16
    0.314002264227         0.56429086E-06     -0.32136514E+00     -0.74354060E-09     -0.35794118E-07     -0.82816638E-16     -0.16091835E-07     -0.25530744E-16
    0.320282309511         0.60543679E-06     -0.34560048E+00     -0.70687566E-09     -0.40490474E-07     -0.82817394E-16     -0.16346117E-07     -0.26050841E-16
    0.326562354796         0.64872905E-06     -0.38764565E+00     -0.67263280E-09     -0.47728174E-07     -0.82816705E-16     -0.16645852E-07     -0.26570934E-16
    0.332842400080         0.69421440E-06     -0.42335347E+00     -0.64065032E-09     -0.54726890E-07     -0.82816848E-16     -0.16989539E-07     -0.27091027E-16
    0.339122445365         0.74193587E-06     -0.48500030E+00     -0.61075342E-09     -0.65764954E-07     -0.82816794E-16     -0.17402546E-07     -0.27611121E-16
    0.345402490650         0.79193243E-06     -0.53731752E+00     -0.58280223E-09     -0.76354798E-07     -0.82818343E-16     -0.17882058E-07     -0.28131224E-16
    0.351682535934         0.84423861E-06     -0.63125571E+00     -0.55661275E-09     -0.93920933E-07     -0.82815233E-16     -0.18471885E-07     -0.28651307E-16
    0.357962581219         0.89888421E-06     -0.70945429E+00     -0.53211769E-09     -0.11041631E-06     -0.82816428E-16     -0.19165305E-07     -0.29171398E-16
    0.364242626503         0.95589395E-06     -0.86193215E+00     -0.50916216E-09     -0.14019570E-06     -0.82816666E-16     -0.20045740E-07     -0.29691490E-16
    0.370522671788         0.10152872E-05     -0.97802748E+00     -0.48764153E-09     -0.16609931E-06     -0.82816613E-16     -0.21088851E-07     -0.30211582E-16
    0.376802717072         0.10770774E-05     -0.12308662E+01     -0.46741946E-09     -0.21806522E-06     -0.82809921E-16     -0.22458311E-07     -0.30731633E-16
    0.383082762357         0.11412724E-05     -0.13016802E+01     -0.44851833E-09     -0.24034976E-06     -0.82817015E-16     -0.23967718E-07     -0.31251727E-16
    0.389362807641         0.12078734E-05     -0.77971166E+00     -0.43074411E-09     -0.14991450E-06     -0.82818806E-16     -0.24909188E-07     -0.31771833E-16
    0.395642852926         0.12768751E-05      0.97893871E+01     -0.41415056E-09      0.19581380E-05     -0.82841134E-16     -0.12611993E-07     -0.32292079E-16
    0.401922898210         0.13482657E-05      0.32478753E+02     -0.39860705E-09      0.67526580E-05     -0.82874398E-16      0.29795005E-07     -0.32812534E-16
    0.408202943495         0.14220259E-05      0.35679128E+02     -0.38479247E-09      0.77035036E-05     -0.83080791E-16      0.78173357E-07     -0.33334285E-16
    0.414482988779         0.14981296E-05      0.17810330E+02     -0.37025851E-09      0.39898570E-05     -0.82945038E-16      0.10322984E-06     -0.33855184E-16
    0.420763034064         0.15765431E-05      0.84898804E+01     -0.35688677E-09      0.19715714E-05     -0.82878408E-16      0.11561140E-06     -0.34375664E-16
    0.427043079349         0.16572251E-05      0.69155682E+01     -0.34432827E-09      0.16633374E-05     -0.82818081E-16      0.12605723E-06     -0.34895765E-16
    0.433323124633         0.17401266E-05      0.61754174E+01     -0.33290359E-09      0.15370145E-05     -0.82857176E-16      0.13570975E-06     -0.35416112E-16
    0.439603169918         0.18251908E-05      0.57419811E+01     -0.32197055E-09      0.14775830E-05     -0.82852626E-16      0.14498904E-06     -0.35936430E-16
    0.445883215202         0.19123531E-05      0.58811222E+01     -0.31167641E-09      0.15633270E-05     -0.82850199E-16      0.15480680E-06     -0.36456733E-16
    0.452163260487         0.20015409E-05      0.81020129E+01     -0.30200370E-09      0.22228225E-05     -0.82856030E-16      0.16876623E-06     -0.36977073E-16
    0.458443305771         0.20926735E-05      0.10613779E+02     -0.29318335E-09      0.30028148E-05     -0.82946453E-16      0.18762404E-06     -0.37497980E-16
    0.464723351056         0.21856626E-05      0.12644156E+02     -0.28461855E-09      0.36857098E-05     -0.82964922E-16      0.21077047E-06     -0.38019004E-16
    0.471003396340         0.22804117E-05      0.14008192E+02     -0.27611226E-09      0.42035285E-05     -0.82854783E-16      0.23716882E-06     -0.38539336E-16
    0.477283441625         0.23768165E-05      0.14402573E+02     -0.26841811E-09      0.44453099E-05     -0.82846425E-16      0.26508556E-06     -0.39059615E-16
    0.483563486909         0.24747652E-05      0.14344579E+02     -0.26155745E-09      0.45499958E-05     -0.82964113E-16      0.29365974E-06     -0.39580633E-16
    0.489843532194         0.25741382E-05      0.14232653E+02     -0.25470004E-09      0.46355686E-05     -0.82955688E-16      0.32277132E-06     -0.40101599E-16
    0.496123577478         0.26748086E-05      0.14245903E+02     -0.24823392E-09      0.47603130E-05     -0.82948139E-16      0.35266631E-06     -0.40622517E-16
    0.502403622763         0.27766424E-05      0.14365692E+02     -0.24213167E-09      0.49208080E-05     -0.82939511E-16      0.38356920E-06     -0.41143381E-16
    0.508683668048         0.28794986E-05      0.14578249E+02     -0.23679047E-09      0.51146640E-05     -0.83076073E-16      0.41568953E-06     -0.41665102E-16
    0.514963713332         0.29832293E-05      0.14837474E+02     -0.23095062E-09      0.53273673E-05     -0.82922390E-16      0.44914563E-06     -0.42185859E-16
    0.521243758617         0.30876806E-05      0.15105062E+02     -0.22583011E-09      0.55457039E-05     -0.82911740E-16      0.48397290E-06     -0.42706548E-16
    0.527523803901         0.31926924E-05      0.15368737E+02     -0.22100775E-09      0.57649544E-05     -0.82902034E-16      0.52017708E-06     -0.43227177E-16
    0.533803849186         0.32980988E-05      0.15595572E+02     -0.21646037E-09      0.59720844E-05     -0.82890170E-16      0.55768204E-06     -0.43747731E-16
    0.540083894470         0.34037289E-05      0.15797759E+02     -0.21217380E-09      0.61706641E-05     -0.82875881E-16      0.59643409E-06     -0.44268195E-16
    0.546363939755         0.35094067E-05      0.15956471E+02     -0.20904372E-09      0.63523030E-05     -0.83220723E-16      0.63632684E-06     -0.44790825E-16
    0.552643985039         0.36149520E-05      0.16095676E+02     -0.20526031E-09      0.65254277E-05     -0.83215601E-16      0.67730682E-06     -0.45313423E-16
    0.558924030324         0.37201804E-05      0.16200696E+02     -0.20170095E-09      0.66832479E-05     -0.83207377E-16      0.71927792E-06     -0.45835969E-16
    0.565204075608         0.38249044E-05      0.16299021E+02     -0.19835959E-09      0.68362744E-05     -0.83197671E-16      0.76221003E-06     -0.46358454E-16
    0.571484120893         0.39289333E-05      0.16373244E+02     -0.19523225E-09      0.69766655E-05     -0.83188773E-16      0.80602381E-06     -0.46880883E-16
    0.577764166177         0.40320740E-05      0.16448626E+02     -0.19230192E-09      0.71145952E-05     -0.83177180E-16      0.85070379E-06     -0.47403240E-16
    0.584044211462         0.41341318E-05      0.16505791E+02     -0.18863424E-09      0.72413177E-05     -0.82756439E-16      0.89617959E-06     -0.47922954E-16
    0.590324256747         0.42349105E-05      0.16565233E+02     -0.18608138E-09      0.73653577E-05     -0.82736892E-16      0.94243437E-06     -0.48442545E-16
    0.596604302031         0.43342134E-05      0.16608860E+02     -0.18370522E-09      0.74783608E-05     -0.82715727E-16      0.98939882E-06     -0.48962004E-16
    0.602884347316         0.44318436E-05      0.16652171E+02     -0.18245046E-09      0.75868929E-05     -0.83126222E-16      0.10370448E-05     -0.49484040E-16
    0.609164392600         0.45276046E-05      0.16680509E+02     -0.18042056E-09      0.76839752E-05     -0.83111797E-16      0.10853006E-05     -0.50005986E-16
    0.615444437885         0.46213012E-05      0.16704987E+02     -0.17854660E-09      0.77743526E-05     -0.83094002E-16      0.11341238E-05     -0.50527820E-16
    0.621724483169         0.47127398E-05      0.16715116E+02     -0.17683333E-09      0.78528547E-05     -0.83077286E-16      0.11834401E-05     -0.51049549E-16
    0.628004528454         0.48017293E-05      0.16718252E+02     -0.17527194E-09      0.79226129E-05     -0.83059626E-16      0.12331945E-05     -0.51571167E-16
    0.634284573738         0.48880813E-05      0.16708050E+02     -0.17385673E-09      0.79803642E-05     -0.83040213E-16      0.12833115E-05     -0.52092664E-16
    0.640564619023         0.49716111E-05      0.16688550E+02     -0.17258722E-09      0.80277803E-05     -0.83020531E-16      0.13337264E-05     -0.52614036E-16
    0.646844664307         0.50521382E-05      0.16657218E+02     -0.17146183E-09      0.80634399E-05     -0.83001388E-16      0.13843651E-05     -0.53135289E-16
    0.653124709592         0.51294867E-05      0.16615089E+02     -0.17141710E-09      0.80876645E-05     -0.83440058E-16      0.14351560E-05     -0.53659296E-16
    0.659404754876         0.52034861E-05      0.16562978E+02     -0.17056226E-09      0.81007162E-05     -0.83419567E-16      0.14860289E-05     -0.54183175E-16
    0.665684800161         0.52739718E-05      0.16499212E+02     -0.16984478E-09      0.81016790E-05     -0.83399616E-16      0.15369078E-05     -0.54706928E-16
    0.671964845445         0.53407857E-05      0.16427421E+02     -0.16832474E-09      0.80922754E-05     -0.82918076E-16      0.15877277E-05     -0.55227657E-16
    0.678244890730         0.54037765E-05      0.16343581E+02     -0.16787372E-09      0.80705055E-05     -0.82896507E-16      0.16384108E-05     -0.55748251E-16
    0.684524936015         0.54628005E-05      0.16253567E+02     -0.16755769E-09      0.80392851E-05     -0.82876824E-16      0.16888979E-05     -0.56268722E-16
    0.690804981299         0.55177220E-05      0.16151451E+02     -0.16736714E-09      0.79957386E-05     -0.82854716E-16      0.17391115E-05     -0.56789053E-16
    0.697085026584         0.55684138E-05      0.16044765E+02     -0.16731253E-09      0.79436808E-05     -0.82835573E-16      0.17889982E-05     -0.57309264E-16
    0.703365071868         0.56147573E-05      0.15926201E+02     -0.16829181E-09      0.78796158E-05     -0.83263728E-16      0.18384825E-05     -0.57832164E-16
    0.709645117153         0.56566434E-05      0.15804358E+02     -0.16848801E-09      0.78079519E-05     -0.83239462E-16      0.18875168E-05     -0.58354912E-16
    0.715925162437         0.56939728E-05      0.15671107E+02     -0.16881327E-09      0.77248508E-05     -0.83214118E-16      0.19360292E-05     -0.58877500E-16
    0.722205207722         0.57266558E-05      0.15535553E+02     -0.16927501E-09      0.76350142E-05     -0.83190930E-16      0.19839774E-05     -0.59399943E-16
    0.728485253006         0.57546134E-05      0.15389290E+02     -0.16986676E-09      0.75345386E-05     -0.83166125E-16      0.20312947E-05     -0.59922230E-16
    0.734765298291         0.57777770E-05      0.15241390E+02     -0.17060276E-09      0.74281284E-05     -0.83145904E-16      0.20779437E-05     -0.60444390E-16
    0.741045343575         0.57960889E-05      0.15083694E+02     -0.17146835E-09      0.73120754E-05     -0.83122178E-16      0.21238638E-05     -0.60966401E-16
    0.747325388860         0.58095025E-05      0.14924653E+02     -0.17247185E-09      0.71907820E-05     -0.83097912E-16      0.21690223E-05     -0.61488260E-16
    0.753605434144         0.58179822E-05      0.14757093E+02     -0.17446053E-09      0.70610915E-05     -0.83477266E-16      0.22133662E-05     -0.62012501E-16
    0.759885479429         0.58215039E-05      0.14587467E+02     -0.17491645E-09      0.69264327E-05     -0.83053964E-16      0.22568646E-05     -0.62534083E-16
    0.766165524714         0.58200549E-05      0.14404788E+02     -0.17635784E-09      0.67819411E-05     -0.83031316E-16      0.22994555E-05     -0.63055524E-16
