 
 # Omega; pulse ft; proj flux t=    500.050000000000     
    0.000000000000         0.16626861E-13      0.00000000E+00      0.00000000E+00      0.00000000E+00      0.00000000E+00      0.00000000E+00      0.00000000E+00
    0.006280045285         0.55619039E-10      0.20014645E+05     -0.31233678E-07      0.10986295E-04     -0.17144566E-16      0.68994432E-07     -0.10766865E-18
    0.012560090569         0.22310564E-09      0.73206191E+04     -0.36764997E-07      0.80595032E-05     -0.40475759E-16      0.11960848E-06     -0.36185825E-18
    0.018840135854         0.50451792E-09      0.21889330E+04     -0.28098846E-07      0.36330193E-05     -0.46636261E-16      0.14242400E-06     -0.65473608E-18
    0.025120181138         0.90326950E-09      0.12980523E+04     -0.21145570E-07      0.28928734E-05     -0.47125573E-16      0.16059138E-06     -0.95068682E-18
    0.031400226423         0.14241628E-08      0.76618534E+03     -0.16944518E-07      0.21537901E-05     -0.47631994E-16      0.17411728E-06     -0.12498179E-17
    0.037680271707         0.20734119E-08      0.54295189E+03     -0.14004522E-07      0.18517211E-05     -0.47762001E-16      0.18574617E-06     -0.15497654E-17
    0.043960316992         0.28586714E-08      0.38461094E+03     -0.11883630E-07      0.15501286E-05     -0.47895557E-16      0.19548105E-06     -0.18505517E-17
    0.050240362276         0.37890711E-08      0.29637043E+03     -0.10257804E-07      0.13853437E-05     -0.47948726E-16      0.20418107E-06     -0.21516719E-17
    0.056520407561         0.48752551E-08      0.22836169E+03     -0.89805038E-08      0.12208379E-05     -0.48010412E-16      0.21184799E-06     -0.24531794E-17
    0.062800452845         0.61294263E-08      0.18477633E+03     -0.79412154E-08      0.11177536E-05     -0.48038198E-16      0.21886753E-06     -0.27548615E-17
    0.069080498130         0.75653939E-08      0.14951337E+03     -0.70820548E-08      0.10148428E-05     -0.48070434E-16      0.22524079E-06     -0.30567460E-17
    0.075360543414         0.91986243E-08      0.12474153E+03     -0.63554079E-08      0.94369703E-06     -0.48080056E-16      0.23116725E-06     -0.33586909E-17
    0.081640588699         0.11046294E-07      0.10406375E+03     -0.57355520E-08      0.87267520E-06     -0.48098150E-16      0.23664769E-06     -0.36607495E-17
    0.087920633984         0.13127346E-07      0.88655215E+02     -0.51987056E-08      0.82041402E-06     -0.48108743E-16      0.24179993E-06     -0.39628746E-17
    0.094200679268         0.15462541E-07      0.75514906E+02     -0.47304536E-08      0.76824932E-06     -0.48125171E-16      0.24662457E-06     -0.42651028E-17
    0.100480724553         0.18074516E-07      0.65322801E+02     -0.43163836E-08      0.72826827E-06     -0.48122327E-16      0.25119812E-06     -0.45673132E-17
    0.106760769837         0.20987836E-07      0.56496401E+02     -0.39501221E-08      0.68836601E-06     -0.48129257E-16      0.25552109E-06     -0.48695671E-17
    0.113040815122         0.24229044E-07      0.49440240E+02     -0.36232290E-08      0.65678654E-06     -0.48132615E-16      0.25964574E-06     -0.51718421E-17
    0.119320860406         0.27826708E-07      0.43259793E+02     -0.33303965E-08      0.62527717E-06     -0.48137561E-16      0.26357251E-06     -0.54741482E-17
    0.125600905691         0.31811467E-07      0.38209320E+02     -0.30669203E-08      0.59979509E-06     -0.48143326E-16      0.26733925E-06     -0.57764905E-17
    0.131880950975         0.36216061E-07      0.33747212E+02     -0.28293818E-08      0.57438053E-06     -0.48156329E-16      0.27094639E-06     -0.60789144E-17
    0.138160996260         0.41075368E-07      0.30044449E+02     -0.26136369E-08      0.55360873E-06     -0.48159718E-16      0.27442308E-06     -0.63813596E-17
    0.144441041544         0.46426423E-07      0.26750600E+02     -0.24176109E-08      0.53290626E-06     -0.48161909E-16      0.27776975E-06     -0.66838186E-17
    0.150721086829         0.52308432E-07      0.23989505E+02     -0.22387924E-08      0.51601419E-06     -0.48156419E-16      0.28101034E-06     -0.69862430E-17
    0.157001132113         0.58762774E-07      0.21519383E+02     -0.20759757E-08      0.49919702E-06     -0.48157557E-16      0.28414532E-06     -0.72886747E-17
    0.163281177398         0.65832996E-07      0.19437904E+02     -0.19276543E-08      0.48573523E-06     -0.48170296E-16      0.28719576E-06     -0.75911863E-17
    0.169561222683         0.73564796E-07      0.17566474E+02     -0.17910723E-08      0.47235744E-06     -0.48161420E-16      0.29016219E-06     -0.78936422E-17
    0.175841267967         0.82005985E-07      0.15989561E+02     -0.16663931E-08      0.46217234E-06     -0.48166475E-16      0.29306465E-06     -0.81961299E-17
    0.182121313252         0.91206450E-07      0.14565032E+02     -0.15517621E-08      0.45208376E-06     -0.48165115E-16      0.29590376E-06     -0.84986090E-17
    0.188401358536         0.10121809E-06      0.13372595E+02     -0.14466764E-08      0.44527928E-06     -0.48171278E-16      0.29870013E-06     -0.88011268E-17
    0.194681403821         0.11209474E-06      0.12290018E+02     -0.13496427E-08      0.43858721E-06     -0.48163969E-16      0.30145448E-06     -0.91035987E-17
    0.200961449105         0.12389210E-06      0.11398179E+02     -0.12605237E-08      0.43552090E-06     -0.48164221E-16      0.30418957E-06     -0.94060722E-17
    0.207241494390         0.13666760E-06      0.10583788E+02     -0.11785785E-08      0.43258621E-06     -0.48171484E-16      0.30690623E-06     -0.97085913E-17
    0.213521539674         0.15048030E-06      0.99335213E+01     -0.11027275E-08      0.43389421E-06     -0.48166913E-16      0.30963111E-06     -0.10011082E-16
    0.219801584959         0.16539075E-06      0.93351604E+01     -0.10330192E-08      0.43535633E-06     -0.48176080E-16      0.31236517E-06     -0.10313630E-16
    0.226081630243         0.18146085E-06      0.88853186E+01     -0.96826739E-09      0.44201128E-06     -0.48167672E-16      0.31514102E-06     -0.10616125E-16
    0.232361675528         0.19875365E-06      0.84665024E+01     -0.90873963E-09      0.44884596E-06     -0.48176224E-16      0.31795979E-06     -0.10918674E-16
    0.238641720812         0.21733318E-06      0.81895604E+01     -0.85341235E-09      0.46225639E-06     -0.48170511E-16      0.32086278E-06     -0.11221187E-16
    0.244921766097         0.23726424E-06      0.79258366E+01     -0.80250248E-09      0.47587480E-06     -0.48183015E-16      0.32385130E-06     -0.11523778E-16
    0.251201811381         0.25861222E-06      0.78054976E+01     -0.75504812E-09      0.49804610E-06     -0.48177424E-16      0.32697905E-06     -0.11826335E-16
    0.257481856666         0.28144279E-06      0.76824050E+01     -0.71108276E-09      0.52045522E-06     -0.48173292E-16      0.33024753E-06     -0.12128865E-16
    0.263761901951         0.30582173E-06      0.77126976E+01     -0.67027581E-09      0.55424943E-06     -0.48167322E-16      0.33372824E-06     -0.12431358E-16
    0.270041947235         0.33181462E-06      0.77250239E+01     -0.63254992E-09      0.58831076E-06     -0.48172786E-16      0.33742286E-06     -0.12733885E-16
    0.276321992520         0.35948656E-06      0.79109033E+01     -0.59772414E-09      0.63787556E-06     -0.48195965E-16      0.34142875E-06     -0.13036558E-16
    0.282602037804         0.38890192E-06      0.80632793E+01     -0.56503271E-09      0.68773191E-06     -0.48192679E-16      0.34574773E-06     -0.13339210E-16
    0.288882083089         0.42012400E-06      0.84232073E+01     -0.53462731E-09      0.75923645E-06     -0.48189309E-16      0.35051577E-06     -0.13641841E-16
    0.295162128373         0.45321473E-06      0.87324790E+01     -0.50611424E-09      0.83104321E-06     -0.48165338E-16      0.35573476E-06     -0.13944322E-16
    0.301442173658         0.48823435E-06      0.93042440E+01     -0.48003333E-09      0.93400261E-06     -0.48187944E-16      0.36160034E-06     -0.14246944E-16
    0.307722218942         0.52524111E-06      0.98047760E+01     -0.45551765E-09      0.10372423E-05     -0.48188980E-16      0.36811427E-06     -0.14549573E-16
    0.314002264227         0.56429086E-06      0.10657583E+02     -0.43267278E-09      0.11870572E-05     -0.48191727E-16      0.37556904E-06     -0.14852220E-16
    0.320282309511         0.60543679E-06      0.11412241E+02     -0.41132173E-09      0.13370556E-05     -0.48190362E-16      0.38396581E-06     -0.15154857E-16
    0.326562354796         0.64872905E-06      0.12672652E+02     -0.39175755E-09      0.15602975E-05     -0.48234445E-16      0.39376455E-06     -0.15457772E-16
    0.332842400080         0.69421440E-06      0.13796315E+02     -0.37314792E-09      0.17834493E-05     -0.48236821E-16      0.40496469E-06     -0.15760701E-16
    0.339122445365         0.74193587E-06      0.15708889E+02     -0.35531684E-09      0.21300901E-05     -0.48180167E-16      0.41834176E-06     -0.16063275E-16
    0.345402490650         0.79193243E-06      0.17423271E+02     -0.33902045E-09      0.24759110E-05     -0.48176055E-16      0.43389059E-06     -0.16365823E-16
    0.351682535934         0.84423861E-06      0.20512120E+02     -0.32434051E-09      0.30518813E-05     -0.48256772E-16      0.45305654E-06     -0.16668877E-16
    0.357962581219         0.89888421E-06      0.23291253E+02     -0.31011918E-09      0.36249469E-05     -0.48265569E-16      0.47582137E-06     -0.16971987E-16
    0.364242626503         0.95589395E-06      0.28890094E+02     -0.29683388E-09      0.46990556E-05     -0.48280870E-16      0.50533165E-06     -0.17275193E-16
    0.370522671788         0.10152872E-05      0.33934043E+02     -0.28435493E-09      0.57630499E-05     -0.48292261E-16      0.54152387E-06     -0.17578471E-16
    0.376802717072         0.10770774E-05      0.46628569E+02     -0.27406273E-09      0.82609057E-05     -0.48554061E-16      0.59340273E-06     -0.17883393E-16
    0.383082762357         0.11412724E-05      0.58004358E+02     -0.26177950E-09      0.10710260E-04     -0.48336478E-16      0.66066365E-06     -0.18186948E-16
    0.389362807641         0.12078734E-05      0.10802069E+03     -0.25191190E-09      0.20769046E-04     -0.48434889E-16      0.79109420E-06     -0.18491121E-16
    0.395642852926         0.12768751E-05      0.15080233E+03     -0.24237946E-09      0.30164480E-04     -0.48482342E-16      0.98052850E-06     -0.18795592E-16
    0.401922898210         0.13482657E-05     -0.46629696E+02     -0.23134825E-09     -0.96947807E-05     -0.48099618E-16      0.91964483E-06     -0.19097660E-16
    0.408202943495         0.14220259E-05     -0.22139390E+03     -0.21568953E-09     -0.47801301E-04     -0.46569665E-16      0.61945050E-06     -0.19390120E-16
    0.414482988779         0.14981296E-05     -0.14609090E+03     -0.21053023E-09     -0.32727176E-04     -0.47162827E-16      0.41392235E-06     -0.19686305E-16
    0.420763034064         0.15765431E-05     -0.80125256E+02     -0.20517303E-09     -0.18607172E-04     -0.47646524E-16      0.29706847E-06     -0.19985527E-16
    0.427043079349         0.16572251E-05     -0.57947552E+02     -0.20044584E-09     -0.13937586E-04     -0.48211375E-16      0.20953980E-06     -0.20288296E-16
    0.433323124633         0.17401266E-05     -0.36925498E+02     -0.19270111E-09     -0.91904759E-05     -0.47961843E-16      0.15182319E-06     -0.20589499E-16
    0.439603169918         0.18251908E-05     -0.70653155E+01     -0.18706799E-09     -0.18181164E-05     -0.48138174E-16      0.14040534E-06     -0.20891809E-16
    0.445883215202         0.19123531E-05      0.19026147E+02     -0.18157434E-09      0.50575534E-05     -0.48266310E-16      0.17216700E-06     -0.21194924E-16
    0.452163260487         0.20015409E-05      0.50477679E+01     -0.17566991E-09      0.13848771E-05     -0.48195805E-16      0.18086409E-06     -0.21497595E-16
    0.458443305771         0.20926735E-05     -0.56354461E+01     -0.17004578E-09     -0.15943616E-05     -0.48108785E-16      0.17085143E-06     -0.21799721E-16
    0.464723351056         0.21856626E-05     -0.47546476E+01     -0.16508356E-09     -0.13859566E-05     -0.48121053E-16      0.16214756E-06     -0.22101923E-16
    0.471003396340         0.22804117E-05     -0.34937777E+01     -0.16051163E-09     -0.10484004E-05     -0.48165759E-16      0.15556356E-06     -0.22404406E-16
    0.477283441625         0.23768165E-05      0.17327437E+00     -0.15608447E-09      0.53480603E-07     -0.48174991E-16      0.15589942E-06     -0.22706947E-16
    0.483563486909         0.24747652E-05      0.26636530E+01     -0.15196432E-09      0.84489127E-06     -0.48201972E-16      0.16120537E-06     -0.23009658E-16
    0.489843532194         0.25741382E-05      0.53466104E+01     -0.14807395E-09      0.17413886E-05     -0.48227620E-16      0.17214137E-06     -0.23312530E-16
    0.496123577478         0.26748086E-05      0.79793579E+01     -0.14438580E-09      0.26663274E-05     -0.48246965E-16      0.18888603E-06     -0.23615523E-16
    0.502403622763         0.27766424E-05      0.11343675E+02     -0.14091206E-09      0.38856498E-05     -0.48267860E-16      0.21328809E-06     -0.23918647E-16
    0.508683668048         0.28794986E-05      0.14564753E+02     -0.13803363E-09      0.51099290E-05     -0.48428014E-16      0.24537867E-06     -0.24222777E-16
    0.514963713332         0.29832293E-05      0.17684049E+02     -0.13450568E-09      0.63494250E-05     -0.48294013E-16      0.28525335E-06     -0.24526066E-16
    0.521243758617         0.30876806E-05      0.20472258E+02     -0.13154626E-09      0.75162277E-05     -0.48296170E-16      0.33245560E-06     -0.24829368E-16
    0.527523803901         0.31926924E-05      0.22661889E+02     -0.12873829E-09      0.85006823E-05     -0.48290913E-16      0.38584027E-06     -0.25132637E-16
    0.533803849186         0.32980988E-05      0.24590588E+02     -0.12607930E-09      0.94165876E-05     -0.48280128E-16      0.44497686E-06     -0.25435838E-16
    0.540083894470         0.34037289E-05      0.25962910E+02     -0.12355208E-09      0.10141210E-04     -0.48259907E-16      0.50866412E-06     -0.25738913E-16
    0.546363939755         0.35094067E-05      0.27196157E+02     -0.12271157E-09      0.10826844E-04     -0.48851720E-16      0.57665719E-06     -0.26045704E-16
    0.552643985039         0.36149520E-05      0.27922273E+02     -0.12051071E-09      0.11320107E-04     -0.48856843E-16      0.64774798E-06     -0.26352527E-16
    0.558924030324         0.37201804E-05      0.28576321E+02     -0.11842482E-09      0.11788545E-04     -0.48853608E-16      0.72178058E-06     -0.26659330E-16
    0.565204075608         0.38249044E-05      0.28702034E+02     -0.11644510E-09      0.12038452E-04     -0.48840396E-16      0.79738260E-06     -0.26966050E-16
    0.571484120893         0.39289333E-05      0.28792533E+02     -0.11457656E-09      0.12268544E-04     -0.48821253E-16      0.87442962E-06     -0.27272649E-16
    0.577764166177         0.40320740E-05      0.28368611E+02     -0.11279588E-09      0.12270397E-04     -0.48788090E-16      0.95148827E-06     -0.27579041E-16
    0.584044211462         0.41341318E-05      0.27938337E+02     -0.10954409E-09      0.12256933E-04     -0.48058501E-16      0.10284624E-05     -0.27880850E-16
    0.590324256747         0.42349105E-05      0.27067940E+02     -0.10802527E-09      0.12035150E-04     -0.48031000E-16      0.11040436E-05     -0.28182487E-16
    0.596604302031         0.43342134E-05      0.26214188E+02     -0.10661265E-09      0.11803288E-04     -0.48003769E-16      0.11781688E-05     -0.28483953E-16
    0.602884347316         0.44318436E-05      0.25024043E+02     -0.10673568E-09      0.11401200E-04     -0.48629824E-16      0.12497689E-05     -0.28789351E-16
    0.609164392600         0.45276046E-05      0.23865602E+02     -0.10546991E-09      0.10993831E-04     -0.48585337E-16      0.13188106E-05     -0.29094469E-16
    0.615444437885         0.46213012E-05      0.22475801E+02     -0.10429134E-09      0.10460038E-04     -0.48536266E-16      0.13845002E-05     -0.29399279E-16
    0.621724483169         0.47127398E-05      0.21125116E+02     -0.10322071E-09      0.99246972E-05     -0.48493666E-16      0.14468277E-05     -0.29703821E-16
    0.628004528454         0.48017293E-05      0.19638514E+02     -0.10223945E-09      0.93064961E-05     -0.48450258E-16      0.15052729E-05     -0.30008091E-16
    0.634284573738         0.48880813E-05      0.18192682E+02     -0.10135466E-09      0.86894775E-05     -0.48410624E-16      0.15598432E-05     -0.30312112E-16
    0.640564619023         0.49716111E-05      0.16695076E+02     -0.10055883E-09      0.80309196E-05     -0.48372338E-16      0.16102778E-05     -0.30615892E-16
    0.646844664307         0.50521382E-05      0.15236049E+02     -0.99854864E-10      0.73754792E-05     -0.48337827E-16      0.16565961E-05     -0.30919456E-16
    0.653124709592         0.51294867E-05      0.13798349E+02     -0.10002266E-09      0.67165707E-05     -0.48687657E-16      0.16987765E-05     -0.31225217E-16
    0.659404754876         0.52034861E-05      0.12394618E+02     -0.99410489E-10      0.60620308E-05     -0.48620252E-16      0.17368463E-05     -0.31530554E-16
    0.665684800161         0.52739718E-05      0.11074086E+02     -0.98895749E-10      0.54377564E-05     -0.48561206E-16      0.17709957E-05     -0.31835521E-16
    0.671964845445         0.53407857E-05      0.97815206E+01     -0.97908011E-10      0.48184532E-05     -0.48230249E-16      0.18012558E-05     -0.32138409E-16
    0.678244890730         0.54037765E-05      0.86220855E+01     -0.97641594E-10      0.42576097E-05     -0.48215689E-16      0.18279938E-05     -0.32441206E-16
    0.684524936015         0.54628005E-05      0.74840214E+01     -0.97447673E-10      0.37017217E-05     -0.48199242E-16      0.18512407E-05     -0.32743899E-16
    0.690804981299         0.55177220E-05      0.65163489E+01     -0.97338864E-10      0.32259034E-05     -0.48187379E-16      0.18714996E-05     -0.33046518E-16
    0.697085026584         0.55684138E-05      0.55635253E+01     -0.97312707E-10      0.27544728E-05     -0.48179021E-16      0.18887978E-05     -0.33349084E-16
    0.703365071868         0.56147573E-05      0.48053926E+01     -0.97639850E-10      0.23775067E-05     -0.48308101E-16      0.19037286E-05     -0.33652461E-16
    0.709645117153         0.56566434E-05      0.40562028E+01     -0.97731969E-10      0.20039179E-05     -0.48283296E-16      0.19163133E-05     -0.33955683E-16
    0.715925162437         0.56939728E-05      0.35134169E+01     -0.97909984E-10      0.17318893E-05     -0.48263344E-16      0.19271897E-05     -0.34258779E-16
    0.722205207722         0.57266558E-05      0.29746906E+01     -0.98168189E-10      0.14619245E-05     -0.48245179E-16      0.19363706E-05     -0.34561761E-16
    0.728485253006         0.57546134E-05      0.26425148E+01     -0.98516862E-10      0.12937653E-05     -0.48233484E-16      0.19444955E-05     -0.34864669E-16
    0.734765298291         0.57777770E-05      0.23107880E+01     -0.98952426E-10      0.11261984E-05     -0.48226002E-16      0.19515681E-05     -0.35167531E-16
    0.741045343575         0.57960889E-05      0.21756808E+01     -0.99471126E-10      0.10546980E-05     -0.48220306E-16      0.19581916E-05     -0.35470356E-16
    0.747325388860         0.58095025E-05      0.20387500E+01     -0.10007150E-09      0.98228123E-06     -0.48215015E-16      0.19643604E-05     -0.35773149E-16
    0.753605434144         0.58179822E-05      0.20801932E+01     -0.10087735E-09      0.99534747E-06     -0.48268602E-16      0.19706112E-05     -0.36076278E-16
    0.759885479429         0.58215039E-05      0.21187670E+01     -0.10153296E-09      0.10060346E-05     -0.48209960E-16      0.19769292E-05     -0.36379038E-16
    0.766165524714         0.58200549E-05      0.23043815E+01     -0.10239907E-09      0.10849295E-05     -0.48210668E-16      0.19837426E-05     -0.36681804E-16
