
 # Omega; pulse ft; proj flux t=    500.25000000000000     
    0.000000000000         0.48101695E-08      0.00000000E+00      0.00000000E+00      0.00000000E+00      0.00000000E+00      0.00000000E+00      0.00000000E+00
    0.006276908399         0.47770843E-08      0.12466521E-05     -0.15638550E-15      0.58803753E-13     -0.73766008E-23      0.73821154E-15     -0.92604495E-25
    0.012553816798         0.46785215E-08      0.92889405E-05     -0.19272163E-15      0.21455651E-12     -0.44514958E-23      0.34317147E-14     -0.14848776E-24
    0.018830725196         0.45165593E-08      0.18720279E-04      0.25068388E-15      0.27828876E-12      0.37265740E-23      0.69253007E-14     -0.10170503E-24
    0.025107633595         0.42946588E-08      0.27814222E-04      0.79221300E-15      0.29487129E-12      0.83986121E-23      0.10627061E-13      0.37296067E-26
    0.031384541994         0.40176601E-08      0.39318220E-04      0.56882162E-15      0.31195641E-12      0.45131125E-23      0.14543304E-13      0.60386394E-25
    0.037661450393         0.36917769E-08      0.52772310E-04      0.19384246E-14      0.32061747E-12      0.11776873E-22      0.18568277E-13      0.20823110E-24
    0.043938358791         0.33245900E-08      0.70341098E-04      0.65179512E-15      0.32987247E-12      0.30566664E-23      0.22709436E-13      0.24660393E-24
    0.050215267190         0.29250384E-08      0.93828338E-04     -0.24728742E-15      0.33874469E-12     -0.89277186E-24      0.26961975E-13      0.23539624E-24
    0.056492175589         0.25034100E-08      0.12678910E-03      0.48315468E-15      0.34823166E-12      0.13270050E-23      0.31333611E-13      0.25205521E-24
    0.062769083988         0.20713294E-08      0.17487880E-03      0.21359773E-14      0.35767058E-12      0.43686042E-23      0.35823742E-13      0.30689787E-24
    0.069045992387         0.16417461E-08      0.24947346E-03      0.94206594E-15      0.36764998E-12      0.13883261E-23      0.40439153E-13      0.32432666E-24
    0.075322900785         0.12289191E-08      0.36911167E-03      0.63248681E-15      0.37324734E-12      0.63957344E-24      0.45124831E-13      0.33235575E-24
    0.081599809184         0.84840195E-09      0.58899405E-03      0.64248771E-14      0.37954746E-12      0.41401875E-23      0.49889601E-13      0.38433091E-24
    0.087876717583         0.51702483E-09      0.10592178E-02      0.26436766E-14      0.38624735E-12      0.96402564E-24      0.54738479E-13      0.39643311E-24
    0.094153625982         0.25287634E-09      0.23649238E-02     -0.22995603E-14      0.39366877E-12     -0.38278827E-24      0.59680525E-13      0.39162765E-24
    0.100430534380         0.75283188E-10      0.87601078E-02     -0.88292006E-16      0.40699057E-12     -0.41020059E-26      0.64789810E-13      0.39157616E-24
    0.106707442779         0.47887752E-11      0.15133623E+00      0.10563662E-11      0.42093528E-12      0.29382375E-23      0.70074154E-13      0.42846225E-24
    0.112984351178         0.63130302E-10      0.12586502E-01      0.51148005E-13      0.43588034E-12      0.17712952E-23      0.75546116E-13      0.45069877E-24
    0.119261259577         0.27321457E-09      0.31794612E-02     -0.10134485E-13      0.45144066E-12     -0.14389604E-23      0.81213420E-13      0.43263432E-24
    0.125538167976         0.65909246E-09      0.14311769E-02      0.83801007E-14      0.46570033E-12      0.27268577E-23      0.87059736E-13      0.46686680E-24
    0.131815076374         0.12459320E-08      0.82047045E-03      0.15406537E-15      0.48065657E-12      0.90256184E-25      0.93093811E-13      0.46799986E-24
    0.138091984773         0.20599905E-08      0.53597517E-03     -0.22675325E-14      0.49554613E-12     -0.20964906E-23      0.99314806E-13      0.44168090E-24
    0.144368893172         0.31285846E-08      0.38059048E-03     -0.77955124E-15      0.51118120E-12     -0.10470360E-23      0.10573208E-12      0.42853660E-24
    0.150645801571         0.44800604E-08      0.28598960E-03      0.49041556E-15      0.52713245E-12      0.90392783E-24      0.11234961E-12      0.43988434E-24
    0.156922709970         0.61437611E-08      0.22413596E-03      0.52872844E-16      0.54387956E-12      0.12829918E-24      0.11917737E-12      0.44149499E-24
    0.163199618368         0.81499942E-08      0.18133292E-03     -0.37849691E-15      0.56125146E-12     -0.11715024E-23      0.12622322E-12      0.42678816E-24
    0.169476526767         0.10529997E-07      0.15048042E-03      0.24938623E-15      0.57948392E-12      0.96035954E-24      0.13349795E-12      0.43884434E-24
    0.175753435166         0.13315903E-07      0.12753289E-03     -0.57664952E-15      0.59886881E-12     -0.27078301E-23      0.14101604E-12      0.40485073E-24
    0.182030343565         0.16540703E-07      0.10992557E-03     -0.60740145E-15      0.61908683E-12     -0.34208078E-23      0.14878794E-12      0.36190654E-24
    0.188307251963         0.20238209E-07      0.96047556E-04     -0.21064169E-15      0.63978497E-12     -0.14031110E-23      0.15681969E-12      0.34429214E-24
    0.194584160362         0.24443018E-07      0.85040385E-04     -0.19245276E-15      0.66208726E-12     -0.14983531E-23      0.16513141E-12      0.32548209E-24
    0.200861068761         0.29190467E-07      0.76182237E-04     -0.19445418E-15      0.68618572E-12     -0.17514802E-23      0.17374566E-12      0.30349433E-24
    0.207137977160         0.34516601E-07      0.68875873E-04     -0.23228657E-15      0.71134139E-12     -0.23990266E-23      0.18267571E-12      0.27337739E-24
    0.213414885559         0.40458122E-07      0.62827411E-04      0.15539012E-16      0.73819798E-12      0.18257743E-24      0.19194291E-12      0.27566943E-24
    0.219691793957         0.47052358E-07      0.57753356E-04     -0.62024264E-16      0.76663290E-12     -0.82332603E-24      0.20156708E-12      0.26533355E-24
    0.225968702356         0.54337209E-07      0.53478300E-04     -0.22798456E-16      0.79702016E-12     -0.33977948E-24      0.21157273E-12      0.26106802E-24
    0.232245610755         0.62351112E-07      0.49835186E-04     -0.54398217E-16      0.82923084E-12     -0.90515723E-24      0.22198274E-12      0.24970484E-24
    0.238522519154         0.71132993E-07      0.46729519E-04      0.74071319E-16      0.86372538E-12      0.13690977E-23      0.23282579E-12      0.26689224E-24
    0.244799427552         0.80722221E-07      0.44055873E-04      0.21054001E-16      0.90038695E-12      0.43028877E-24      0.24412908E-12      0.27229401E-24
    0.251076335951         0.91158567E-07      0.41760293E-04     -0.30753203E-16      0.93971880E-12     -0.69202970E-24      0.25592614E-12      0.26360640E-24
    0.257353244350         0.10248215E-06      0.39773830E-04     -0.21553783E-16      0.98165453E-12     -0.53196709E-24      0.26824965E-12      0.25692818E-24
    0.263630152749         0.11473340E-06      0.38064296E-04     -0.21058191E-16      0.10267276E-11     -0.56801332E-24      0.28113900E-12      0.24979744E-24
    0.269907061148         0.12795300E-06      0.36586504E-04     -0.27174368E-16      0.10749786E-11     -0.79843276E-24      0.29463408E-12      0.23977406E-24
    0.276183969546         0.14218184E-06      0.35320326E-04     -0.59900936E-16      0.11269718E-11     -0.19112696E-23      0.30878188E-12      0.21578034E-24
    0.282460877945         0.15746099E-06      0.34236250E-04     -0.23502956E-16      0.11828877E-11     -0.81204451E-24      0.32363164E-12      0.20558608E-24
    0.288737786344         0.17383161E-06      0.33320375E-04      0.21215689E-17      0.12433050E-11      0.79163492E-25      0.33923986E-12      0.20657988E-24
    0.295014694743         0.19133494E-06      0.32555990E-04     -0.33155788E-16      0.13086521E-11     -0.13327622E-23      0.35566844E-12      0.18984863E-24
    0.301291603141         0.21001223E-06      0.31930416E-04     -0.21899746E-16      0.13794464E-11     -0.94610497E-24      0.37298576E-12      0.17797140E-24
    0.307568511540         0.22990470E-06      0.31439716E-04     -0.33584430E-16      0.14565563E-11     -0.15559178E-23      0.39127110E-12      0.15843869E-24
    0.313845419939         0.25105348E-06      0.31069148E-04     -0.35391940E-16      0.15403608E-11     -0.17546782E-23      0.41060851E-12      0.13641078E-24
    0.320122328338         0.27349956E-06      0.30827216E-04     -0.35896423E-16      0.16323664E-11     -0.19007916E-23      0.43110093E-12      0.11254859E-24
    0.326399236737         0.29728375E-06      0.30694420E-04      0.24727809E-17      0.17327031E-11      0.13958873E-24      0.45285297E-12      0.11430097E-24
    0.332676145135         0.32244665E-06      0.30695615E-04     -0.12397815E-16      0.18439758E-11     -0.74477322E-24      0.47600191E-12      0.10495122E-24
    0.338953053534         0.34902853E-06      0.30800613E-04     -0.27489183E-16      0.19657279E-11     -0.17543890E-23      0.50067929E-12      0.82926942E-25
    0.345229961933         0.37706937E-06      0.31057170E-04     -0.24102435E-16      0.21024096E-11     -0.16316100E-23      0.52707256E-12      0.62444008E-25
    0.351506870332         0.40660873E-06      0.31417827E-04     -0.21253311E-16      0.22524840E-11     -0.15237445E-23      0.55534983E-12      0.43315199E-25
    0.357783778731         0.43768576E-06      0.31965412E-04     -0.12707197E-16      0.24236213E-11     -0.96346116E-24      0.58577553E-12      0.31220084E-25
    0.364060687129         0.47033912E-06      0.32621740E-04     -0.22118104E-16      0.26120839E-11     -0.17710381E-23      0.61856715E-12      0.89867964E-26
    0.370337595528         0.50460692E-06      0.33528330E-04      0.39650330E-17      0.28314572E-11      0.33484582E-24      0.65411274E-12      0.13190390E-25
    0.376614503927         0.54052672E-06      0.34552835E-04     -0.41133212E-17      0.30735939E-11     -0.36589411E-24      0.69269808E-12      0.85970219E-26
    0.382891412326         0.57813541E-06      0.35940565E-04     -0.15703922E-16      0.33634233E-11     -0.14696190E-23      0.73492188E-12     -0.98523053E-26
    0.389168320724         0.61746923E-06      0.37458533E-04     -0.11334937E-16      0.36835900E-11     -0.11146528E-23      0.78116499E-12     -0.23845453E-25
    0.395445229123         0.65856368E-06      0.39546884E-04     -0.37802899E-17      0.40819378E-11     -0.39019277E-24      0.83240889E-12     -0.28743861E-25
    0.401722137522         0.70145349E-06      0.41779487E-04      0.42291660E-18      0.45214620E-11      0.45768905E-25      0.88917050E-12     -0.28169287E-25
    0.407999045921         0.74617255E-06      0.44998377E-04     -0.21584228E-17      0.51005809E-11     -0.24465794E-24      0.95320226E-12     -0.31240678E-25
    0.414275954320         0.79275391E-06      0.48365844E-04      0.18644796E-17      0.57362770E-11      0.22113066E-24      0.10252144E-11     -0.28464644E-25
    0.420552862718         0.84122969E-06      0.53657593E-04      0.41625668E-17      0.66522392E-11      0.51605726E-24      0.11087254E-11     -0.21986156E-25
    0.426829771117         0.89163103E-06      0.59056906E-04     -0.44883406E-17      0.76461680E-11     -0.58111081E-24      0.12047140E-11     -0.29281314E-25
    0.433106679516         0.94398810E-06      0.68966074E-04     -0.29883802E-18      0.93164362E-11     -0.40369203E-25      0.13216708E-11     -0.29788102E-25
    0.439383587915         0.99833000E-06      0.78739025E-04     -0.15702760E-18      0.11088250E-10     -0.22113066E-25      0.14608707E-11     -0.30065705E-25
    0.445660496313         0.10546847E-05      0.10340115E-03     -0.19774177E-17      0.15166542E-10     -0.29004115E-24      0.16512687E-11     -0.33706829E-25
    0.451937404712         0.11130792E-05      0.12639366E-03     -0.17855250E-17      0.19293710E-10     -0.27255640E-24      0.18934784E-11     -0.37128452E-25
    0.458214313111         0.11735391E-05      0.29888612E-03     -0.25140312E-17      0.47443565E-10     -0.39906371E-24      0.24890762E-11     -0.42138224E-25
    0.464491221510         0.12360889E-05      0.47156701E-03      0.33424156E-17      0.77778268E-10      0.55128389E-24      0.34654903E-11     -0.35217507E-25
    0.470768129909         0.13007518E-05      0.14028440E-03     -0.48227640E-17      0.24023673E-10     -0.82589731E-24      0.37670791E-11     -0.45585671E-25
    0.477045038307         0.13675498E-05     -0.18027256E-03      0.94935344E-18     -0.32029935E-10      0.16867641E-24      0.33649812E-11     -0.43468138E-25
    0.483321946706         0.14365034E-05     -0.11694222E-03     -0.11222607E-17     -0.21541907E-10     -0.20673146E-24      0.30945481E-11     -0.46063407E-25
    0.489598855105         0.15076320E-05     -0.46755963E-04     -0.34988461E-17     -0.89234877E-11     -0.66776318E-24      0.29825242E-11     -0.54446384E-25
    0.495875763504         0.15809533E-05     -0.26807506E-04     -0.17879214E-17     -0.52971863E-11     -0.35329480E-24      0.29160243E-11     -0.58881582E-25
    0.502152671902         0.16564837E-05      0.32106184E-05     -0.19650630E-19      0.65642143E-12     -0.40176356E-26      0.29242649E-11     -0.58932019E-25
    0.508429580301         0.17342382E-05      0.17816058E-04     -0.59414778E-18      0.37664502E-11     -0.12560736E-24      0.29715482E-11     -0.60508870E-25
    0.514706488700         0.18142301E-05      0.57847561E-04     -0.26953216E-17      0.12637479E-10     -0.58882467E-24      0.31301968E-11     -0.67900867E-25
    0.520983397099         0.18964714E-05      0.77125971E-04      0.84792680E-18      0.17400661E-10      0.19130374E-24      0.33486415E-11     -0.65499275E-25
    0.527260305498         0.19809723E-05      0.19345551E-03     -0.80387013E-17      0.45048166E-10     -0.18718968E-23      0.39141680E-11     -0.88998725E-25
    0.533537213896         0.20677417E-05      0.60700007E-04     -0.33762762E-17      0.14580183E-10     -0.81098385E-24      0.40972049E-11     -0.99179667E-25
    0.539814122295         0.21567865E-05     -0.30853605E-02      0.10486533E-15     -0.76403192E-09      0.25967939E-22     -0.54943118E-11      0.22681709E-24
    0.546091030694         0.22481122E-05     -0.61905422E-02      0.85393116E-16     -0.15795170E-08      0.21788056E-22     -0.25323279E-10      0.50034035E-24
    0.552367939093         0.23417227E-05     -0.36147198E-02     -0.26053984E-16     -0.94978283E-09     -0.68457939E-23     -0.37246678E-10      0.41439950E-24
    0.558644847491         0.24376201E-05      0.95481834E-03     -0.32250278E-16      0.25822224E-09     -0.87218048E-23     -0.34005004E-10      0.30490756E-24
    0.564921755890         0.25358047E-05      0.11090646E-01     -0.10173931E-15      0.30855105E-08     -0.28304725E-22      0.47299292E-11     -0.50424766E-25
    0.571198664289         0.26362751E-05      0.25213614E-01      0.30283087E-15      0.72124252E-08      0.86625623E-22      0.95273394E-10      0.10370574E-23
    0.577475572688         0.27390284E-05      0.25910001E-01     -0.62069481E-15      0.76168081E-08     -0.18246674E-21      0.19089341E-09     -0.12535966E-23
    0.583752481087         0.28440596E-05      0.19593406E-01     -0.61909343E-16      0.59164687E-08     -0.18694283E-22      0.26516767E-09     -0.14882812E-23
    0.590029389485         0.29513621E-05      0.19073913E-01     -0.75247603E-15      0.59133191E-08     -0.23328359E-21      0.33940240E-09     -0.44168807E-23
    0.596306297884         0.30609274E-05      0.19427538E-01     -0.36497469E-15      0.61807913E-08     -0.11611520E-21      0.41699492E-09     -0.58745696E-23
    0.602583206283         0.31727453E-05      0.19083698E-01      0.32273763E-16      0.62276387E-08      0.10531991E-22      0.49517555E-09     -0.57423529E-23
    0.608860114682         0.32868038E-05      0.18463065E-01     -0.63350118E-15      0.61773573E-08     -0.21195631E-21      0.57272497E-09     -0.84032136E-23
    0.615137023081         0.34030889E-05      0.17658449E-01     -0.22806720E-15      0.60547562E-08     -0.78200031E-22      0.64873527E-09     -0.93849225E-23
    0.621413931479         0.35215848E-05      0.17127968E-01      0.13568418E-15      0.60159701E-08      0.47657258E-22      0.72425865E-09     -0.87866420E-23
    0.627690839878         0.36422741E-05      0.16632030E-01     -0.46782328E-15      0.59815641E-08     -0.16824855E-21      0.79935011E-09     -0.10898803E-22
    0.633967748277         0.37651372E-05      0.16243212E-01     -0.12231797E-15      0.59789954E-08     -0.45024260E-22      0.87440932E-09     -0.11464030E-22
    0.640244656676         0.38901529E-05      0.15793940E-01      0.20695637E-15      0.59477659E-08      0.77936731E-22      0.94907649E-09     -0.10485626E-22
    0.646521565074         0.40172981E-05      0.15383469E-01     -0.35825152E-15      0.59244495E-08     -0.13796908E-21      0.10234509E-08     -0.12217665E-22
    0.652798473473         0.41465478E-05      0.14927184E-01     -0.36115532E-16      0.58766269E-08     -0.14218187E-22      0.10972250E-08     -0.12396157E-22
    0.659075381872         0.42778752E-05      0.14521951E-01     -0.55502256E-15      0.58419879E-08     -0.22327820E-21      0.11705643E-08     -0.15199151E-22
    0.665352290271         0.44112515E-05      0.14103854E-01     -0.24605311E-15      0.57954967E-08     -0.10110711E-21      0.12433199E-08     -0.16468431E-22
    0.671629198670         0.45466464E-05      0.13729941E-01      0.46438471E-16      0.57606695E-08      0.19484183E-22      0.13156383E-08     -0.16223830E-22
    0.677906107068         0.46840274E-05      0.13353278E-01     -0.43899152E-15      0.57184779E-08     -0.18799603E-21      0.13874270E-08     -0.18583898E-22
    0.684183015467         0.48233604E-05      0.13002576E-01     -0.15727905E-15      0.56813235E-08     -0.68721239E-22      0.14587493E-08     -0.19446612E-22
    0.690459923866         0.49646095E-05      0.12653724E-01      0.10339493E-15      0.56390721E-08      0.46077459E-22      0.15295412E-08     -0.18868164E-22
    0.696736832265         0.51077368E-05      0.12317956E-01     -0.34074178E-15      0.55968166E-08     -0.15482026E-21      0.15998026E-08     -0.20811749E-22
    0.703013740663         0.52527028E-05      0.11990945E-01     -0.79600688E-16      0.55528392E-08     -0.36861967E-22      0.16695119E-08     -0.21274508E-22
    0.709290649062         0.53994662E-05      0.11670576E-01      0.16574394E-15      0.55063212E-08      0.78200031E-22      0.17386373E-08     -0.20292799E-22
    0.715567557461         0.55479838E-05      0.11364864E-01     -0.24766332E-15      0.54612427E-08     -0.11901149E-21      0.18071967E-08     -0.21786847E-22
    0.721844465860         0.56982110E-05      0.11061973E-01     -0.14530370E-16      0.54121540E-08     -0.71090937E-23      0.18751399E-08     -0.21876093E-22
    0.728121374259         0.58501011E-05      0.10776488E-01     -0.40343423E-15      0.53663562E-08     -0.20089772E-21      0.19425081E-08     -0.24398127E-22
    0.734398282657         0.60036059E-05      0.10491111E-01     -0.17928600E-15      0.53155068E-08     -0.90838419E-22      0.20092380E-08     -0.25538496E-22
    0.740675191056         0.61586755E-05      0.10223466E-01      0.39851336E-16      0.52686623E-08      0.20537382E-22      0.20753799E-08     -0.25280673E-22
    0.746952099455         0.63152584E-05      0.99544866E-02     -0.32158027E-15      0.52162682E-08     -0.16851185E-21      0.21408639E-08     -0.27396140E-22
    0.753229007854         0.64733014E-05      0.97023521E-02     -0.11023357E-15      0.51679523E-08     -0.58715848E-22      0.22057415E-08     -0.28133248E-22
    0.759505916252         0.66327498E-05      0.94487827E-02      0.90967645E-16      0.51142387E-08      0.49237056E-22      0.22699447E-08     -0.27515135E-22
    0.765782824651         0.67935473E-05      0.92105534E-02     -0.24757533E-15      0.50642995E-08     -0.13612598E-21      0.23335210E-08     -0.29224036E-22
