
 # Omega; pulse ft; proj flux t=    500.25000000000000     
    0.000000000000         0.48101695E-08      0.00000000E+00      0.00000000E+00      0.00000000E+00      0.00000000E+00      0.00000000E+00      0.00000000E+00
    0.006276908399         0.47770843E-08      0.91291348E-09     -0.91413692E-17      0.43061525E-16     -0.43119234E-24      0.54058650E-18     -0.54131096E-26
    0.012553816798         0.46785215E-08      0.12659995E-07     -0.19632299E-16      0.29242134E-15     -0.45346804E-24      0.42115904E-17     -0.11105864E-25
    0.018830725196         0.45165593E-08      0.29157823E-07     -0.19652403E-18      0.43344944E-15     -0.29214537E-26      0.96530353E-17     -0.11142540E-25
    0.025107633595         0.42946588E-08      0.41172063E-07     -0.42107523E-18      0.43648385E-15     -0.44640110E-26      0.15132574E-16     -0.11198580E-25
    0.031384541994         0.40176601E-08      0.57101784E-07     -0.11650929E-16      0.45305377E-15     -0.92440142E-25      0.20820128E-16     -0.12359057E-25
    0.037661450393         0.36917769E-08      0.72888064E-07     -0.54405057E-17      0.44283047E-15     -0.33053721E-25      0.26379340E-16     -0.12774007E-25
    0.043938358791         0.33245900E-08      0.95237582E-07     -0.36760390E-17      0.44662733E-15     -0.17239198E-25      0.31986218E-16     -0.12990425E-25
    0.050215267190         0.29250384E-08      0.11998833E-06     -0.22214648E-16      0.43318906E-15     -0.80200656E-25      0.37424394E-16     -0.13997249E-25
    0.056492175589         0.25034100E-08      0.15816217E-06     -0.14510732E-16      0.43439916E-15     -0.39854345E-25      0.42877762E-16     -0.14497573E-25
    0.062769083988         0.20713294E-08      0.20450301E-06      0.84073952E-17      0.41825945E-15      0.17195212E-25      0.48128514E-16     -0.14281708E-25
    0.069045992387         0.16417461E-08      0.28288968E-06      0.14459504E-17      0.41689559E-15      0.21309025E-26      0.53362145E-16     -0.14254957E-25
    0.075322900785         0.12289191E-08      0.39777163E-06     -0.33296049E-16      0.40222842E-15     -0.33669110E-25      0.58411647E-16     -0.14677633E-25
    0.081599809184         0.84840195E-09      0.62414676E-06      0.17905371E-16      0.40219986E-15      0.11538212E-25      0.63460790E-16     -0.14532784E-25
    0.087876717583         0.51702483E-09      0.10511803E-05      0.99841711E-16      0.38331646E-15      0.36407618E-25      0.68272875E-16     -0.14075729E-25
    0.094153625982         0.25287634E-09      0.22749405E-05     -0.37398843E-16      0.37869002E-15     -0.62254676E-26      0.73026880E-16     -0.14153883E-25
    0.100430534380         0.75283188E-10      0.77308765E-05     -0.35584701E-15      0.35917296E-15     -0.16532488E-25      0.77535871E-16     -0.14361429E-25
    0.106707442779         0.47887752E-11      0.12710165E-03      0.12046015E-13      0.35352783E-15      0.33505476E-25      0.81973995E-16     -0.13940807E-25
    0.112984351178         0.63130302E-10      0.96432386E-05      0.39526945E-15      0.33395285E-15      0.13688489E-25      0.86166378E-16     -0.13768964E-25
    0.119261259577         0.27321457E-09      0.23093457E-05     -0.30525299E-17      0.32789598E-15     -0.43341813E-27      0.90282724E-16     -0.13774405E-25
    0.125538167976         0.65909246E-09      0.94436959E-06      0.69969807E-17      0.30729481E-15      0.22767949E-26      0.94140447E-16     -0.13745823E-25
    0.131815076374         0.12459320E-08      0.51233535E-06      0.51755598E-17      0.30014165E-15      0.30320005E-26      0.97908370E-16     -0.13707760E-25
    0.138091984773         0.20599905E-08      0.30131157E-06     -0.10229503E-17      0.27858339E-15     -0.94578830E-27      0.10140566E-15     -0.13719633E-25
    0.144368893172         0.31285846E-08      0.19947541E-06      0.83120345E-17      0.26792073E-15      0.11164115E-25      0.10476908E-15     -0.13579481E-25
    0.150645801571         0.44800604E-08      0.13889266E-06      0.11675417E-16      0.25600521E-15      0.21519983E-25      0.10798293E-15     -0.13309323E-25
    0.156922709970         0.61437611E-08      0.84187420E-07      0.50393161E-18      0.20428590E-15      0.12228208E-26      0.11054749E-15     -0.13293972E-25
    0.163199618368         0.81499942E-08      0.11775803E-06     -0.30514715E-17      0.36447804E-15     -0.94447433E-26      0.11512308E-15     -0.13412539E-25
    0.169476526767         0.10529997E-07      0.63571289E-07     -0.75165682E-18      0.24480619E-15     -0.28945495E-26      0.11819634E-15     -0.13448877E-25
    0.175753435166         0.13315903E-07      0.30906696E-07     -0.70209329E-17      0.14513163E-15     -0.32968888E-25      0.12001829E-15     -0.13862762E-25
    0.182030343565         0.16540703E-07      0.73787546E-07     -0.50951101E-17      0.41556209E-15     -0.28695013E-25      0.12523518E-15     -0.14222994E-25
    0.188307251963         0.20238209E-07      0.51599381E-07     -0.19103771E-17      0.34371003E-15     -0.12725264E-25      0.12955005E-15     -0.14382745E-25
    0.194584160362         0.24443018E-07      0.36283215E-07     -0.77454629E-18      0.28248525E-15     -0.60302788E-26      0.13309632E-15     -0.14458448E-25
    0.200861068761         0.29190467E-07      0.33208747E-07     -0.20923659E-17      0.29911655E-15     -0.18846277E-25      0.13685138E-15     -0.14695041E-25
    0.207137977160         0.34516601E-07      0.26297676E-07     -0.19485530E-17      0.27159910E-15     -0.20124411E-25      0.14026098E-15     -0.14947679E-25
    0.213414885559         0.40458122E-07      0.23293380E-07      0.43092485E-19      0.27368828E-15      0.50632017E-27      0.14369681E-15     -0.14941323E-25
    0.219691793957         0.47052358E-07      0.19385650E-07      0.52761610E-19      0.25733010E-15      0.70037119E-27      0.14692729E-15     -0.14932530E-25
    0.225968702356         0.54337209E-07      0.17599454E-07      0.22540510E-18      0.26229554E-15      0.33593515E-26      0.15022010E-15     -0.14890357E-25
    0.232245610755         0.62351112E-07      0.15203591E-07     -0.17786303E-18      0.25297963E-15     -0.29595458E-26      0.15339596E-15     -0.14927511E-25
    0.238522519154         0.71132993E-07      0.14131841E-07     -0.45992287E-20      0.26120598E-15     -0.85009874E-28      0.15667509E-15     -0.14928578E-25
    0.244799427552         0.80722221E-07      0.12579729E-07     -0.44837275E-18      0.25709681E-15     -0.91635677E-26      0.15990264E-15     -0.15043616E-25
    0.251076335951         0.91158567E-07      0.11977150E-07     -0.12114236E-20      0.26951805E-15     -0.27260285E-28      0.16328612E-15     -0.15043958E-25
    0.257353244350         0.10248215E-06      0.10945223E-07      0.18065910E-17      0.27013812E-15      0.44588320E-25      0.16667738E-15     -0.14484205E-25
    0.263630152749         0.11473340E-06      0.10662103E-07     -0.22365275E-18      0.28759433E-15     -0.60326996E-26      0.17028779E-15     -0.14559938E-25
    0.269907061148         0.12795300E-06      0.99846917E-08     -0.71077184E-19      0.29336855E-15     -0.20883780E-26      0.17397068E-15     -0.14586155E-25
    0.276183969546         0.14218184E-06      0.99225583E-08     -0.18824079E-18      0.31660080E-15     -0.60062318E-26      0.17794523E-15     -0.14661556E-25
    0.282460877945         0.15746099E-06      0.95047188E-08     -0.39262953E-19      0.32839506E-15     -0.13565641E-26      0.18206784E-15     -0.14678586E-25
    0.288737786344         0.17383161E-06      0.96060403E-08     -0.11115871E-18      0.35843649E-15     -0.41477379E-26      0.18656759E-15     -0.14730656E-25
    0.295014694743         0.19133494E-06      0.93922049E-08     -0.11566187E-17      0.37753818E-15     -0.46492566E-25      0.19130714E-15     -0.15314315E-25
    0.301291603141         0.21001223E-06      0.96222677E-08     -0.97140648E-18      0.41569775E-15     -0.41966354E-25      0.19652573E-15     -0.15841153E-25
    0.307568511540         0.22990470E-06      0.95808196E-08      0.19803258E-18      0.44386543E-15      0.91745612E-26      0.20209793E-15     -0.15725978E-25
    0.313845419939         0.25105348E-06      0.99218376E-08      0.10030503E-18      0.49190953E-15      0.49729697E-26      0.20827328E-15     -0.15663548E-25
    0.320122328338         0.27349956E-06      0.10039281E-07     -0.30497386E-21      0.53160121E-15     -0.16149012E-28      0.21494690E-15     -0.15663751E-25
    0.326399236737         0.29728375E-06      0.10488290E-07      0.34108001E-18      0.59206503E-15      0.19254001E-25      0.22237958E-15     -0.15422039E-25
    0.332676145135         0.32244665E-06      0.10766186E-07      0.17735683E-18      0.64675644E-15      0.10654346E-25      0.23049884E-15     -0.15288287E-25
    0.338953053534         0.34902853E-06      0.11331657E-07      0.39217837E-19      0.72319843E-15      0.25029242E-26      0.23957774E-15     -0.15256865E-25
    0.345229961933         0.37706937E-06      0.11786413E-07      0.32159795E-18      0.79787913E-15      0.21770516E-25      0.24959417E-15     -0.14983562E-25
    0.351506870332         0.40660873E-06      0.12491527E-07      0.14873179E-18      0.89557322E-15      0.10663244E-25      0.26083703E-15     -0.14849698E-25
    0.357783778731         0.43768576E-06      0.13160709E-07      0.15455207E-18      0.99784652E-15      0.11718156E-25      0.27336381E-15     -0.14702590E-25
    0.364060687129         0.47033912E-06      0.14047373E-07      0.10329148E-18      0.11247995E-14      0.82707423E-26      0.28748434E-15     -0.14598761E-25
    0.370337595528         0.50460692E-06      0.14997550E-07      0.20374180E-18      0.12665385E-14      0.17205932E-25      0.30338423E-15     -0.14382761E-25
    0.376614503927         0.54052672E-06      0.16136060E-07      0.21358987E-18      0.14353583E-14      0.18999556E-25      0.32140346E-15     -0.14144244E-25
    0.382891412326         0.57813541E-06      0.17485341E-07      0.98638661E-19      0.16363293E-14      0.92308944E-26      0.34194563E-15     -0.14028361E-25
    0.389168320724         0.61746923E-06      0.18996027E-07      0.13490534E-18      0.18680276E-14      0.13266296E-25      0.36539651E-15     -0.13861818E-25
    0.395445229123         0.65856368E-06      0.20958204E-07      0.94350336E-19      0.21632573E-14      0.97386231E-26      0.39255365E-15     -0.13739561E-25
    0.401722137522         0.70145349E-06      0.23054678E-07      0.75894796E-19      0.24950246E-14      0.82134910E-26      0.42387573E-15     -0.13636451E-25
    0.407999045921         0.74617255E-06      0.26047747E-07      0.67054177E-19      0.29525208E-14      0.76006132E-26      0.46094113E-15     -0.13541034E-25
    0.414275954320         0.79275391E-06      0.29143171E-07      0.14259360E-18      0.34564331E-14      0.16911860E-25      0.50433256E-15     -0.13328726E-25
    0.420552862718         0.84122969E-06      0.34099038E-07      0.12523340E-18      0.42274531E-14      0.15525902E-25      0.55740323E-15     -0.13133816E-25
    0.426829771117         0.89163103E-06      0.39095690E-07      0.95405167E-19      0.50617656E-14      0.12352221E-25      0.62094771E-15     -0.12978749E-25
    0.433106679516         0.94398810E-06      0.48524980E-07      0.15247676E-18      0.65551054E-14      0.20597664E-25      0.70323930E-15     -0.12720170E-25
    0.439383587915         0.99833000E-06      0.57815005E-07      0.62205498E-19      0.81416707E-14      0.87599522E-26      0.80544834E-15     -0.12610199E-25
    0.445660496313         0.10546847E-05      0.81560354E-07      0.57439120E-19      0.11963005E-13      0.84249819E-26      0.95562972E-15     -0.12504433E-25
    0.451937404712         0.11130792E-05      0.10400668E-06      0.11616835E-19      0.15876387E-13      0.17732839E-26      0.11549390E-14     -0.12482172E-25
    0.458214313111         0.11735391E-05      0.25334348E-06      0.12036360E-18      0.40214373E-13      0.19105866E-25      0.16597828E-14     -0.12242320E-25
    0.464491221510         0.12360889E-05      0.33064682E-06      0.79068628E-19      0.54535489E-13      0.13041245E-25      0.23444114E-14     -0.12078603E-25
    0.470768129909         0.13007518E-05     -0.61757745E-07      0.46279113E-19     -0.10576001E-13      0.79252884E-26      0.22116422E-14     -0.11979110E-25
    0.477045038307         0.13675498E-05     -0.31484471E-06      0.67135822E-19     -0.55940048E-13      0.11928360E-25      0.15093811E-14     -0.11829364E-25
    0.483321946706         0.14365034E-05     -0.18620144E-06      0.15550604E-19     -0.34300137E-13      0.28645742E-26      0.10787835E-14     -0.11793402E-25
    0.489598855105         0.15076320E-05     -0.11078075E-06      0.19440607E-19     -0.21142772E-13      0.37102865E-26      0.81336098E-15     -0.11746824E-25
    0.495875763504         0.15809533E-05     -0.94133161E-07     -0.26965415E-19     -0.18600793E-13     -0.53283892E-26      0.57985003E-15     -0.11813716E-25
    0.502152671902         0.16564837E-05     -0.73490942E-07      0.27709845E-19     -0.15025464E-13      0.56653684E-26      0.39122311E-15     -0.11742594E-25
    0.508429580301         0.17342382E-05     -0.71019072E-07      0.78819981E-20     -0.15013972E-13      0.16663144E-26      0.20274045E-15     -0.11721675E-25
    0.514706488700         0.18142301E-05     -0.54697295E-07     -0.26988158E-20     -0.11949267E-13     -0.58958802E-27      0.52731549E-16     -0.11729077E-25
    0.520983397099         0.18964714E-05     -0.65485992E-07      0.20852703E-19     -0.14774524E-13      0.47046513E-26     -0.13274512E-15     -0.11670015E-25
    0.527260305498         0.19809723E-05     -0.20600326E-07     -0.11605064E-19     -0.47970042E-14     -0.27023621E-26     -0.19296583E-15     -0.11703940E-25
    0.533537213896         0.20677417E-05     -0.73726862E-07     -0.33285063E-20     -0.17709242E-13     -0.79950948E-27     -0.41528442E-15     -0.11713977E-25
    0.539814122295         0.21567865E-05     -0.10269510E-05      0.61652197E-20     -0.25430524E-12      0.15267015E-26     -0.36077858E-14     -0.11694811E-25
    0.546091030694         0.22481122E-05     -0.12476739E-05      0.31996217E-19     -0.31834403E-12      0.81638355E-26     -0.76042184E-14     -0.11592324E-25
    0.552367939093         0.23417227E-05      0.13144705E-06      0.41513629E-20      0.34538266E-13      0.10907881E-26     -0.71706313E-14     -0.11578630E-25
    0.558644847491         0.24376201E-05      0.16577421E-05     -0.45221222E-19      0.44832179E-12     -0.12229683E-25     -0.15424817E-14     -0.11732159E-25
    0.564921755890         0.25358047E-05      0.55834413E-05     -0.93809407E-19      0.15533600E-11     -0.26098561E-25      0.17958116E-13     -0.12059796E-25
    0.571198664289         0.26362751E-05      0.97745251E-05      0.12899004E-18      0.27960304E-11      0.36897965E-25      0.53058969E-13     -0.11596586E-25
    0.577475572688         0.27390284E-05      0.86955876E-05     -0.20642245E-18      0.25562571E-11     -0.60682368E-25      0.85149752E-13     -0.12358381E-25
    0.583752481087         0.28440596E-05      0.63317362E-05     -0.34061038E-19      0.19119452E-11     -0.10285147E-25      0.10915196E-12     -0.12487499E-25
    0.590029389485         0.29513621E-05      0.63326684E-05     -0.23554687E-18      0.19632621E-11     -0.73024545E-25      0.13379839E-12     -0.13404236E-25
    0.596306297884         0.30609274E-05      0.66709572E-05     -0.11355350E-18      0.21223376E-11     -0.36126579E-25      0.16044183E-12     -0.13857762E-25
    0.602583206283         0.31727453E-05      0.67851491E-05      0.78793365E-20      0.22142174E-11      0.25712868E-26      0.18823871E-12     -0.13825483E-25
    0.608860114682         0.32868038E-05      0.67341594E-05     -0.22594301E-18      0.22531096E-11     -0.75595831E-25      0.21652384E-12     -0.14774499E-25
    0.615137023081         0.34030889E-05      0.66186260E-05     -0.64866808E-19      0.22694046E-11     -0.22241631E-25      0.24501353E-12     -0.15053716E-25
    0.621413931479         0.35215848E-05      0.65460591E-05      0.59297406E-19      0.22992159E-11      0.20827423E-25      0.27387746E-12     -0.14792253E-25
    0.627690839878         0.36422741E-05      0.64793581E-05     -0.17123263E-18      0.23302445E-11     -0.61582318E-25      0.30313092E-12     -0.15565346E-25
    0.633967748277         0.37651372E-05      0.64237689E-05     -0.26893971E-19      0.23645376E-11     -0.98994541E-26      0.33281490E-12     -0.15689622E-25
    0.640244656676         0.38901529E-05      0.63845666E-05      0.96614781E-19      0.24043341E-11      0.36383708E-25      0.36299847E-12     -0.15232867E-25
    0.646521565074         0.40172981E-05      0.63503252E-05     -0.13319861E-18      0.24456240E-11     -0.51297171E-25      0.39370038E-12     -0.15876843E-25
    0.652798473473         0.41465478E-05      0.62389663E-05      0.35922205E-20      0.24561951E-11      0.14142077E-26      0.42453500E-12     -0.15859089E-25
    0.659075381872         0.42778752E-05      0.61007338E-05     -0.20772951E-18      0.24542442E-11     -0.83566820E-25      0.45534514E-12     -0.16908171E-25
    0.665352290271         0.44112515E-05      0.59703262E-05     -0.76340941E-19      0.24533014E-11     -0.31369699E-25      0.48614343E-12     -0.17301981E-25
    0.671629198670         0.45466464E-05      0.58511559E-05      0.45962908E-19      0.24549687E-11      0.19284651E-25      0.51696266E-12     -0.17059885E-25
    0.677906107068         0.46840274E-05      0.57326385E-05     -0.15761127E-18      0.24549752E-11     -0.67496278E-25      0.54778197E-12     -0.17907221E-25
    0.684183015467         0.48233604E-05      0.56162774E-05     -0.53257281E-19      0.24539666E-11     -0.23270145E-25      0.57858862E-12     -0.18199350E-25
    0.690459923866         0.49646095E-05      0.54992998E-05      0.66641262E-19      0.24507369E-11      0.29698362E-25      0.60935472E-12     -0.17826522E-25
    0.696736832265         0.51077368E-05      0.53825488E-05     -0.10978673E-18      0.24456280E-11     -0.49882964E-25      0.64005668E-12     -0.18452744E-25
    0.703013740663         0.52527028E-05      0.52663234E-05     -0.11660257E-19      0.24387608E-11     -0.53997022E-26      0.67067244E-12     -0.18520531E-25
    0.709290649062         0.53994662E-05      0.51512257E-05      0.77659773E-19      0.24304117E-11      0.36640837E-25      0.70118338E-12     -0.18060548E-25
    0.715567557461         0.55479838E-05      0.50376587E-05     -0.10514433E-18      0.24207835E-11     -0.50525785E-25      0.73157346E-12     -0.18694840E-25
    0.721844465860         0.56982110E-05      0.49264507E-05      0.70949072E-20      0.24103034E-11      0.34712372E-26      0.76183196E-12     -0.18651262E-25
    0.728121374259         0.58501011E-05      0.48168192E-05     -0.16858986E-18      0.23986264E-11     -0.83952513E-25      0.79194388E-12     -0.19705187E-25
    0.734398282657         0.60036059E-05      0.47104193E-05     -0.64451205E-19      0.23866172E-11     -0.32655342E-25      0.82190504E-12     -0.20115136E-25
    0.740675191056         0.61586755E-05      0.46050065E-05      0.16714490E-19      0.23731897E-11      0.86138107E-26      0.85169762E-12     -0.20007000E-25
    0.746952099455         0.63152584E-05      0.45034510E-05     -0.13297768E-18      0.23598614E-11     -0.69681872E-25      0.88132289E-12     -0.20881773E-25
    0.753229007854         0.64733014E-05      0.44022695E-05     -0.44170279E-19      0.23448663E-11     -0.23527274E-25      0.91075991E-12     -0.21177130E-25
    0.759505916252         0.66327498E-05      0.43055492E-05      0.52731286E-19      0.23304172E-11      0.28541283E-25      0.94001554E-12     -0.20818828E-25
    0.765782824651         0.67935473E-05      0.42090188E-05     -0.10124527E-18      0.23142726E-11     -0.55668359E-25      0.96906850E-12     -0.21517679E-25
