
 # Omega; pulse ft; proj flux t=    500.25000000000000     
    0.000000000000         0.48101695E-08      0.00000000E+00      0.00000000E+00      0.00000000E+00      0.00000000E+00      0.00000000E+00      0.00000000E+00
    0.006276908399         0.47770843E-08      0.77763003E-06     -0.30493915E-14      0.36680294E-13     -0.14383778E-21      0.46047769E-15     -0.18057131E-23
    0.012553816798         0.46785215E-08      0.44074720E-05     -0.11186867E-14      0.10180406E-12     -0.25839492E-22      0.17385072E-14     -0.21300974E-23
    0.018830725196         0.45165593E-08      0.82013978E-05      0.28532521E-14      0.12191895E-12      0.42415393E-22      0.32690553E-14     -0.15976223E-23
    0.025107633595         0.42946588E-08      0.11648150E-04      0.20260861E-14      0.12348737E-12      0.21479464E-22      0.48192931E-14     -0.13279730E-23
    0.031384541994         0.40176601E-08      0.15758475E-04      0.21713287E-14      0.12503001E-12      0.17227634E-22      0.63888969E-14     -0.11117005E-23
    0.037661450393         0.36917769E-08      0.20889850E-04     -0.26845674E-15      0.12691601E-12     -0.16310054E-23      0.79821772E-14     -0.11321758E-23
    0.043938358791         0.33245900E-08      0.27439330E-04     -0.54327648E-14      0.12867982E-12     -0.25477560E-22      0.95976001E-14     -0.14520164E-23
    0.050215267190         0.29250384E-08      0.35941918E-04     -0.10743829E-13      0.12975967E-12     -0.38788015E-22      0.11226579E-13     -0.19389541E-23
    0.056492175589         0.25034100E-08      0.47602385E-04      0.54298255E-15      0.13074198E-12      0.14913247E-23      0.12867890E-13     -0.19202323E-23
    0.062769083988         0.20713294E-08      0.63787160E-04     -0.99172498E-15      0.13046059E-12     -0.20283239E-23      0.14505668E-13     -0.19456955E-23
    0.069045992387         0.16417461E-08      0.88474326E-04     -0.94688279E-14      0.13038495E-12     -0.13954247E-22      0.16142497E-13     -0.21208745E-23
    0.075322900785         0.12289191E-08      0.13642295E-03     -0.20424922E-14      0.13795148E-12     -0.20653771E-23      0.17874315E-13     -0.21468029E-23
    0.081599809184         0.84840195E-09      0.22460141E-03     -0.15123617E-13      0.14473304E-12     -0.97456510E-23      0.19691267E-13     -0.22691480E-23
    0.087876717583         0.51702483E-09      0.39339138E-03     -0.25529623E-13      0.14345150E-12     -0.93094633E-23      0.21492131E-13     -0.23860173E-23
    0.094153625982         0.25287634E-09      0.85751622E-03     -0.13969020E-12      0.14274344E-12     -0.23253041E-22      0.23284105E-13     -0.26779317E-23
    0.100430534380         0.75283188E-10      0.30678338E-02     -0.49603655E-13      0.14253015E-12     -0.23045630E-23      0.25073403E-13     -0.27068628E-23
    0.106707442779         0.47887752E-11      0.51030682E-01     -0.43185037E-11      0.14193967E-12     -0.12011734E-22      0.26855287E-13     -0.28576559E-23
    0.112984351178         0.63130302E-10      0.41186990E-02     -0.66150555E-12      0.14263375E-12     -0.22908452E-22      0.28645885E-13     -0.31452444E-23
    0.119261259577         0.27321457E-09      0.10114622E-02     -0.33055368E-13      0.14361401E-12     -0.46934170E-23      0.30448789E-13     -0.32041647E-23
    0.125538167976         0.65909246E-09      0.44400753E-03     -0.14365863E-13      0.14447862E-12     -0.46746054E-23      0.32262547E-13     -0.32628488E-23
    0.131815076374         0.12459320E-08      0.24824075E-03     -0.27398446E-13      0.14542699E-12     -0.16050844E-22      0.34088211E-13     -0.34643482E-23
    0.138091984773         0.20599905E-08      0.15846946E-03     -0.10534254E-13      0.14651598E-12     -0.97396466E-23      0.35927546E-13     -0.35866179E-23
    0.144368893172         0.31285846E-08      0.11000253E-03     -0.29169637E-14      0.14774732E-12     -0.39178516E-23      0.37782339E-13     -0.36358019E-23
    0.150645801571         0.44800604E-08      0.80784439E-04     -0.32513915E-14      0.14890087E-12     -0.59929242E-23      0.39651613E-13     -0.37110360E-23
    0.156922709970         0.61437611E-08      0.61955624E-04     -0.67893382E-14      0.15033910E-12     -0.16474743E-22      0.41538942E-13     -0.39178569E-23
    0.163199618368         0.81499942E-08      0.48962435E-04     -0.30416839E-14      0.15154578E-12     -0.94144492E-23      0.43441420E-13     -0.40360442E-23
    0.169476526767         0.10529997E-07      0.39700919E-04     -0.29339956E-14      0.15288397E-12     -0.11298501E-22      0.45360698E-13     -0.41778835E-23
    0.175753435166         0.13315903E-07      0.32859760E-04      0.55482750E-15      0.15430282E-12      0.26053583E-23      0.47297787E-13     -0.41451763E-23
    0.182030343565         0.16540703E-07      0.27614801E-04     -0.46620141E-15      0.15552305E-12     -0.26255871E-23      0.49250195E-13     -0.41781374E-23
    0.188307251963         0.20238209E-07      0.23437265E-04      0.59359148E-15      0.15611860E-12      0.39539882E-23      0.51210079E-13     -0.41284998E-23
    0.194584160362         0.24443018E-07      0.20267935E-04      0.29547509E-15      0.15779728E-12      0.23004399E-23      0.53191037E-13     -0.40996205E-23
    0.200861068761         0.29190467E-07      0.17777244E-04     -0.40882088E-15      0.16012251E-12     -0.36823157E-23      0.55201186E-13     -0.41458476E-23
    0.207137977160         0.34516601E-07      0.15657204E-04      0.29862563E-15      0.16170564E-12      0.30841681E-23      0.57231209E-13     -0.41071295E-23
    0.213414885559         0.40458122E-07      0.13840975E-04     -0.14567003E-15      0.16262615E-12     -0.17115670E-23      0.59272788E-13     -0.41286162E-23
    0.219691793957         0.47052358E-07      0.12368659E-04     -0.44046495E-15      0.16418476E-12     -0.58468450E-23      0.61333933E-13     -0.42020164E-23
    0.225968702356         0.54337209E-07      0.11100471E-04     -0.87093326E-15      0.16543717E-12     -0.12980057E-22      0.63410801E-13     -0.43649657E-23
    0.232245610755         0.62351112E-07      0.10035189E-04     -0.50514144E-15      0.16698018E-12     -0.84052834E-23      0.65507040E-13     -0.44704841E-23
    0.238522519154         0.71132993E-07      0.91051129E-05     -0.16230864E-15      0.16829441E-12     -0.30000328E-23      0.67619777E-13     -0.45081459E-23
    0.244799427552         0.80722221E-07      0.83117812E-05     -0.68681413E-15      0.16987110E-12     -0.14036687E-22      0.69752308E-13     -0.46843599E-23
    0.251076335951         0.91158567E-07      0.76098590E-05     -0.26822050E-15      0.17124228E-12     -0.60356819E-23      0.71902052E-13     -0.47601308E-23
    0.257353244350         0.10248215E-06      0.70041983E-05     -0.27393024E-15      0.17287002E-12     -0.67608491E-23      0.74072230E-13     -0.48450052E-23
    0.263630152749         0.11473340E-06      0.64624431E-05     -0.14360337E-15      0.17431477E-12     -0.38734869E-23      0.76260546E-13     -0.48936323E-23
    0.269907061148         0.12795300E-06      0.59902781E-05     -0.36641709E-15      0.17600535E-12     -0.10766006E-22      0.78470085E-13     -0.50287868E-23
    0.276183969546         0.14218184E-06      0.55641823E-05     -0.13722479E-15      0.17753733E-12     -0.43784554E-23      0.80698856E-13     -0.50837531E-23
    0.282460877945         0.15746099E-06      0.51895309E-05     -0.12881636E-15      0.17930213E-12     -0.44507006E-23      0.82949782E-13     -0.51396264E-23
    0.288737786344         0.17383161E-06      0.48490393E-05     -0.29818218E-15      0.18093539E-12     -0.11126267E-22      0.85221212E-13     -0.52793035E-23
    0.295014694743         0.19133494E-06      0.45472508E-05     -0.18720265E-15      0.18278570E-12     -0.75249792E-23      0.87515870E-13     -0.53737707E-23
    0.301291603141         0.21001223E-06      0.42713705E-05     -0.80460978E-16      0.18453021E-12     -0.34760463E-23      0.89832429E-13     -0.54174083E-23
    0.307568511540         0.22990470E-06      0.40251284E-05     -0.82125636E-16      0.18647834E-12     -0.38047612E-23      0.92173444E-13     -0.54651726E-23
    0.313845419939         0.25105348E-06      0.37989484E-05     -0.23488318E-15      0.18834605E-12     -0.11645149E-22      0.94537905E-13     -0.56113637E-23
    0.320122328338         0.27349956E-06      0.35956470E-05     -0.90101302E-16      0.19039712E-12     -0.47710548E-23      0.96928116E-13     -0.56712586E-23
    0.326399236737         0.29728375E-06      0.34081914E-05     -0.10303811E-15      0.19239274E-12     -0.58165119E-23      0.99343379E-13     -0.57442781E-23
    0.332676145135         0.32244665E-06      0.32388418E-05     -0.91991729E-16      0.19456675E-12     -0.55262136E-23      0.10178593E-12     -0.58136531E-23
    0.338953053534         0.34902853E-06      0.30818898E-05     -0.15185830E-15      0.19668950E-12     -0.96917584E-23      0.10425514E-12     -0.59353217E-23
    0.345229961933         0.37706937E-06      0.29396025E-05     -0.15670060E-15      0.19899587E-12     -0.10607820E-22      0.10675330E-12     -0.60684903E-23
    0.351506870332         0.40660873E-06      0.28070760E-05      0.15381898E-16      0.20125178E-12      0.11027968E-23      0.10927977E-12     -0.60546460E-23
    0.357783778731         0.43768576E-06      0.26868265E-05     -0.10087095E-15      0.20371550E-12     -0.76480475E-23      0.11183718E-12     -0.61506582E-23
    0.364060687129         0.47033912E-06      0.25739772E-05     -0.26155214E-16      0.20610318E-12     -0.20942970E-23      0.11442456E-12     -0.61769496E-23
    0.370337595528         0.50460692E-06      0.24719229E-05     -0.12279176E-15      0.20875313E-12     -0.10369726E-22      0.11704521E-12     -0.63071293E-23
    0.376614503927         0.54052672E-06      0.23749610E-05     -0.27469056E-15      0.21126098E-12     -0.24434673E-22      0.11969734E-12     -0.66138777E-23
    0.382891412326         0.57813541E-06      0.22885182E-05     -0.25931280E-15      0.21416623E-12     -0.24267250E-22      0.12238595E-12     -0.69185243E-23
    0.389168320724         0.61746923E-06      0.22045596E-05     -0.10175712E-15      0.21679155E-12     -0.10006572E-22      0.12510751E-12     -0.70441450E-23
    0.395445229123         0.65856368E-06      0.21317306E-05     -0.42899518E-16      0.22003230E-12     -0.44279889E-23      0.12786975E-12     -0.70997331E-23
    0.401722137522         0.70145349E-06      0.20577416E-05     -0.96327274E-16      0.22269303E-12     -0.10424736E-22      0.13066540E-12     -0.72306033E-23
    0.407999045921         0.74617255E-06      0.19983548E-05     -0.84741274E-16      0.22651418E-12     -0.96054516E-23      0.13350902E-12     -0.73511884E-23
    0.414275954320         0.79275391E-06      0.19316892E-05     -0.68148150E-16      0.22910185E-12     -0.80824945E-23      0.13638512E-12     -0.74526546E-23
    0.420552862718         0.84122969E-06      0.18872613E-05      0.12582976E-16      0.23397459E-12      0.15599836E-23      0.13932239E-12     -0.74330708E-23
    0.426829771117         0.89163103E-06      0.18215090E-05     -0.88319894E-16      0.23583294E-12     -0.11434882E-22      0.14228300E-12     -0.75766222E-23
    0.433106679516         0.94398810E-06      0.18003870E-05     -0.70774111E-16      0.24320930E-12     -0.95606790E-23      0.14533620E-12     -0.76966452E-23
    0.439383587915         0.99833000E-06      0.17177365E-05      0.20926667E-16      0.24189646E-12      0.29469518E-23      0.14837293E-12     -0.76596498E-23
    0.445660496313         0.10546847E-05      0.17619123E-05     -0.14693075E-16      0.25843153E-12     -0.21551321E-23      0.15161723E-12     -0.76867049E-23
    0.451937404712         0.11130792E-05      0.15127941E-05     -0.79762222E-17      0.23092464E-12     -0.12175525E-23      0.15451621E-12     -0.77019898E-23
    0.458214313111         0.11735391E-05      0.21277153E-05     -0.27869886E-16      0.33774201E-12     -0.44239150E-23      0.15875617E-12     -0.77575268E-23
    0.464491221510         0.12360889E-05      0.62427070E-05      0.27139588E-17      0.10296457E-11      0.44762889E-24      0.17168215E-12     -0.77519074E-23
    0.470768129909         0.13007518E-05      0.65961606E-05     -0.12581678E-16      0.11295911E-11     -0.21546098E-23      0.18586283E-12     -0.77789560E-23
    0.477045038307         0.13675498E-05      0.20975816E-05      0.17660905E-16      0.37268790E-12      0.31379020E-23      0.19054149E-12     -0.77395633E-23
    0.483321946706         0.14365034E-05      0.82387650E-06     -0.36739991E-17      0.15176616E-12     -0.67678679E-24      0.19244673E-12     -0.77480596E-23
    0.489598855105         0.15076320E-05      0.12506208E-05     -0.24806046E-16      0.23868397E-12     -0.47342934E-23      0.19544312E-12     -0.78074930E-23
    0.495875763504         0.15809533E-05      0.11734395E-05     -0.22726340E-16      0.23187266E-12     -0.44907443E-23      0.19835401E-12     -0.78638690E-23
    0.502152671902         0.16564837E-05      0.12309634E-05     -0.30279656E-16      0.25167449E-12     -0.61907747E-23      0.20151349E-12     -0.79415869E-23
    0.508429580301         0.17342382E-05      0.11462216E-05     -0.89201984E-17      0.24231996E-12     -0.18857978E-23      0.20455553E-12     -0.79652608E-23
    0.514706488700         0.18142301E-05      0.11518277E-05     -0.42150372E-16      0.25163029E-12     -0.92082440E-23      0.20771445E-12     -0.80808594E-23
    0.520983397099         0.18964714E-05      0.82299619E-06     -0.11258144E-16      0.18567905E-12     -0.25399894E-23      0.21004543E-12     -0.81127460E-23
    0.527260305498         0.19809723E-05      0.67683261E-06      0.93275298E-18      0.15760765E-12      0.21720142E-24      0.21202401E-12     -0.81100193E-23
    0.533537213896         0.20677417E-05     -0.63632105E-05     -0.26539469E-16     -0.15284475E-11     -0.63747985E-23      0.19283616E-12     -0.81900473E-23
    0.539814122295         0.21567865E-05     -0.32022437E-04     -0.73318091E-17     -0.79297584E-11     -0.18155856E-23      0.93287422E-13     -0.82128399E-23
    0.546091030694         0.22481122E-05     -0.45990969E-04     -0.17464392E-16     -0.11734597E-10     -0.44560400E-23     -0.54026559E-13     -0.82687802E-23
    0.552367939093         0.23417227E-05     -0.22238819E-04      0.37108138E-17     -0.58433433E-11      0.97503195E-24     -0.12738282E-12     -0.82565398E-23
    0.558644847491         0.24376201E-05      0.11102803E-04     -0.33325129E-16      0.30026556E-11     -0.90124887E-23     -0.89688032E-13     -0.83696809E-23
    0.564921755890         0.25358047E-05      0.66289368E-04     -0.18181465E-16      0.18442256E-10     -0.50582354E-23      0.14183267E-12     -0.84331811E-23
    0.571198664289         0.26362751E-05      0.12388793E-03     -0.49690381E-17      0.35438490E-10     -0.14214073E-23      0.58672098E-12     -0.84510252E-23
    0.577475572688         0.27390284E-05      0.11191513E-03     -0.23364222E-16      0.32899886E-10     -0.68684213E-23      0.99974012E-12     -0.85372501E-23
    0.583752481087         0.28440596E-05      0.82351531E-04     -0.18672261E-16      0.24867052E-10     -0.56383177E-23      0.13119165E-11     -0.86080325E-23
    0.590029389485         0.29513621E-05      0.82563858E-04     -0.98000767E-17      0.25596554E-10     -0.30382325E-23      0.16332510E-11     -0.86461739E-23
    0.596306297884         0.30609274E-05      0.85896040E-04     -0.17974590E-17      0.27327472E-10     -0.57185418E-24      0.19763151E-11     -0.86533529E-23
    0.602583206283         0.31727453E-05      0.88113128E-04     -0.24514192E-16      0.28754213E-10     -0.79997874E-23      0.23372902E-11     -0.87537807E-23
    0.608860114682         0.32868038E-05      0.86785118E-04     -0.22348377E-16      0.29036495E-10     -0.74773020E-23      0.27018090E-11     -0.88476494E-23
    0.615137023081         0.34030889E-05      0.85622780E-04     -0.86839033E-17      0.29358470E-10     -0.29775501E-23      0.30703699E-11     -0.88850290E-23
    0.621413931479         0.35215848E-05      0.84485101E-04     -0.98975423E-17      0.29674265E-10     -0.34763797E-23      0.34428952E-11     -0.89286709E-23
    0.627690839878         0.36422741E-05      0.83962091E-04     -0.86653006E-17      0.30196232E-10     -0.31163996E-23      0.38219731E-11     -0.89677936E-23
    0.633967748277         0.37651372E-05      0.83187276E-04     -0.12302769E-16      0.30620566E-10     -0.45285503E-23      0.42063781E-11     -0.90246442E-23
    0.640244656676         0.38901529E-05      0.82415790E-04     -0.10116216E-16      0.31036576E-10     -0.38096185E-23      0.45960056E-11     -0.90724694E-23
    0.646521565074         0.40172981E-05      0.81384469E-04     -0.26695806E-16      0.31342617E-10     -0.10281033E-22      0.49894751E-11     -0.92015356E-23
    0.652798473473         0.41465478E-05      0.80125974E-04     -0.10930800E-16      0.31544493E-10     -0.43033056E-23      0.53854788E-11     -0.92555585E-23
    0.659075381872         0.42778752E-05      0.78963177E-04     -0.20335760E-16      0.31765837E-10     -0.81808060E-23      0.57842613E-11     -0.93582589E-23
    0.665352290271         0.44112515E-05      0.77551410E-04     -0.22767121E-16      0.31867100E-10     -0.93553698E-23      0.61843151E-11     -0.94757045E-23
    0.671629198670         0.45466464E-05      0.76453605E-04     -0.16134819E-16      0.32077629E-10     -0.67696838E-23      0.65870117E-11     -0.95606898E-23
    0.677906107068         0.46840274E-05      0.74997619E-04     -0.18449825E-16      0.32117374E-10     -0.79010500E-23      0.69902074E-11     -0.96598782E-23
    0.684183015467         0.48233604E-05      0.73924819E-04     -0.17677887E-16      0.32300584E-10     -0.77241455E-23      0.73957030E-11     -0.97568457E-23
    0.690459923866         0.49646095E-05      0.72412289E-04     -0.27118089E-16      0.32270193E-10     -0.12085048E-22      0.78008171E-11     -0.99085592E-23
    0.696736832265         0.51077368E-05      0.71310073E-04     -0.18557352E-16      0.32400618E-10     -0.84317636E-23      0.82075685E-11     -0.10014410E-22
    0.703013740663         0.52527028E-05      0.69764186E-04     -0.51660491E-17      0.32306821E-10     -0.23923252E-23      0.86131424E-11     -0.10044443E-22
    0.709290649062         0.53994662E-05      0.68623310E-04     -0.48045513E-17      0.32377322E-10     -0.22668464E-23      0.90196014E-11     -0.10072900E-22
    0.715567557461         0.55479838E-05      0.67089475E-04     -0.78550572E-17      0.32239004E-10     -0.37746490E-23      0.94243239E-11     -0.10120287E-22
    0.721844465860         0.56982110E-05      0.65916934E-04     -0.82784428E-17      0.32250360E-10     -0.40502909E-23      0.98291891E-11     -0.10171133E-22
    0.728121374259         0.58501011E-05      0.64427563E-04     -0.65102019E-17      0.32082926E-10     -0.32418784E-23      0.10231952E-10     -0.10211831E-22
    0.734398282657         0.60036059E-05      0.63224561E-04     -0.12894301E-16      0.32033841E-10     -0.65331255E-23      0.10634099E-10     -0.10293847E-22
    0.740675191056         0.61586755E-05      0.61795974E-04     -0.66139486E-17      0.31846549E-10     -0.34084978E-23      0.11033895E-10     -0.10336636E-22
    0.746952099455         0.63152584E-05      0.60561393E-04     -0.86204869E-17      0.31734883E-10     -0.45172366E-23      0.11432289E-10     -0.10393345E-22
    0.753229007854         0.64733014E-05      0.59201416E-04     -0.80867816E-17      0.31533601E-10     -0.43074196E-23      0.11828156E-10     -0.10447420E-22
    0.759505916252         0.66327498E-05      0.57937093E-04     -0.74982939E-17      0.31358973E-10     -0.40585191E-23      0.12221831E-10     -0.10498370E-22
    0.765782824651         0.67935473E-05      0.56649234E-04     -0.83802093E-17      0.31147823E-10     -0.46077459E-23      0.12612855E-10     -0.10556214E-22
