 #KVL flux sum: time, flux integral, flux
 
    0.000000000000         0.00000000E+00      0.00000000E+00      0.00000000E+00      0.00000000E+00
    0.500000000000         0.99504501E-13     -0.14935191E-14      0.39801800E-12     -0.59740763E-14
    1.000000000000         0.29567570E-12     -0.28668557E-14      0.78468478E-12     -0.54933466E-14
    1.500000000000         0.83010312E-12     -0.55374607E-14      0.21377097E-11     -0.10682420E-13
    2.000000000000         0.20473111E-11     -0.62181513E-14      0.48688321E-11     -0.27227624E-14
    2.500000000000         0.47338090E-11     -0.84941740E-14      0.10745991E-10     -0.91040910E-14
    3.000000000000         0.10685184E-10     -0.81821944E-14      0.23805500E-10      0.12479186E-14
    3.500000000000         0.18036384E-10     -0.72250035E-14      0.29404802E-10      0.38287636E-14
    4.000000000000         0.20213402E-10     -0.96380106E-14      0.87080687E-11     -0.96520286E-14
    4.500000000000         0.20923132E-10     -0.10453615E-13      0.28389222E-11     -0.32624167E-14
    5.000000000000         0.28853611E-10     -0.10629701E-13      0.31721917E-10     -0.70434306E-15
    5.500000000000         0.46514883E-10     -0.96121880E-14      0.70645085E-10      0.40700501E-14
    6.000000000000         0.70469273E-10     -0.11214972E-13      0.95817563E-10     -0.64111376E-14
    6.500000000000         0.10303706E-09     -0.13181044E-13      0.13027114E-09     -0.78642879E-14
    7.000000000000         0.15992343E-09     -0.15418879E-13      0.22754550E-09     -0.89513380E-14
    7.500000000000         0.26286278E-09     -0.16926045E-13      0.41175739E-09     -0.60286658E-14
    8.000000000000         0.43804321E-09     -0.15423095E-13      0.70072172E-09      0.60118030E-14
    8.500000000000         0.72834236E-09     -0.17071071E-13      0.11611966E-08     -0.65919070E-14
    9.000000000000         0.12123350E-08     -0.20798915E-13      0.19359706E-08     -0.14911373E-13
    9.500000000000         0.20217752E-08     -0.22071834E-13      0.32377607E-08     -0.50916754E-14
   10.000000000000         0.33485353E-08     -0.23684017E-13      0.53070405E-08     -0.64487351E-14
   10.500000000000         0.54506161E-08     -0.26167019E-13      0.84083233E-08     -0.99320086E-14
   11.000000000000         0.86608084E-08     -0.27476198E-13      0.12840769E-07     -0.52367134E-14
   11.500000000000         0.13396298E-07     -0.29029051E-13      0.18941958E-07     -0.62114128E-14
   12.000000000000         0.20167814E-07     -0.29243718E-13      0.27086065E-07     -0.85866766E-15
   12.500000000000         0.29588305E-07     -0.29178029E-13      0.37681962E-07      0.26275380E-15
   13.000000000000         0.42388599E-07     -0.30756673E-13      0.51201179E-07     -0.63145757E-14
   13.500000000000         0.59426821E-07     -0.32868817E-13      0.68152886E-07     -0.84485738E-14
   14.000000000000         0.81678204E-07     -0.34860559E-13      0.89005533E-07     -0.79669668E-14
   14.500000000000         0.11021126E-06     -0.35413964E-13      0.11413222E-06     -0.22136225E-14
   15.000000000000         0.14615656E-06     -0.36560576E-13      0.14378120E-06     -0.45864467E-14
   15.500000000000         0.19067497E-06     -0.38255158E-13      0.17807366E-06     -0.67783276E-14
   16.000000000000         0.24492042E-06     -0.39524497E-13      0.21698177E-06     -0.50773555E-14
   16.500000000000         0.30999798E-06     -0.41044114E-13      0.26031026E-06     -0.60784703E-14
   17.000000000000         0.38692321E-06     -0.41965143E-13      0.30770093E-06     -0.36841163E-14
   17.500000000000         0.47657678E-06     -0.41617202E-13      0.35861425E-06      0.13917652E-14
   18.000000000000         0.57965827E-06     -0.42573538E-13      0.41232599E-06     -0.38253450E-14
   18.500000000000         0.69663943E-06     -0.44551116E-13      0.46792463E-06     -0.79103132E-14
   19.000000000000         0.82771945E-06     -0.45602748E-13      0.52432009E-06     -0.42065254E-14
   19.500000000000         0.97279745E-06     -0.47238630E-13      0.58031197E-06     -0.65435289E-14
   20.000000000000         0.11314329E-05     -0.48627314E-13      0.63454167E-06     -0.55547340E-14
   20.500000000000         0.13027785E-05     -0.49107281E-13      0.68538256E-06     -0.19198710E-14
   21.000000000000         0.14855519E-05     -0.51550638E-13      0.73109353E-06     -0.97734274E-14
   21.500000000000         0.16780866E-05     -0.51668489E-13      0.77013868E-06     -0.47140415E-15
   22.000000000000         0.18784474E-05     -0.52563964E-13      0.80144349E-06     -0.35818992E-14
   22.500000000000         0.20845651E-05     -0.54407543E-13      0.82447072E-06     -0.73743152E-14
   23.000000000000         0.22943614E-05     -0.54857582E-13      0.83918513E-06     -0.18001565E-14
   23.500000000000         0.25058519E-05     -0.54979473E-13      0.84596223E-06     -0.48756251E-15
   24.000000000000         0.27172224E-05     -0.56196658E-13      0.84548182E-06     -0.48687426E-14
   24.500000000000         0.29268804E-05     -0.59192141E-13      0.83863217E-06     -0.11981930E-13
   25.000000000000         0.31334771E-05     -0.61788054E-13      0.82638653E-06     -0.10383655E-13
   25.500000000000         0.33359022E-05     -0.61699101E-13      0.80970066E-06      0.35581449E-15
   26.000000000000         0.35332646E-05     -0.61605804E-13      0.78944937E-06      0.37318882E-15
   26.500000000000         0.37248652E-05     -0.63630869E-13      0.76640242E-06     -0.81002624E-14
   27.000000000000         0.39101779E-05     -0.65234164E-13      0.74125074E-06     -0.64131776E-14
   27.500000000000         0.40888330E-05     -0.67640890E-13      0.71462061E-06     -0.96269071E-14
   28.000000000000         0.42606020E-05     -0.69379755E-13      0.68707597E-06     -0.69554591E-14
   28.500000000000         0.44253774E-05     -0.72001053E-13      0.65910146E-06     -0.10485192E-13
   29.000000000000         0.45831507E-05     -0.74270778E-13      0.63109318E-06     -0.90788993E-14
   29.500000000000         0.47339959E-05     -0.74618985E-13      0.60338072E-06     -0.13928289E-14
   30.000000000000         0.48780487E-05     -0.76889656E-13      0.57621123E-06     -0.90826847E-14
   30.500000000000         0.50154829E-05     -0.78073396E-13      0.54973679E-06     -0.47349572E-14
   31.000000000000         0.51464917E-05     -0.80228663E-13      0.52403531E-06     -0.86210678E-14
   31.500000000000         0.52712774E-05     -0.82518570E-13      0.49914270E-06     -0.91596315E-14
   32.000000000000         0.53900504E-05     -0.84563836E-13      0.47509230E-06     -0.81810605E-14
   32.500000000000         0.55030317E-05     -0.86001989E-13      0.45192505E-06     -0.57526155E-14
   33.000000000000         0.56104552E-05     -0.88929461E-13      0.42969378E-06     -0.11709888E-13
   33.500000000000         0.57125684E-05     -0.89747825E-13      0.40845290E-06     -0.32734539E-14
   34.000000000000         0.58096273E-05     -0.90559090E-13      0.38823558E-06     -0.32450610E-14
   34.500000000000         0.59018908E-05     -0.90881419E-13      0.36905431E-06     -0.12893164E-14
   35.000000000000         0.59896128E-05     -0.92459133E-13      0.35088766E-06     -0.63108558E-14
   35.500000000000         0.60730337E-05     -0.94574623E-13      0.33368394E-06     -0.84619590E-14
   36.000000000000         0.61523796E-05     -0.95727164E-13      0.31738342E-06     -0.46101663E-14
   36.500000000000         0.62278622E-05     -0.98966469E-13      0.30193045E-06     -0.12957219E-13
   37.000000000000         0.62996845E-05     -0.10103331E-12      0.28728917E-06     -0.82673589E-14
   37.500000000000         0.63680441E-05     -0.10216466E-12      0.27343817E-06     -0.45254155E-14
   38.000000000000         0.64331359E-05     -0.10447949E-12      0.26036755E-06     -0.92593151E-14
   38.500000000000         0.64951532E-05     -0.10506971E-12      0.24806916E-06     -0.23608681E-14
   39.000000000000         0.65542823E-05     -0.10714798E-12      0.23651640E-06     -0.83130744E-14
   39.500000000000         0.66106999E-05     -0.10941043E-12      0.22567046E-06     -0.90498267E-14
   40.000000000000         0.66645691E-05     -0.11154393E-12      0.21547648E-06     -0.85339768E-14
   40.500000000000         0.67160367E-05     -0.11294339E-12      0.20587039E-06     -0.55978335E-14
   41.000000000000         0.67652357E-05     -0.11380818E-12      0.19679630E-06     -0.34591866E-14
   41.500000000000         0.68122883E-05     -0.11505285E-12      0.18821007E-06     -0.49786599E-14
   42.000000000000         0.68573103E-05     -0.11563029E-12      0.18008813E-06     -0.23097634E-14
   42.500000000000         0.69004135E-05     -0.11739098E-12      0.17241300E-06     -0.70427723E-14
   43.000000000000         0.69417058E-05     -0.11862977E-12      0.16516893E-06     -0.49551366E-14
   43.500000000000         0.69812920E-05     -0.11838696E-12      0.15834485E-06      0.97123655E-15
   44.000000000000         0.70192709E-05     -0.12081049E-12      0.15191576E-06     -0.96941432E-14
   44.500000000000         0.70557323E-05     -0.12159750E-12      0.14584536E-06     -0.31480169E-14
   45.000000000000         0.70907556E-05     -0.12398199E-12      0.14009340E-06     -0.95379686E-14
   45.500000000000         0.71244133E-05     -0.12530637E-12      0.13463074E-06     -0.52975149E-14
   46.000000000000         0.71567744E-05     -0.12622298E-12      0.12944461E-06     -0.36664631E-14
   46.500000000000         0.71879036E-05     -0.12887555E-12      0.12451666E-06     -0.10610268E-13
   47.000000000000         0.72178597E-05     -0.13143440E-12      0.11982440E-06     -0.10235401E-13
   47.500000000000         0.72466962E-05     -0.13317582E-12      0.11534583E-06     -0.69656846E-14
   48.000000000000         0.72744635E-05     -0.13448989E-12      0.11106924E-06     -0.52562593E-14
   48.500000000000         0.73012119E-05     -0.13626995E-12      0.10699351E-06     -0.71202597E-14
   49.000000000000         0.73269883E-05     -0.13754401E-12      0.10310560E-06     -0.50962535E-14
   49.500000000000         0.73518364E-05     -0.14029510E-12      0.99392489E-07     -0.11004334E-13
   50.000000000000         0.73757998E-05     -0.14475158E-12      0.95853836E-07     -0.17825929E-13
   50.500000000000         0.73989239E-05     -0.14569222E-12      0.92496383E-07     -0.37625403E-14
   51.000000000000         0.74212522E-05     -0.14701462E-12      0.89313186E-07     -0.52896215E-14
   51.500000000000         0.74428189E-05     -0.14809770E-12      0.86266517E-07     -0.43323249E-14
   52.000000000000         0.74636501E-05     -0.14893425E-12      0.83325054E-07     -0.33461772E-14
   52.500000000000         0.74837708E-05     -0.14854171E-12      0.80482533E-07      0.15701353E-14
   53.000000000000         0.75032061E-05     -0.14994571E-12      0.77741549E-07     -0.56159837E-14
   53.500000000000         0.75219825E-05     -0.15148470E-12      0.75105361E-07     -0.61559806E-14
   54.000000000000         0.75401273E-05     -0.15307999E-12      0.72579339E-07     -0.63811434E-14
   54.500000000000         0.75576739E-05     -0.15407605E-12      0.70186175E-07     -0.39842426E-14
   55.000000000000         0.75746592E-05     -0.15593041E-12      0.67941513E-07     -0.74174233E-14
   55.500000000000         0.75911168E-05     -0.15723123E-12      0.65830193E-07     -0.52032779E-14
   56.000000000000         0.76070727E-05     -0.15947032E-12      0.63823820E-07     -0.89563820E-14
   56.500000000000         0.76225453E-05     -0.16198996E-12      0.61890336E-07     -0.10078552E-13
   57.000000000000         0.76375473E-05     -0.16426284E-12      0.60007724E-07     -0.90915169E-14
   57.500000000000         0.76520883E-05     -0.16364497E-12      0.58164198E-07      0.24714666E-14
   58.000000000000         0.76661776E-05     -0.16483088E-12      0.56357130E-07     -0.47436226E-14
   58.500000000000         0.76798287E-05     -0.16616779E-12      0.54604610E-07     -0.53476533E-14
   59.000000000000         0.76930624E-05     -0.16859594E-12      0.52934480E-07     -0.97125950E-14
   59.500000000000         0.77059060E-05     -0.16989626E-12      0.51374639E-07     -0.52013008E-14
   60.000000000000         0.77183886E-05     -0.17170400E-12      0.49930454E-07     -0.72309446E-14
   60.500000000000         0.77305326E-05     -0.17340938E-12      0.48575983E-07     -0.68215144E-14
   61.000000000000         0.77423526E-05     -0.17291398E-12      0.47279830E-07      0.19815920E-14
   61.500000000000         0.77538556E-05     -0.17488161E-12      0.46011921E-07     -0.78705052E-14
   62.000000000000         0.77650435E-05     -0.17574985E-12      0.44751528E-07     -0.34729618E-14
   62.500000000000         0.77759170E-05     -0.17723587E-12      0.43494121E-07     -0.59440957E-14
   63.000000000000         0.77864812E-05     -0.17840348E-12      0.42257029E-07     -0.46704150E-14
   63.500000000000         0.77967507E-05     -0.18167338E-12      0.41077707E-07     -0.13079613E-13
   64.000000000000         0.78067452E-05     -0.18399078E-12      0.39978261E-07     -0.92695869E-14
   64.500000000000         0.78164845E-05     -0.18637358E-12      0.38957183E-07     -0.95312030E-14
   65.000000000000         0.78259845E-05     -0.18984169E-12      0.37999748E-07     -0.13872464E-13
   65.500000000000         0.78352553E-05     -0.19048625E-12      0.37083449E-07     -0.25782388E-14
   66.000000000000         0.78443026E-05     -0.19354008E-12      0.36188971E-07     -0.12215320E-13
   66.500000000000         0.78531272E-05     -0.19513546E-12      0.35298614E-07     -0.63815027E-14
   67.000000000000         0.78617298E-05     -0.19570772E-12      0.34410095E-07     -0.22890628E-14
   67.500000000000         0.78701139E-05     -0.19776368E-12      0.33536744E-07     -0.82238274E-14
   68.000000000000         0.78782870E-05     -0.19861707E-12      0.32692293E-07     -0.34135759E-14
   68.500000000000         0.78862598E-05     -0.20096026E-12      0.31891256E-07     -0.93727532E-14
   69.000000000000         0.78940437E-05     -0.20164021E-12      0.31135662E-07     -0.27197992E-14
   69.500000000000         0.79016482E-05     -0.20245175E-12      0.30418017E-07     -0.32461303E-14
   70.000000000000         0.79090805E-05     -0.20268095E-12      0.29728849E-07     -0.91682574E-15
   70.500000000000         0.79163443E-05     -0.20352770E-12      0.29055334E-07     -0.33869769E-14
   71.000000000000         0.79234418E-05     -0.20406620E-12      0.28390079E-07     -0.21539995E-14
   71.500000000000         0.79303735E-05     -0.20425200E-12      0.27726685E-07     -0.74320293E-15
   72.000000000000         0.79371400E-05     -0.20680992E-12      0.27066055E-07     -0.10231699E-13
   72.500000000000         0.79437441E-05     -0.20811219E-12      0.26416548E-07     -0.52090826E-14
   73.000000000000         0.79501902E-05     -0.20998770E-12      0.25784160E-07     -0.75020283E-14
   73.500000000000         0.79564850E-05     -0.21049015E-12      0.25179287E-07     -0.20098213E-14
   74.000000000000         0.79626363E-05     -0.21126954E-12      0.24605079E-07     -0.31175335E-14
   74.500000000000         0.79686500E-05     -0.21136825E-12      0.24054782E-07     -0.39482967E-15
   75.000000000000         0.79745304E-05     -0.21283756E-12      0.23521657E-07     -0.58772753E-14
   75.500000000000         0.79802811E-05     -0.21502997E-12      0.23002878E-07     -0.87696162E-14
   76.000000000000         0.79859065E-05     -0.21480341E-12      0.22501472E-07      0.90622190E-15
   76.500000000000         0.79914092E-05     -0.21775499E-12      0.22011026E-07     -0.11806302E-13
   77.000000000000         0.79967904E-05     -0.21814307E-12      0.21524811E-07     -0.15523189E-14
   77.500000000000         0.80020523E-05     -0.21953288E-12      0.21047448E-07     -0.55592485E-14
   78.000000000000         0.80071979E-05     -0.22073504E-12      0.20582589E-07     -0.48086551E-14
   78.500000000000         0.80122311E-05     -0.22177192E-12      0.20132692E-07     -0.41474890E-14
   79.000000000000         0.80171556E-05     -0.22340357E-12      0.19697956E-07     -0.65266109E-14
   79.500000000000         0.80219766E-05     -0.22609568E-12      0.19284121E-07     -0.10768433E-13
   80.000000000000         0.80267017E-05     -0.22903013E-12      0.18900348E-07     -0.11737799E-13
   80.500000000000         0.80313379E-05     -0.22924993E-12      0.18544634E-07     -0.87920384E-15
   81.000000000000         0.80358900E-05     -0.23004804E-12      0.18208700E-07     -0.31924338E-14
   81.500000000000         0.80403590E-05     -0.23059327E-12      0.17875821E-07     -0.21809345E-14
   82.000000000000         0.80447423E-05     -0.23182711E-12      0.17533321E-07     -0.49353733E-14
   82.500000000000         0.80490376E-05     -0.23202583E-12      0.17181247E-07     -0.79486907E-15
   83.000000000000         0.80532424E-05     -0.23473336E-12      0.16819135E-07     -0.10830120E-13
   83.500000000000         0.80573560E-05     -0.23662573E-12      0.16454260E-07     -0.75694765E-14
   84.000000000000         0.80613813E-05     -0.23865010E-12      0.16101337E-07     -0.80974875E-14
   84.500000000000         0.80653252E-05     -0.23976886E-12      0.15775624E-07     -0.44750313E-14
   85.000000000000         0.80691960E-05     -0.24083241E-12      0.15483032E-07     -0.42542007E-14
   85.500000000000         0.80729988E-05     -0.24290206E-12      0.15211416E-07     -0.82786084E-14
   86.000000000000         0.80767357E-05     -0.24399055E-12      0.14947406E-07     -0.43539729E-14
   86.500000000000         0.80804050E-05     -0.24575487E-12      0.14677189E-07     -0.70572773E-14
   87.000000000000         0.80840022E-05     -0.24650298E-12      0.14388844E-07     -0.29924358E-14
   87.500000000000         0.80875221E-05     -0.24867844E-12      0.14079629E-07     -0.87018270E-14
   88.000000000000         0.80909599E-05     -0.24934734E-12      0.13751365E-07     -0.26756010E-14
   88.500000000000         0.80943147E-05     -0.25134495E-12      0.13419188E-07     -0.79904270E-14
   89.000000000000         0.80975904E-05     -0.25300954E-12      0.13102654E-07     -0.66583845E-14
   89.500000000000         0.81007943E-05     -0.25300485E-12      0.12815507E-07      0.18761066E-16
   90.000000000000         0.81039350E-05     -0.25430902E-12      0.12562754E-07     -0.52166889E-14
   90.500000000000         0.81070184E-05     -0.25568077E-12      0.12333873E-07     -0.54869982E-14
   91.000000000000         0.81100476E-05     -0.25779793E-12      0.12116596E-07     -0.84686183E-14
   91.500000000000         0.81130216E-05     -0.26059457E-12      0.11896003E-07     -0.11186545E-13
   92.000000000000         0.81159356E-05     -0.26284713E-12      0.11656089E-07     -0.90102557E-14
   92.500000000000         0.81187839E-05     -0.26519193E-12      0.11393290E-07     -0.93792143E-14
   93.000000000000         0.81215632E-05     -0.26694633E-12      0.11117043E-07     -0.70175949E-14
   93.500000000000         0.81242764E-05     -0.26822186E-12      0.10852622E-07     -0.51021239E-14
   94.000000000000         0.81269312E-05     -0.26955079E-12      0.10619513E-07     -0.53157271E-14
   94.500000000000         0.81295362E-05     -0.27235711E-12      0.10419934E-07     -0.11225274E-13
   95.000000000000         0.81320986E-05     -0.27330142E-12      0.10249480E-07     -0.37772399E-14
   95.500000000000         0.81346219E-05     -0.27393891E-12      0.10093293E-07     -0.25499621E-14
   96.000000000000         0.81371058E-05     -0.27576113E-12      0.99357376E-08     -0.72888649E-14
   96.500000000000         0.81395468E-05     -0.27641315E-12      0.97638963E-08     -0.26080751E-14
   97.000000000000         0.81419396E-05     -0.27830366E-12      0.95709892E-08     -0.75620547E-14
