 
 # Omega; pulse ft; proj flux t=    500.050000000000     
    0.000000000000         0.16626861E-13      0.00000000E+00      0.00000000E+00      0.00000000E+00      0.00000000E+00      0.00000000E+00      0.00000000E+00
    0.006280045285         0.55619039E-10      0.90895798E+01     -0.24204331E-05      0.49893869E-08     -0.13286068E-14      0.31333576E-10     -0.83437108E-17
    0.012560090569         0.22310564E-09      0.35684351E+01     -0.28488615E-05      0.39286041E-08     -0.31364025E-14      0.56005388E-10     -0.28040461E-16
    0.018840135854         0.50451792E-09      0.19024694E+00     -0.21783461E-05      0.31575695E-09     -0.36154480E-14      0.57988356E-10     -0.50745638E-16
    0.025120181138         0.90326950E-09      0.45160773E-01     -0.16394459E-05      0.10064649E-09     -0.36537123E-14      0.58620420E-10     -0.73691117E-16
    0.031400226423         0.14241628E-08     -0.39489347E-01     -0.13133947E-05     -0.11100677E-09     -0.36920264E-14      0.57923292E-10     -0.96877210E-16
    0.037680271707         0.20734119E-08     -0.41206924E-01     -0.10856438E-05     -0.14053498E-09     -0.37025555E-14      0.57040726E-10     -0.12012943E-15
    0.043960316992         0.28586714E-08     -0.41781542E-01     -0.92127875E-06     -0.16839553E-09     -0.37131043E-14      0.55983195E-10     -0.14344789E-15
    0.050240362276         0.37890711E-08     -0.37219106E-01     -0.79528527E-06     -0.17397570E-09     -0.37174540E-14      0.54890620E-10     -0.16679367E-15
    0.056520407561         0.48752551E-08     -0.33338464E-01     -0.69617483E-06     -0.17822980E-09     -0.37218002E-14      0.53771328E-10     -0.19016674E-15
    0.062800452845         0.61294263E-08     -0.23382731E-01     -0.61561517E-06     -0.14144740E-09     -0.37239946E-14      0.52883032E-10     -0.21355360E-15
    0.069080498130         0.75653939E-08     -0.15281402E-01     -0.54896780E-06     -0.10372465E-09     -0.37261954E-14      0.52231637E-10     -0.23695427E-15
    0.075360543414         0.91986243E-08     -0.36443520E-02     -0.49270758E-06     -0.27570323E-10     -0.37274410E-14      0.52058494E-10     -0.26036277E-15
    0.081640588699         0.11046294E-07      0.57962423E-02     -0.44463626E-06      0.48607098E-10     -0.37287050E-14      0.52363749E-10     -0.28377921E-15
    0.087920633984         0.13127346E-07      0.51476321E-02     -0.40301577E-06      0.47636110E-10     -0.37295018E-14      0.52662906E-10     -0.30720065E-15
    0.094200679268         0.15462541E-07      0.47052052E-02     -0.36666725E-06      0.47868307E-10     -0.37302816E-14      0.52963521E-10     -0.33062699E-15
    0.100480724553         0.18074516E-07      0.59637646E-02     -0.33463938E-06      0.66488584E-10     -0.37308143E-14      0.53381072E-10     -0.35405667E-15
    0.106760769837         0.20987836E-07      0.70587204E-02     -0.30624379E-06      0.86005182E-10     -0.37313495E-14      0.53921189E-10     -0.37748971E-15
    0.113040815122         0.24229044E-07      0.78247193E-02     -0.28090905E-06      0.10394711E-09     -0.37317230E-14      0.54573981E-10     -0.40092510E-15
    0.119320860406         0.27826708E-07      0.84990144E-02     -0.25820503E-06      0.12284478E-09     -0.37320962E-14      0.55345452E-10     -0.42436283E-15
    0.125600905691         0.31811467E-07      0.90632512E-02     -0.23776675E-06      0.14227140E-09     -0.37323703E-14      0.56238923E-10     -0.44780229E-15
    0.131880950975         0.36216061E-07      0.95690657E-02     -0.21930794E-06      0.16286635E-09     -0.37326405E-14      0.57261731E-10     -0.47124344E-15
    0.138160996260         0.41075368E-07      0.10060874E-01     -0.20258218E-06      0.18538491E-09     -0.37328446E-14      0.58425956E-10     -0.49468587E-15
    0.144441041544         0.46426423E-07      0.10500343E-01     -0.18739006E-06      0.20918030E-09     -0.37330504E-14      0.59739618E-10     -0.51812960E-15
    0.150721086829         0.52308432E-07      0.10811469E-01     -0.17355624E-06      0.23255468E-09     -0.37331943E-14      0.61200072E-10     -0.54157423E-15
    0.157001132113         0.58762774E-07      0.11100107E-01     -0.16093734E-06      0.25749533E-09     -0.37333525E-14      0.62817154E-10     -0.56501985E-15
    0.163281177398         0.65832996E-07      0.11325117E-01     -0.14940439E-06      0.28300419E-09     -0.37334775E-14      0.64594434E-10     -0.58846626E-15
    0.169561222683         0.73564796E-07      0.11540140E-01     -0.13884872E-06      0.31031104E-09     -0.37336023E-14      0.66543201E-10     -0.61191345E-15
    0.175841267967         0.82005985E-07      0.11709581E-01     -0.12917317E-06      0.33846112E-09     -0.37337027E-14      0.68668752E-10     -0.63536127E-15
    0.182121313252         0.91206450E-07      0.11880684E-01     -0.12029397E-06      0.36876433E-09     -0.37338023E-14      0.70984609E-10     -0.65880972E-15
    0.188401358536         0.10121809E-06      0.11996703E-01     -0.11213540E-06      0.39946495E-09     -0.37338727E-14      0.73493267E-10     -0.68225861E-15
    0.194681403821         0.11209474E-06      0.12126833E-01     -0.10463223E-06      0.43276372E-09     -0.37339537E-14      0.76211042E-10     -0.70570801E-15
    0.200961449105         0.12389210E-06      0.12204981E-01     -0.97724481E-07      0.46634855E-09     -0.37340223E-14      0.79139732E-10     -0.72915784E-15
    0.207241494390         0.13666760E-06      0.12308673E-01     -0.91359424E-07      0.50308660E-09     -0.37340908E-14      0.82299139E-10     -0.75260810E-15
    0.213521539674         0.15048030E-06      0.12366662E-01     -0.85489110E-07      0.54017330E-09     -0.37341471E-14      0.85691452E-10     -0.77605871E-15
    0.219801584959         0.16539075E-06      0.12459704E-01     -0.80070925E-07      0.58107314E-09     -0.37342030E-14      0.89340618E-10     -0.79950967E-15
    0.226081630243         0.18146085E-06      0.12517419E-01     -0.75065849E-07      0.62269468E-09     -0.37342445E-14      0.93251168E-10     -0.82296090E-15
    0.232361675528         0.19875365E-06      0.12620119E-01     -0.70439278E-07      0.66904718E-09     -0.37342912E-14      0.97452815E-10     -0.84641241E-15
    0.238641720812         0.21733318E-06      0.12697147E-01     -0.66159266E-07      0.71668528E-09     -0.37343327E-14      0.10195363E-09     -0.86986419E-15
    0.244921766097         0.23726424E-06      0.12826562E-01     -0.62197062E-07      0.77011905E-09     -0.37343709E-14      0.10679001E-09     -0.89331621E-15
    0.251201811381         0.25861222E-06      0.12940861E-01     -0.58526476E-07      0.82571868E-09     -0.37344042E-14      0.11197556E-09     -0.91676844E-15
    0.257481856666         0.28144279E-06      0.13115493E-01     -0.55123819E-07      0.88852735E-09     -0.37344399E-14      0.11755556E-09     -0.94022089E-15
    0.263761901951         0.30582173E-06      0.13287179E-01     -0.51967222E-07      0.95484247E-09     -0.37344656E-14      0.12355201E-09     -0.96367350E-15
    0.270041947235         0.33181462E-06      0.13526672E-01     -0.49037121E-07      0.10301440E-08     -0.37344954E-14      0.13002136E-09     -0.98712630E-15
    0.276321992520         0.35948656E-06      0.13778278E-01     -0.46315363E-07      0.11109764E-08     -0.37345214E-14      0.13699834E-09     -0.10105793E-14
    0.282602037804         0.38890192E-06      0.14106134E-01     -0.43785486E-07      0.12031381E-08     -0.37345446E-14      0.14455410E-09     -0.10340324E-14
    0.288882083089         0.42012400E-06      0.14461695E-01     -0.41432458E-07      0.13035232E-08     -0.37345670E-14      0.15274029E-09     -0.10574856E-14
    0.295162128373         0.45321473E-06      0.14903113E-01     -0.39242519E-07      0.14182835E-08     -0.37345900E-14      0.16164717E-09     -0.10809390E-14
    0.301442173658         0.48823435E-06      0.15412554E-01     -0.37203035E-07      0.15471828E-08     -0.37346110E-14      0.17136355E-09     -0.11043925E-14
    0.307722218942         0.52524111E-06      0.16018374E-01     -0.35302466E-07      0.16945756E-08     -0.37346299E-14      0.18200556E-09     -0.11278462E-14
    0.314002264227         0.56429086E-06      0.16772460E-01     -0.33530252E-07      0.18681411E-08     -0.37346485E-14      0.19373757E-09     -0.11513000E-14
    0.320282309511         0.60543679E-06      0.17629923E-01     -0.31876698E-07      0.20655179E-08     -0.37346668E-14      0.20670912E-09     -0.11747538E-14
    0.326562354796         0.64872905E-06      0.18684862E-01     -0.30332884E-07      0.23005401E-08     -0.37346818E-14      0.22115662E-09     -0.11982078E-14
    0.332842400080         0.69421440E-06      0.19861976E-01     -0.28890693E-07      0.25675571E-08     -0.37346990E-14      0.23728099E-09     -0.12216619E-14
    0.339122445365         0.74193587E-06      0.21536044E-01     -0.27542530E-07      0.29202393E-08     -0.37347053E-14      0.25562023E-09     -0.12451160E-14
    0.345402490650         0.79193243E-06      0.23336777E-01     -0.26281644E-07      0.33162419E-08     -0.37347185E-14      0.27644637E-09     -0.12685702E-14
    0.351682535934         0.84423861E-06      0.26110387E-01     -0.25101655E-07      0.38848155E-08     -0.37347319E-14      0.30084319E-09     -0.12920245E-14
    0.357962581219         0.89888421E-06      0.29018113E-01     -0.23996761E-07      0.45162499E-08     -0.37347490E-14      0.32920545E-09     -0.13154789E-14
    0.364242626503         0.95589395E-06      0.34246818E-01     -0.22961550E-07      0.55703418E-08     -0.37347610E-14      0.36418744E-09     -0.13389333E-14
    0.370522671788         0.10152872E-05      0.39624316E-01     -0.21991116E-07      0.67294343E-08     -0.37347717E-14      0.40644860E-09     -0.13623879E-14
    0.376802717072         0.10770774E-05      0.51722506E-01     -0.21080918E-07      0.91633682E-08     -0.37347807E-14      0.46399496E-09     -0.13858425E-14
    0.383082762357         0.11412724E-05      0.64211587E-01     -0.20226782E-07      0.11856398E-07     -0.37347899E-14      0.53845368E-09     -0.14092971E-14
    0.389362807641         0.12078734E-05      0.10594134E+00     -0.19424850E-07      0.20369251E-07     -0.37347995E-14      0.66637350E-09     -0.14327518E-14
    0.395642852926         0.12768751E-05      0.15257762E+00     -0.18671569E-07      0.30519586E-07     -0.37348108E-14      0.85803788E-09     -0.14562066E-14
    0.401922898210         0.13482657E-05      0.57800615E+00     -0.17963636E-07      0.12017327E-06     -0.37348199E-14      0.16127314E-08     -0.14796615E-14
    0.408202943495         0.14220259E-05      0.29614493E+01     -0.17298122E-07      0.63940844E-06     -0.37348487E-14      0.56282454E-08     -0.15031165E-14
    0.414482988779         0.14981296E-05      0.58607015E+01     -0.16672113E-07      0.13129100E-05     -0.37348745E-14      0.13873380E-07     -0.15265717E-14
    0.420763034064         0.15765431E-05      0.49142860E+01     -0.16082923E-07      0.11412252E-05     -0.37348737E-14      0.21040326E-07     -0.15500268E-14
    0.427043079349         0.16572251E-05      0.18011195E+01     -0.15528171E-07      0.43320655E-06     -0.37348468E-14      0.23760883E-07     -0.15734818E-14
    0.433323124633         0.17401266E-05      0.53819487E+00     -0.15005910E-07      0.13395262E-06     -0.37348571E-14      0.24602111E-07     -0.15969369E-14
    0.439603169918         0.18251908E-05      0.47773393E+00     -0.14513916E-07      0.12293519E-06     -0.37348635E-14      0.25374150E-07     -0.16203920E-14
    0.445883215202         0.19123531E-05      0.47537594E+00     -0.14050302E-07      0.12636501E-06     -0.37348684E-14      0.26167728E-07     -0.16438472E-14
    0.452163260487         0.20015409E-05      0.64065693E+00     -0.13613322E-07      0.17576702E-06     -0.37348741E-14      0.27271553E-07     -0.16673023E-14
    0.458443305771         0.20926735E-05      0.88356510E+00     -0.13201372E-07      0.24997529E-06     -0.37348880E-14      0.28841409E-07     -0.16907576E-14
    0.464723351056         0.21856626E-05      0.15829027E+01     -0.12812906E-07      0.46140842E-06     -0.37348997E-14      0.31739075E-07     -0.17142129E-14
    0.471003396340         0.22804117E-05      0.28168294E+01     -0.12446475E-07      0.84526411E-06     -0.37348939E-14      0.37047372E-07     -0.17376682E-14
    0.477283441625         0.23768165E-05      0.10720915E+02     -0.12100916E-07      0.33089776E-05     -0.37349105E-14      0.57827901E-07     -0.17611237E-14
    0.483563486909         0.24747652E-05      0.41573790E+02     -0.11776148E-07      0.13186902E-04     -0.37353080E-14      0.14064225E-06     -0.17845816E-14
    0.489843532194         0.25741382E-05      0.77250748E+02     -0.11469542E-07      0.25160534E-04     -0.37356245E-14      0.29865154E-06     -0.18080414E-14
    0.496123577478         0.26748086E-05      0.73217438E+02     -0.11179150E-07      0.24465836E-04     -0.37355478E-14      0.45229809E-06     -0.18315009E-14
    0.502403622763         0.27766424E-05      0.45868324E+02     -0.10904695E-07      0.15711684E-04     -0.37352819E-14      0.55096818E-06     -0.18549586E-14
    0.508683668048         0.28794986E-05      0.34636997E+02     -0.10647289E-07      0.12152118E-04     -0.37355177E-14      0.62728403E-06     -0.18784178E-14
    0.514963713332         0.29832293E-05      0.36332597E+02     -0.10402958E-07      0.13045151E-04     -0.37351626E-14      0.70920817E-06     -0.19018748E-14
    0.521243758617         0.30876806E-05      0.42020584E+02     -0.10173636E-07      0.15427525E-04     -0.37351699E-14      0.80609373E-06     -0.19253318E-14
    0.527523803901         0.31926924E-05      0.47828083E+02     -0.99575573E-08      0.17940753E-04     -0.37351711E-14      0.91876247E-06     -0.19487889E-14
    0.533803849186         0.32980988E-05      0.50162773E+02     -0.97539989E-08      0.19209062E-04     -0.37351439E-14      0.10393963E-05     -0.19722458E-14
    0.540083894470         0.34037289E-05      0.49972211E+02     -0.95623727E-08      0.19519333E-04     -0.37350986E-14      0.11619785E-05     -0.19957024E-14
    0.546363939755         0.35094067E-05      0.48561743E+02     -0.93848978E-08      0.19332526E-04     -0.37361465E-14      0.12833877E-05     -0.20191655E-14
    0.552643985039         0.36149520E-05      0.47558455E+02     -0.92154936E-08      0.19280909E-04     -0.37360989E-14      0.14044727E-05     -0.20426284E-14
    0.558924030324         0.37201804E-05      0.47117442E+02     -0.90564884E-08      0.19437285E-04     -0.37360591E-14      0.15265397E-05     -0.20660910E-14
    0.565204075608         0.38249044E-05      0.47145285E+02     -0.89074299E-08      0.19774078E-04     -0.37360303E-14      0.16507218E-05     -0.20895534E-14
    0.571484120893         0.39289333E-05      0.47322485E+02     -0.87678731E-08      0.20164186E-04     -0.37360047E-14      0.17773538E-05     -0.21130157E-14
    0.577764166177         0.40320740E-05      0.47414374E+02     -0.86373985E-08      0.20508344E-04     -0.37359712E-14      0.19061471E-05     -0.21364778E-14
    0.584044211462         0.41341318E-05      0.47342055E+02     -0.85129755E-08      0.20769611E-04     -0.37347596E-14      0.20365812E-05     -0.21599323E-14
    0.590324256747         0.42349105E-05      0.47095633E+02     -0.83996338E-08      0.20940012E-04     -0.37347079E-14      0.21680855E-05     -0.21833864E-14
    0.596604302031         0.43342134E-05      0.46796460E+02     -0.82943761E-08      0.21070730E-04     -0.37346535E-14      0.23004106E-05     -0.22068402E-14
    0.602884347316         0.44318436E-05      0.46453744E+02     -0.81995707E-08      0.21164782E-04     -0.37358051E-14      0.24333264E-05     -0.22303012E-14
    0.609164392600         0.45276046E-05      0.46124344E+02     -0.81096483E-08      0.21247452E-04     -0.37357575E-14      0.25667614E-05     -0.22537619E-14
    0.615444437885         0.46213012E-05      0.45771621E+02     -0.80270249E-08      0.21301706E-04     -0.37357061E-14      0.27005370E-05     -0.22772223E-14
    0.621724483169         0.47127398E-05      0.45411720E+02     -0.79514916E-08      0.21334679E-04     -0.37356551E-14      0.28345198E-05     -0.23006824E-14
    0.628004528454         0.48017293E-05      0.45011370E+02     -0.78828478E-08      0.21330440E-04     -0.37356030E-14      0.29684759E-05     -0.23241422E-14
    0.634284573738         0.48880813E-05      0.44587734E+02     -0.78209101E-08      0.21296702E-04     -0.37355473E-14      0.31022202E-05     -0.23476016E-14
    0.640564619023         0.49716111E-05      0.44119654E+02     -0.77655328E-08      0.21223107E-04     -0.37354948E-14      0.32355022E-05     -0.23710607E-14
    0.646844664307         0.50521382E-05      0.43626607E+02     -0.77165625E-08      0.21118805E-04     -0.37354401E-14      0.33681293E-05     -0.23945194E-14
    0.653124709592         0.51294867E-05      0.43097516E+02     -0.76763260E-08      0.20978416E-04     -0.37365765E-14      0.34998747E-05     -0.24179853E-14
    0.659404754876         0.52034861E-05      0.42550176E+02     -0.76397855E-08      0.20810684E-04     -0.37365101E-14      0.36305667E-05     -0.24414507E-14
    0.665684800161         0.52739718E-05      0.41982187E+02     -0.76093380E-08      0.20614694E-04     -0.37364460E-14      0.37600279E-05     -0.24649158E-14
    0.671964845445         0.53407857E-05      0.41406573E+02     -0.75825415E-08      0.20397200E-04     -0.37352190E-14      0.38881233E-05     -0.24883731E-14
    0.678244890730         0.54037765E-05      0.40825440E+02     -0.75640864E-08      0.20159715E-04     -0.37351668E-14      0.40147272E-05     -0.25118301E-14
    0.684524936015         0.54628005E-05      0.40245027E+02     -0.75515371E-08      0.19905861E-04     -0.37351161E-14      0.41397369E-05     -0.25352868E-14
    0.690804981299         0.55177220E-05      0.39667888E+02     -0.75448574E-08      0.19637496E-04     -0.37350642E-14      0.42630613E-05     -0.25587432E-14
    0.697085026584         0.55684138E-05      0.39094376E+02     -0.75440457E-08      0.19355425E-04     -0.37350183E-14      0.43846142E-05     -0.25821993E-14
    0.703365071868         0.56147573E-05      0.38526469E+02     -0.75512759E-08      0.19061280E-04     -0.37360545E-14      0.45043199E-05     -0.26056619E-14
    0.709645117153         0.56566434E-05      0.37961402E+02     -0.75621512E-08      0.18754371E-04     -0.37359892E-14      0.46220982E-05     -0.26291241E-14
    0.715925162437         0.56939728E-05      0.37401255E+02     -0.75789271E-08      0.18436421E-04     -0.37359251E-14      0.47378798E-05     -0.26525858E-14
    0.722205207722         0.57266558E-05      0.36842375E+02     -0.76016509E-08      0.18106344E-04     -0.37358640E-14      0.48515884E-05     -0.26760472E-14
    0.728485253006         0.57546134E-05      0.36287384E+02     -0.76303738E-08      0.17766166E-04     -0.37358023E-14      0.49631608E-05     -0.26995082E-14
    0.734765298291         0.57777770E-05      0.35732744E+02     -0.76651935E-08      0.17414908E-04     -0.37357511E-14      0.50725272E-05     -0.27229689E-14
    0.741045343575         0.57960889E-05      0.35181472E+02     -0.77061631E-08      0.17054812E-04     -0.37356926E-14      0.51796322E-05     -0.27464292E-14
    0.747325388860         0.58095025E-05      0.34630562E+02     -0.77534074E-08      0.16685200E-04     -0.37356354E-14      0.52844160E-05     -0.27698892E-14
    0.753605434144         0.58179822E-05      0.34082931E+02     -0.78089933E-08      0.16308273E-04     -0.37365095E-14      0.53868327E-05     -0.27933546E-14
    0.759885479429         0.58215039E-05      0.33536512E+02     -0.78672406E-08      0.15923833E-04     -0.37355294E-14      0.54868351E-05     -0.28168139E-14
    0.766165524714         0.58200549E-05      0.32993202E+02     -0.79341226E-08      0.15533582E-04     -0.37354769E-14      0.55843867E-05     -0.28402729E-14
