 
 # eight columns.
 # Omega (column 1); |pulse ft|^2 (2); cross section (Mb) (3); flux (5); flux in
 tegral domega (7)
 
  0.0000      0.166269E-13      0.000000E+00      0.000000E+00      0.000000E+00      0.000000E+00      0.000000E+00      0.000000E+00
  0.0063      0.556190E-10      0.114346E+02      0.297236E-05      0.627658E-08      0.163157E-14      0.394172E-10      0.102463E-16
  0.0126      0.223106E-09      0.453580E+01      0.349832E-05      0.499361E-08      0.385141E-14      0.707773E-10      0.344334E-16
  0.0188      0.504518E-09      0.346515E+00      0.267496E-05      0.575119E-09      0.443969E-14      0.743891E-10      0.623148E-16
  0.0251      0.903269E-09      0.135764E+00      0.201321E-05      0.302567E-09      0.448669E-14      0.762892E-10      0.904914E-16
  0.0314      0.142416E-08      0.121977E-01      0.161282E-05      0.342884E-10      0.453372E-14      0.765046E-10      0.118963E-15
  0.0377      0.207341E-08     -0.713044E-02      0.133315E-05     -0.243181E-10      0.454667E-14      0.763518E-10      0.147517E-15
  0.0440      0.285867E-08     -0.201494E-01      0.113131E-05     -0.812099E-10      0.455963E-14      0.758418E-10      0.176151E-15
  0.0502      0.378907E-08     -0.233133E-01      0.976594E-06     -0.108975E-09      0.456496E-14      0.751575E-10      0.204820E-15
  0.0565      0.487526E-08     -0.253026E-01      0.854884E-06     -0.135269E-09      0.457027E-14      0.743080E-10      0.233521E-15
  0.0628      0.612943E-08     -0.189957E-01      0.755960E-06     -0.114909E-09      0.457297E-14      0.735863E-10      0.262240E-15
  0.0691      0.756539E-08     -0.137494E-01      0.674119E-06     -0.933258E-10      0.457567E-14      0.730003E-10      0.290975E-15
  0.0754      0.919862E-08     -0.378604E-02      0.605038E-06     -0.286422E-10      0.457724E-14      0.728204E-10      0.319720E-15
  0.0816      0.110463E-07      0.430577E-02      0.546006E-06      0.361080E-10      0.457879E-14      0.730471E-10      0.348475E-15
  0.0879      0.131273E-07      0.247577E-02      0.494897E-06      0.229107E-10      0.457976E-14      0.731910E-10      0.377236E-15
  0.0942      0.154625E-07      0.109295E-02      0.450263E-06      0.111191E-10      0.458075E-14      0.732609E-10      0.406004E-15
  0.1005      0.180745E-07      0.185973E-02      0.410933E-06      0.207337E-10      0.458140E-14      0.733911E-10      0.434775E-15
  0.1068      0.209878E-07      0.256972E-02      0.376063E-06      0.313101E-10      0.458205E-14      0.735877E-10      0.463551E-15
  0.1130      0.242290E-07      0.320164E-02      0.344952E-06      0.425321E-10      0.458249E-14      0.738548E-10      0.492329E-15
  0.1193      0.278267E-07      0.379805E-02      0.317071E-06      0.548970E-10      0.458295E-14      0.741995E-10      0.521110E-15
  0.1256      0.318115E-07      0.443887E-02      0.291973E-06      0.696797E-10      0.458328E-14      0.746371E-10      0.549893E-15
  0.1319      0.362161E-07      0.503784E-02      0.269306E-06      0.857444E-10      0.458361E-14      0.751756E-10      0.578678E-15
  0.1382      0.410754E-07      0.570940E-02      0.248767E-06      0.105203E-09      0.458386E-14      0.758363E-10      0.607465E-15
  0.1444      0.464264E-07      0.633116E-02      0.230111E-06      0.126125E-09      0.458411E-14      0.766284E-10      0.636254E-15
  0.1507      0.523084E-07      0.687990E-02      0.213125E-06      0.147987E-09      0.458431E-14      0.775577E-10      0.665043E-15
  0.1570      0.587628E-07      0.739340E-02      0.197629E-06      0.171509E-09      0.458450E-14      0.786348E-10      0.693834E-15
  0.1633      0.658330E-07      0.787168E-02      0.183466E-06      0.196706E-09      0.458465E-14      0.798701E-10      0.722626E-15
  0.1696      0.735648E-07      0.832549E-02      0.170504E-06      0.223870E-09      0.458480E-14      0.812761E-10      0.751419E-15
  0.1758      0.820060E-07      0.874260E-02      0.158622E-06      0.252702E-09      0.458492E-14      0.828630E-10      0.780212E-15
  0.1821      0.912065E-07      0.914550E-02      0.147719E-06      0.283867E-09      0.458504E-14      0.846457E-10      0.809007E-15
  0.1884      0.101218E-06      0.949090E-02      0.137701E-06      0.316027E-09      0.458514E-14      0.866304E-10      0.837801E-15
  0.1947      0.112095E-06      0.983523E-02      0.128487E-06      0.350984E-09      0.458524E-14      0.888346E-10      0.866597E-15
  0.2010      0.123892E-06      0.101174E-01      0.120004E-06      0.386584E-09      0.458532E-14      0.912624E-10      0.895393E-15
  0.2072      0.136668E-06      0.104116E-01      0.112188E-06      0.425548E-09      0.458540E-14      0.939348E-10      0.924189E-15
  0.2135      0.150480E-06      0.106480E-01      0.104979E-06      0.465102E-09      0.458546E-14      0.968557E-10      0.952986E-15
  0.2198      0.165391E-06      0.109093E-01      0.983256E-07      0.508768E-09      0.458553E-14      0.100051E-09      0.981784E-15
  0.2261      0.181461E-06      0.111204E-01      0.921796E-07      0.553196E-09      0.458559E-14      0.103525E-09      0.101058E-14
  0.2324      0.198754E-06      0.113675E-01      0.864983E-07      0.602638E-09      0.458565E-14      0.107309E-09      0.103938E-14
  0.2386      0.217333E-06      0.115738E-01      0.812424E-07      0.653276E-09      0.458569E-14      0.111412E-09      0.106818E-14
  0.2449      0.237264E-06      0.118274E-01      0.763769E-07      0.710127E-09      0.458574E-14      0.115872E-09      0.109698E-14
  0.2512      0.258612E-06      0.120500E-01      0.718695E-07      0.768877E-09      0.458578E-14      0.120700E-09      0.112578E-14
  0.2575      0.281443E-06      0.123293E-01      0.676911E-07      0.835264E-09      0.458583E-14      0.125946E-09      0.115457E-14
  0.2638      0.305822E-06      0.125906E-01      0.638149E-07      0.904787E-09      0.458586E-14      0.131628E-09      0.118337E-14
  0.2700      0.331815E-06      0.129194E-01      0.602168E-07      0.983900E-09      0.458590E-14      0.137807E-09      0.121217E-14
  0.2763      0.359487E-06      0.132450E-01      0.568745E-07      0.106798E-08      0.458593E-14      0.144514E-09      0.124097E-14
  0.2826      0.388902E-06      0.136483E-01      0.537679E-07      0.116409E-08      0.458596E-14      0.151824E-09      0.126977E-14
  0.2889      0.420124E-06      0.140634E-01      0.508784E-07      0.126762E-08      0.458599E-14      0.159785E-09      0.129857E-14
  0.2952      0.453215E-06      0.145683E-01      0.481892E-07      0.138642E-08      0.458602E-14      0.168492E-09      0.132737E-14
  0.3014      0.488234E-06      0.151255E-01      0.456847E-07      0.151836E-08      0.458604E-14      0.178027E-09      0.135617E-14
  0.3077      0.525241E-06      0.157856E-01      0.433508E-07      0.166995E-08      0.458606E-14      0.188515E-09      0.138498E-14
  0.3140      0.564291E-06      0.165797E-01      0.411746E-07      0.184667E-08      0.458608E-14      0.200112E-09      0.141378E-14
  0.3203      0.605437E-06      0.174855E-01      0.391440E-07      0.204859E-08      0.458610E-14      0.212977E-09      0.144258E-14
  0.3266      0.648729E-06      0.185659E-01      0.372482E-07      0.228589E-08      0.458612E-14      0.227332E-09      0.147138E-14
  0.3328      0.694214E-06      0.197804E-01      0.354772E-07      0.255702E-08      0.458614E-14      0.243391E-09      0.150018E-14
  0.3391      0.741936E-06      0.214756E-01      0.338218E-07      0.291204E-08      0.458616E-14      0.261678E-09      0.152898E-14
  0.3454      0.791932E-06      0.233112E-01      0.322735E-07      0.331261E-08      0.458618E-14      0.282482E-09      0.155778E-14
  0.3517      0.844239E-06      0.260985E-01      0.308245E-07      0.388305E-08      0.458619E-14      0.306867E-09      0.158658E-14
  0.3580      0.898884E-06      0.290360E-01      0.294676E-07      0.451904E-08      0.458620E-14      0.335247E-09      0.161539E-14
  0.3642      0.955894E-06      0.342789E-01      0.281964E-07      0.557556E-08      0.458622E-14      0.370262E-09      0.164419E-14
  0.3705      0.101529E-05      0.396856E-01      0.270047E-07      0.673984E-08      0.458623E-14      0.412588E-09      0.167299E-14
  0.3768      0.107708E-05      0.518300E-01      0.258870E-07      0.918242E-08      0.458624E-14      0.470254E-09      0.170179E-14
  0.3831      0.114127E-05      0.643709E-01      0.248381E-07      0.118858E-07      0.458626E-14      0.544898E-09      0.173059E-14
  0.3894      0.120787E-05      0.106461E+00      0.238534E-07      0.204692E-07      0.458627E-14      0.673445E-09      0.175939E-14
  0.3956      0.127688E-05      0.153458E+00      0.229283E-07      0.306958E-07      0.458628E-14      0.866216E-09      0.178820E-14
  0.4019      0.134827E-05      0.586278E+00      0.220590E-07      0.121893E-06      0.458628E-14      0.163171E-08      0.181700E-14
  0.4082      0.142203E-05      0.302177E+01      0.212415E-07      0.652432E-06      0.458628E-14      0.572902E-08      0.184580E-14
  0.4145      0.149813E-05      0.600498E+01      0.204726E-07      0.134523E-05      0.458626E-14      0.141771E-07      0.187460E-14
  0.4208      0.157654E-05      0.505679E+01      0.197492E-07      0.117432E-05      0.458628E-14      0.215519E-07      0.190340E-14
  0.4270      0.165723E-05      0.186602E+01      0.190683E-07      0.448816E-06      0.458633E-14      0.243705E-07      0.193221E-14
  0.4333      0.174013E-05      0.565745E+00      0.184270E-07      0.140810E-06      0.458633E-14      0.252548E-07      0.196101E-14
  0.4396      0.182519E-05      0.505131E+00      0.178228E-07      0.129985E-06      0.458634E-14      0.260711E-07      0.198981E-14
  0.4459      0.191235E-05      0.505561E+00      0.172535E-07      0.134389E-06      0.458635E-14      0.269150E-07      0.201861E-14
  0.4522      0.200154E-05      0.683829E+00      0.167169E-07      0.187612E-06      0.458635E-14      0.280933E-07      0.204742E-14
  0.4584      0.209267E-05      0.945272E+00      0.162110E-07      0.267433E-06      0.458635E-14      0.297727E-07      0.207622E-14
  0.4647      0.218566E-05      0.169643E+01      0.157339E-07      0.494502E-06      0.458635E-14      0.328782E-07      0.210502E-14
  0.4710      0.228041E-05      0.302205E+01      0.152840E-07      0.906846E-06      0.458637E-14      0.385733E-07      0.213382E-14
  0.4773      0.237682E-05      0.115148E+02      0.148596E-07      0.355401E-05      0.458636E-14      0.608926E-07      0.216263E-14
  0.4836      0.247477E-05      0.446719E+02      0.144579E-07      0.141696E-04      0.458595E-14      0.149878E-06      0.219143E-14
  0.4898      0.257414E-05      0.830316E+02      0.140793E-07      0.270434E-04      0.458562E-14      0.319712E-06      0.222022E-14
  0.4961      0.267481E-05      0.787235E+02      0.137234E-07      0.263057E-04      0.458571E-14      0.484913E-06      0.224902E-14
  0.5024      0.277664E-05      0.493402E+02      0.133883E-07      0.169009E-04      0.458601E-14      0.591052E-06      0.227782E-14
  0.5087      0.287950E-05      0.372697E+02      0.130707E-07      0.130758E-04      0.458576E-14      0.673168E-06      0.230662E-14
  0.5150      0.298323E-05      0.390965E+02      0.127731E-07      0.140375E-04      0.458615E-14      0.761324E-06      0.233542E-14
  0.5212      0.308768E-05      0.452193E+02      0.124915E-07      0.166019E-04      0.458616E-14      0.865585E-06      0.236422E-14
  0.5275      0.319269E-05      0.514705E+02      0.122262E-07      0.193071E-04      0.458616E-14      0.986834E-06      0.239303E-14
  0.5338      0.329810E-05      0.539846E+02      0.119765E-07      0.206726E-04      0.458620E-14      0.111666E-05      0.242183E-14
  0.5401      0.340373E-05      0.537810E+02      0.117415E-07      0.210070E-04      0.458626E-14      0.124858E-05      0.245063E-14
  0.5464      0.350941E-05      0.522642E+02      0.115175E-07      0.208065E-04      0.458514E-14      0.137925E-05      0.247942E-14
  0.5526      0.361495E-05      0.511853E+02      0.113099E-07      0.207513E-04      0.458519E-14      0.150957E-05      0.250822E-14
  0.5589      0.372018E-05      0.507113E+02      0.111150E-07      0.209199E-04      0.458524E-14      0.164095E-05      0.253702E-14
  0.5652      0.382490E-05      0.507419E+02      0.109322E-07      0.212826E-04      0.458528E-14      0.177460E-05      0.256581E-14
  0.5715      0.392893E-05      0.509331E+02      0.107611E-07      0.217027E-04      0.458532E-14      0.191090E-05      0.259461E-14
  0.5778      0.403207E-05      0.510324E+02      0.106011E-07      0.220733E-04      0.458536E-14      0.204952E-05      0.262340E-14
  0.5840      0.413413E-05      0.509549E+02      0.104548E-07      0.223546E-04      0.458667E-14      0.218990E-05      0.265221E-14
  0.5903      0.423491E-05      0.506901E+02      0.103159E-07      0.225382E-04      0.458673E-14      0.233145E-05      0.268101E-14
  0.5966      0.433421E-05      0.503684E+02      0.101869E-07      0.226791E-04      0.458680E-14      0.247387E-05      0.270982E-14
  0.6029      0.443184E-05      0.499999E+02      0.100647E-07      0.227804E-04      0.458556E-14      0.261693E-05      0.273862E-14
  0.6092      0.452760E-05      0.496456E+02      0.995454E-08      0.228695E-04      0.458562E-14      0.276056E-05      0.276741E-14
  0.6154      0.462130E-05      0.492662E+02      0.985338E-08      0.229281E-04      0.458568E-14      0.290454E-05      0.279621E-14
  0.6217      0.471274E-05      0.488791E+02      0.976093E-08      0.229637E-04      0.458574E-14      0.304876E-05      0.282501E-14
  0.6280      0.480173E-05      0.484483E+02      0.967693E-08      0.229592E-04      0.458580E-14      0.319294E-05      0.285381E-14
  0.6343      0.488808E-05      0.479925E+02      0.960117E-08      0.229230E-04      0.458586E-14      0.333690E-05      0.288261E-14
  0.6406      0.497161E-05      0.474889E+02      0.953345E-08      0.228438E-04      0.458593E-14      0.348036E-05      0.291141E-14
  0.6468      0.505214E-05      0.469583E+02      0.947360E-08      0.227316E-04      0.458599E-14      0.362311E-05      0.294021E-14
  0.6531      0.512949E-05      0.463889E+02      0.941883E-08      0.225806E-04      0.458477E-14      0.376492E-05      0.296900E-14
  0.6594      0.520349E-05      0.457999E+02      0.937432E-08      0.224001E-04      0.458485E-14      0.390560E-05      0.299779E-14
  0.6657      0.527397E-05      0.451886E+02      0.933727E-08      0.221892E-04      0.458492E-14      0.404494E-05      0.302659E-14
  0.6720      0.534079E-05      0.445692E+02      0.931013E-08      0.219551E-04      0.458624E-14      0.418282E-05      0.305539E-14
  0.6782      0.540378E-05      0.439437E+02      0.928772E-08      0.216995E-04      0.458630E-14      0.431910E-05      0.308419E-14
  0.6845      0.546280E-05      0.433191E+02      0.927256E-08      0.214263E-04      0.458636E-14      0.445366E-05      0.311299E-14
  0.6908      0.551772E-05      0.426979E+02      0.926460E-08      0.211375E-04      0.458642E-14      0.458640E-05      0.314180E-14
  0.6971      0.556841E-05      0.420807E+02      0.926383E-08      0.208339E-04      0.458647E-14      0.471724E-05      0.317060E-14
  0.7034      0.561476E-05      0.414695E+02      0.926789E-08      0.205173E-04      0.458536E-14      0.484609E-05      0.319940E-14
  0.7096      0.565664E-05      0.408613E+02      0.928155E-08      0.201870E-04      0.458544E-14      0.497286E-05      0.322819E-14
  0.7159      0.569397E-05      0.402584E+02      0.930244E-08      0.198448E-04      0.458551E-14      0.509749E-05      0.325699E-14
  0.7222      0.572666E-05      0.396569E+02      0.933063E-08      0.194896E-04      0.458558E-14      0.521989E-05      0.328579E-14
  0.7285      0.575461E-05      0.390596E+02      0.936618E-08      0.191234E-04      0.458565E-14      0.533998E-05      0.331459E-14
  0.7348      0.577778E-05      0.384626E+02      0.940917E-08      0.187454E-04      0.458570E-14      0.545770E-05      0.334338E-14
  0.7410      0.579609E-05      0.378693E+02      0.945974E-08      0.183578E-04      0.458577E-14      0.557299E-05      0.337218E-14
  0.7473      0.580950E-05      0.372764E+02      0.951802E-08      0.179600E-04      0.458583E-14      0.568578E-05      0.340098E-14
  0.7536      0.581798E-05      0.366870E+02      0.958205E-08      0.175543E-04      0.458490E-14      0.579602E-05      0.342978E-14
  0.7599      0.582150E-05      0.360989E+02      0.965828E-08      0.171405E-04      0.458595E-14      0.590367E-05      0.345858E-14
  0.7662      0.582005E-05      0.355142E+02      0.974065E-08      0.167205E-04      0.458601E-14      0.600867E-05      0.348738E-14
  0.7724      0.581363E-05      0.349323E+02      0.983147E-08      0.162948E-04      0.458607E-14      0.611100E-05      0.351618E-14
  0.7787      0.580225E-05      0.343522E+02      0.993096E-08      0.158639E-04      0.458613E-14      0.621063E-05      0.354498E-14
  0.7850      0.578593E-05      0.337768E+02      0.100394E-07      0.154298E-04      0.458618E-14      0.630753E-05      0.357378E-14
  0.7913      0.576470E-05      0.331917E+02      0.101571E-07      0.149870E-04      0.458623E-14      0.640165E-05      0.360258E-14
  0.7976      0.573861E-05      0.326123E+02      0.102844E-07      0.145433E-04      0.458627E-14      0.649298E-05      0.363138E-14
  0.8038      0.570771E-05      0.318913E+02      0.104216E-07      0.140347E-04      0.458632E-14      0.658112E-05      0.366019E-14
  0.8101      0.567207E-05      0.309910E+02      0.105673E-07      0.134483E-04      0.458560E-14      0.666558E-05      0.368898E-14
  0.8164      0.563176E-05      0.307634E+02      0.107256E-07      0.131527E-04      0.458565E-14      0.674818E-05      0.371778E-14
  0.8227      0.558688E-05      0.309636E+02      0.108950E-07      0.130326E-04      0.458570E-14      0.683002E-05      0.374658E-14
  0.8290      0.553753E-05      0.308498E+02      0.110761E-07      0.127724E-04      0.458574E-14      0.691023E-05      0.377538E-14
  0.8352      0.548380E-05      0.310276E+02      0.112695E-07      0.126258E-04      0.458578E-14      0.698952E-05      0.380418E-14
  0.8415      0.542581E-05      0.309297E+02      0.114757E-07      0.123599E-04      0.458583E-14      0.706714E-05      0.383298E-14
  0.8478      0.536370E-05      0.298182E+02      0.116954E-07      0.116921E-04      0.458590E-14      0.714057E-05      0.386178E-14
  0.8541      0.529760E-05      0.286874E+02      0.119308E-07      0.110284E-04      0.458659E-14      0.720983E-05      0.389058E-14
  0.8604      0.522765E-05      0.281548E+02      0.121778E-07      0.106027E-04      0.458601E-14      0.727641E-05      0.391938E-14
  0.8666      0.515399E-05      0.278658E+02      0.124421E-07      0.102711E-04      0.458606E-14      0.734092E-05      0.394818E-14
  0.8729      0.507680E-05      0.275712E+02      0.127230E-07      0.993828E-05      0.458610E-14      0.740333E-05      0.397698E-14
  0.8792      0.499623E-05      0.271646E+02      0.130213E-07      0.956748E-05      0.458614E-14      0.746341E-05      0.400578E-14
  0.8855      0.491245E-05      0.266328E+02      0.133381E-07      0.915748E-05      0.458618E-14      0.752092E-05      0.403459E-14
  0.8918      0.482564E-05      0.260816E+02      0.136744E-07      0.874745E-05      0.458622E-14      0.757586E-05      0.406339E-14
  0.8980      0.473598E-05      0.255637E+02      0.140315E-07      0.835559E-05      0.458626E-14      0.762833E-05      0.409219E-14
  0.9043      0.464366E-05      0.250889E+02      0.144106E-07      0.798471E-05      0.458629E-14      0.767848E-05      0.412099E-14
  0.9106      0.454887E-05      0.246381E+02      0.148118E-07      0.762823E-05      0.458589E-14      0.772638E-05      0.414979E-14
  0.9169      0.445180E-05      0.241970E+02      0.152393E-07      0.728155E-05      0.458594E-14      0.777211E-05      0.417859E-14
