 
 # Omega; pulse ft; proj flux t=    500.050000000000     
    0.000000000000         0.16626861E-13      0.00000000E+00      0.00000000E+00      0.00000000E+00      0.00000000E+00      0.00000000E+00      0.00000000E+00
    0.006280045285         0.55619039E-10     -0.95315326E+02     -0.14654514E-07     -0.52319805E-07     -0.80440508E-17     -0.32857074E-09     -0.50517003E-19
    0.012560090569         0.22310564E-09     -0.37448915E+02     -0.17285467E-07     -0.41228706E-07     -0.19030122E-16     -0.58748888E-09     -0.17002703E-18
    0.018840135854         0.50451792E-09     -0.99158640E+01     -0.13215862E-07     -0.16457573E-07     -0.21934651E-16     -0.69084319E-09     -0.30777764E-18
    0.025120181138         0.90326950E-09     -0.58010003E+01     -0.99428088E-08     -0.12928262E-07     -0.22158805E-16     -0.77203326E-09     -0.44693594E-18
    0.031400226423         0.14241628E-08     -0.33476947E+01     -0.79675531E-08     -0.94105579E-08     -0.22397239E-16     -0.83113199E-09     -0.58759162E-18
    0.037680271707         0.20734119E-08     -0.23594488E+01     -0.65859431E-08     -0.80468294E-08     -0.22461161E-16     -0.88166644E-09     -0.72864873E-18
    0.043960316992         0.28586714E-08     -0.16593944E+01     -0.55877202E-08     -0.66879918E-08     -0.22520641E-16     -0.92366733E-09     -0.87007937E-18
    0.050240362276         0.37890711E-08     -0.12784485E+01     -0.48242422E-08     -0.59759353E-08     -0.22550271E-16     -0.96119648E-09     -0.10116961E-17
    0.056520407561         0.48752551E-08     -0.98510819E+00     -0.42234475E-08     -0.52664585E-08     -0.22578851E-16     -0.99427007E-09     -0.11534923E-17
    0.062800452845         0.61294263E-08     -0.79726295E+00     -0.37344480E-08     -0.48228229E-08     -0.22590516E-16     -0.10245576E-08     -0.12953618E-17
    0.069080498130         0.75653939E-08     -0.64544686E+00     -0.33300980E-08     -0.43810605E-08     -0.22603504E-16     -0.10520709E-08     -0.14373128E-17
    0.075360543414         0.91986243E-08     -0.53796220E+00     -0.29883432E-08     -0.40698021E-08     -0.22607472E-16     -0.10776294E-08     -0.15792887E-17
    0.081640588699         0.11046294E-07     -0.44831216E+00     -0.26966452E-08     -0.37595310E-08     -0.22613978E-16     -0.11012394E-08     -0.17213055E-17
    0.087920633984         0.13127346E-07     -0.38456871E+00     -0.24443909E-08     -0.35587930E-08     -0.22620357E-16     -0.11235888E-08     -0.18633624E-17
    0.094200679268         0.15462541E-07     -0.33013087E+00     -0.22235501E-08     -0.33585795E-08     -0.22621240E-16     -0.11446809E-08     -0.20054248E-17
    0.100480724553         0.18074516E-07     -0.28750995E+00     -0.20294394E-08     -0.32053796E-08     -0.22625734E-16     -0.11648108E-08     -0.21475155E-17
    0.106760769837         0.20987836E-07     -0.25052166E+00     -0.18573101E-08     -0.30524173E-08     -0.22629922E-16     -0.11839801E-08     -0.22896324E-17
    0.113040815122         0.24229044E-07     -0.22109476E+00     -0.17037886E-08     -0.29371229E-08     -0.22633899E-16     -0.12024254E-08     -0.24317743E-17
    0.119320860406         0.27826708E-07     -0.19523998E+00     -0.15660864E-08     -0.28219993E-08     -0.22636216E-16     -0.12201477E-08     -0.25739308E-17
    0.125600905691         0.31811467E-07     -0.17408286E+00     -0.14421304E-08     -0.27326853E-08     -0.22638004E-16     -0.12373090E-08     -0.27160985E-17
    0.131880950975         0.36216061E-07     -0.15531434E+00     -0.13302117E-08     -0.26434639E-08     -0.22640321E-16     -0.12539101E-08     -0.28582807E-17
    0.138160996260         0.41075368E-07     -0.13963707E+00     -0.12287876E-08     -0.25729978E-08     -0.22642037E-16     -0.12700687E-08     -0.30004737E-17
    0.144441041544         0.46426423E-07     -0.12561537E+00     -0.11366425E-08     -0.25024193E-08     -0.22643376E-16     -0.12857840E-08     -0.31426751E-17
    0.150721086829         0.52308432E-07     -0.11378169E+00     -0.10525785E-08     -0.24474438E-08     -0.22640961E-16     -0.13011540E-08     -0.32848614E-17
    0.157001132113         0.58762774E-07     -0.10312243E+00     -0.97609894E-09     -0.23921880E-08     -0.22643107E-16     -0.13161771E-08     -0.34270611E-17
    0.163281177398         0.65832996E-07     -0.94018898E-01     -0.90613280E-09     -0.23494452E-08     -0.22643420E-16     -0.13309317E-08     -0.35692628E-17
    0.169561222683         0.73564796E-07     -0.85766560E-01     -0.84217803E-09     -0.23062382E-08     -0.22645926E-16     -0.13454150E-08     -0.37114803E-17
    0.175841267967         0.82005985E-07     -0.78659277E-01     -0.78350589E-09     -0.22736173E-08     -0.22646948E-16     -0.13596934E-08     -0.38537041E-17
    0.182121313252         0.91206450E-07     -0.72178498E-01     -0.72963807E-09     -0.22403470E-08     -0.22647222E-16     -0.13737629E-08     -0.39959297E-17
    0.188401358536         0.10121809E-06     -0.66573521E-01     -0.68008896E-09     -0.22167581E-08     -0.22645531E-16     -0.13876842E-08     -0.41381447E-17
    0.194681403821         0.11209474E-06     -0.61433056E-01     -0.63459889E-09     -0.21923282E-08     -0.22646587E-16     -0.14014521E-08     -0.42803663E-17
    0.200961449105         0.12389210E-06     -0.56979752E-01     -0.59270408E-09     -0.21771788E-08     -0.22647040E-16     -0.14151249E-08     -0.44225907E-17
    0.207241494390         0.13666760E-06     -0.52870809E-01     -0.55412294E-09     -0.21609637E-08     -0.22648406E-16     -0.14286959E-08     -0.45648237E-17
    0.213521539674         0.15048030E-06     -0.49314157E-01     -0.51853437E-09     -0.21540324E-08     -0.22649477E-16     -0.14422233E-08     -0.47070635E-17
    0.219801584959         0.16539075E-06     -0.46010640E-01     -0.48566333E-09     -0.21457611E-08     -0.22649488E-16     -0.14556988E-08     -0.48493033E-17
    0.226081630243         0.18146085E-06     -0.43163177E-01     -0.45528706E-09     -0.21472062E-08     -0.22648824E-16     -0.14691833E-08     -0.49915389E-17
    0.232361675528         0.19875365E-06     -0.40498085E-01     -0.42723531E-09     -0.21469789E-08     -0.22649594E-16     -0.14826664E-08     -0.51337794E-17
    0.238641720812         0.21733318E-06     -0.38221902E-01     -0.40128779E-09     -0.21574196E-08     -0.22650525E-16     -0.14962151E-08     -0.52760257E-17
    0.244921766097         0.23726424E-06     -0.36071671E-01     -0.37724212E-09     -0.21657775E-08     -0.22649977E-16     -0.15098163E-08     -0.54182686E-17
    0.251201811381         0.25861222E-06     -0.34266350E-01     -0.35497932E-09     -0.21864362E-08     -0.22650198E-16     -0.15235472E-08     -0.55605129E-17
    0.257481856666         0.28144279E-06     -0.32540454E-01     -0.33434619E-09     -0.22044984E-08     -0.22650749E-16     -0.15373916E-08     -0.57027606E-17
    0.263761901951         0.30582173E-06     -0.31135023E-01     -0.31518745E-09     -0.22374232E-08     -0.22649983E-16     -0.15514427E-08     -0.58450035E-17
    0.270041947235         0.33181462E-06     -0.29768864E-01     -0.29742187E-09     -0.22670924E-08     -0.22650607E-16     -0.15656801E-08     -0.59872504E-17
    0.276321992520         0.35948656E-06     -0.28717678E-01     -0.28091232E-09     -0.23155769E-08     -0.22650650E-16     -0.15802221E-08     -0.61294975E-17
    0.282602037804         0.38890192E-06     -0.27669071E-01     -0.26556479E-09     -0.23599459E-08     -0.22650509E-16     -0.15950426E-08     -0.62717437E-17
    0.288882083089         0.42012400E-06     -0.26951134E-01     -0.25129676E-09     -0.24292745E-08     -0.22650952E-16     -0.16102986E-08     -0.64139927E-17
    0.295162128373         0.45321473E-06     -0.26199614E-01     -0.23801331E-09     -0.24933368E-08     -0.22650996E-16     -0.16259569E-08     -0.65562420E-17
    0.301442173658         0.48823435E-06     -0.25816908E-01     -0.22565196E-09     -0.25916194E-08     -0.22651977E-16     -0.16422324E-08     -0.66984974E-17
    0.307722218942         0.52524111E-06     -0.25362411E-01     -0.21412228E-09     -0.26830765E-08     -0.22651887E-16     -0.16590822E-08     -0.68407523E-17
    0.314002264227         0.56429086E-06     -0.25347179E-01     -0.20337204E-09     -0.28232058E-08     -0.22651875E-16     -0.16768121E-08     -0.69830071E-17
    0.320282309511         0.60543679E-06     -0.25216670E-01     -0.19334729E-09     -0.29543794E-08     -0.22652525E-16     -0.16953657E-08     -0.71252660E-17
    0.326562354796         0.64872905E-06     -0.25669347E-01     -0.18398689E-09     -0.31604923E-08     -0.22653055E-16     -0.17152137E-08     -0.72675282E-17
    0.332842400080         0.69421440E-06     -0.25948797E-01     -0.17523860E-09     -0.33544002E-08     -0.22653089E-16     -0.17362795E-08     -0.74097906E-17
    0.339122445365         0.74193587E-06     -0.27023968E-01     -0.16704823E-09     -0.36643895E-08     -0.22651366E-16     -0.17592920E-08     -0.75520422E-17
    0.345402490650         0.79193243E-06     -0.27848050E-01     -0.15939858E-09     -0.39573105E-08     -0.22651126E-16     -0.17841441E-08     -0.76942923E-17
    0.351682535934         0.84423861E-06     -0.29892692E-01     -0.15224229E-09     -0.44475630E-08     -0.22651261E-16     -0.18120750E-08     -0.78365432E-17
    0.357962581219         0.89888421E-06     -0.31562036E-01     -0.14555273E-09     -0.49121747E-08     -0.22653179E-16     -0.18429237E-08     -0.79788062E-17
    0.364242626503         0.95589395E-06     -0.35277214E-01     -0.13927485E-09     -0.57379386E-08     -0.22653448E-16     -0.18789582E-08     -0.81210709E-17
    0.370522671788         0.10152872E-05     -0.38389381E-01     -0.13338676E-09     -0.65197043E-08     -0.22653197E-16     -0.19199023E-08     -0.82633340E-17
    0.376802717072         0.10770774E-05     -0.45395308E-01     -0.12786405E-09     -0.80424162E-08     -0.22652911E-16     -0.19704090E-08     -0.84055953E-17
    0.383082762357         0.11412724E-05     -0.51244587E-01     -0.12268223E-09     -0.94620965E-08     -0.22652755E-16     -0.20298314E-08     -0.85478557E-17
    0.389362807641         0.12078734E-05     -0.65645385E-01     -0.11781991E-09     -0.12621583E-07     -0.22653134E-16     -0.21090955E-08     -0.86901184E-17
    0.395642852926         0.12768751E-05     -0.76266302E-01     -0.11325436E-09     -0.15255290E-07     -0.22653887E-16     -0.22048994E-08     -0.88323858E-17
    0.401922898210         0.13482657E-05     -0.87388450E-01     -0.10896026E-09     -0.18168934E-07     -0.22653929E-16     -0.23190011E-08     -0.89746535E-17
    0.408202943495         0.14220259E-05      0.38305998E+00     -0.10493757E-09      0.82706729E-07     -0.22657139E-16     -0.17995991E-08     -0.91169414E-17
    0.414482988779         0.14981296E-05      0.15496072E+01     -0.10117319E-09      0.34714187E-06     -0.22664743E-16      0.38046749E-09     -0.92592770E-17
    0.420763034064         0.15765431E-05      0.17486198E+01     -0.97601678E-10      0.40607509E-06     -0.22665653E-16      0.29306374E-08     -0.94016183E-17
    0.427043079349         0.16572251E-05      0.80096811E+00     -0.94186142E-10      0.19264942E-06     -0.22653718E-16      0.41404845E-08     -0.95438847E-17
    0.433323124633         0.17401266E-05      0.31896714E+00     -0.91025619E-10      0.79388499E-07     -0.22655585E-16      0.46390479E-08     -0.96861628E-17
    0.439603169918         0.18251908E-05      0.28004723E+00     -0.88041309E-10      0.72064506E-07     -0.22655655E-16      0.50916163E-08     -0.98284413E-17
    0.445883215202         0.19123531E-05      0.25569922E+00     -0.85226480E-10      0.67970278E-07     -0.22655006E-16      0.55184727E-08     -0.99707158E-17
    0.452163260487         0.20015409E-05      0.29148414E+00     -0.82574666E-10      0.79969945E-07     -0.22654720E-16      0.60206875E-08     -0.10112988E-16
    0.458443305771         0.20926735E-05      0.33892129E+00     -0.80086728E-10      0.95886478E-07     -0.22657870E-16      0.66228590E-08     -0.10255281E-16
    0.464723351056         0.21856626E-05      0.52816547E+00     -0.77735628E-10      0.15395766E-06     -0.22659557E-16      0.75897201E-08     -0.10397584E-16
    0.471003396340         0.22804117E-05      0.84238436E+00     -0.75498535E-10      0.25277970E-06     -0.22655331E-16      0.91771880E-08     -0.10539860E-16
    0.477283441625         0.23768165E-05      0.32489862E+01     -0.73414079E-10      0.10027896E-05     -0.22659030E-16      0.15474752E-07     -0.10682160E-16
    0.483563486909         0.24747652E-05      0.13721285E+02     -0.71846566E-10      0.43522913E-05     -0.22789206E-16      0.42807338E-07     -0.10825277E-16
    0.489843532194         0.25741382E-05      0.26087681E+02     -0.70302186E-10      0.84967460E-05     -0.22897390E-16      0.96167288E-07     -0.10969074E-16
    0.496123577478         0.26748086E-05      0.24195171E+02     -0.68428838E-10      0.80848921E-05     -0.22865710E-16      0.14694078E-06     -0.11112672E-16
    0.502403622763         0.27766424E-05      0.14146890E+02     -0.66468880E-10      0.48458598E-05     -0.22768175E-16      0.17737299E-06     -0.11255657E-16
    0.508683668048         0.28794986E-05      0.10452373E+02     -0.65087907E-10      0.36671328E-05     -0.22835580E-16      0.20040276E-06     -0.11399065E-16
    0.514963713332         0.29832293E-05      0.11505745E+02     -0.63308782E-10      0.41311164E-05     -0.22730901E-16      0.22634635E-06     -0.11541816E-16
    0.521243758617         0.30876806E-05      0.13804677E+02     -0.61924471E-10      0.50682779E-05     -0.22735080E-16      0.25817537E-06     -0.11684594E-16
    0.527523803901         0.31926924E-05      0.15983738E+02     -0.60609953E-10      0.59956468E-05     -0.22735349E-16      0.29582830E-06     -0.11827373E-16
    0.533803849186         0.32980988E-05      0.16697410E+02     -0.59343900E-10      0.63940163E-05     -0.22724834E-16      0.33598301E-06     -0.11970086E-16
    0.540083894470         0.34037289E-05      0.16459310E+02     -0.58136634E-10      0.64290682E-05     -0.22708387E-16      0.37635785E-06     -0.12112696E-16
    0.546363939755         0.35094067E-05      0.15847794E+02     -0.57896674E-10      0.63090385E-05     -0.23048781E-16      0.41597890E-06     -0.12257443E-16
    0.552643985039         0.36149520E-05      0.15482752E+02     -0.56808761E-10      0.62769393E-05     -0.23031121E-16      0.45539836E-06     -0.12402079E-16
    0.558924030324         0.37201804E-05      0.15385307E+02     -0.55798453E-10      0.63468768E-05     -0.23018449E-16      0.49525704E-06     -0.12546636E-16
    0.565204075608         0.38249044E-05      0.15471155E+02     -0.54859611E-10      0.64890440E-05     -0.23009687E-16      0.53600853E-06     -0.12691138E-16
    0.571484120893         0.39289333E-05      0.15592008E+02     -0.53982121E-10      0.66437792E-05     -0.23001868E-16      0.57773176E-06     -0.12835591E-16
    0.577764166177         0.40320740E-05      0.15643872E+02     -0.53153421E-10      0.67665114E-05     -0.22990678E-16      0.62022576E-06     -0.12979973E-16
    0.584044211462         0.41341318E-05      0.15605098E+02     -0.51490565E-10      0.68461714E-05     -0.22589620E-16      0.66322003E-06     -0.13121837E-16
    0.590324256747         0.42349105E-05      0.15470702E+02     -0.50766005E-10      0.68786989E-05     -0.22571960E-16      0.70641857E-06     -0.13263590E-16
    0.596604302031         0.43342134E-05      0.15309928E+02     -0.50090156E-10      0.68934991E-05     -0.22553761E-16      0.74971005E-06     -0.13405229E-16
    0.602884347316         0.44318436E-05      0.15125636E+02     -0.50324926E-10      0.68913884E-05     -0.22928531E-16      0.79298828E-06     -0.13549221E-16
    0.609164392600         0.45276046E-05      0.14953233E+02     -0.49735324E-10      0.68882952E-05     -0.22910871E-16      0.83624709E-06     -0.13693102E-16
    0.615444437885         0.46213012E-05      0.14774228E+02     -0.49190757E-10      0.68757947E-05     -0.22892942E-16      0.87942739E-06     -0.13836871E-16
    0.621724483169         0.47127398E-05      0.14600559E+02     -0.48689232E-10      0.68594243E-05     -0.22874473E-16      0.92250489E-06     -0.13980524E-16
    0.628004528454         0.48017293E-05      0.14415576E+02     -0.48231176E-10      0.68313978E-05     -0.22856273E-16      0.96540637E-06     -0.14124062E-16
    0.634284573738         0.48880813E-05      0.14228683E+02     -0.47813410E-10      0.67961297E-05     -0.22837400E-16      0.10080864E-05     -0.14267482E-16
    0.640564619023         0.49716111E-05      0.14029355E+02     -0.47437692E-10      0.67486138E-05     -0.22819201E-16      0.10504680E-05     -0.14410788E-16
    0.646844664307         0.50521382E-05      0.13825784E+02     -0.47100804E-10      0.66927971E-05     -0.22800597E-16      0.10924990E-05     -0.14553977E-16
    0.653124709592         0.51294867E-05      0.13612024E+02     -0.47576533E-10      0.66258742E-05     -0.23158651E-16      0.11341098E-05     -0.14699414E-16
    0.659404754876         0.52034861E-05      0.13394200E+02     -0.47303769E-10      0.65509124E-05     -0.23135599E-16      0.11752499E-05     -0.14844707E-16
    0.665684800161         0.52739718E-05      0.13170793E+02     -0.47070479E-10      0.64673114E-05     -0.23113220E-16      0.12158649E-05     -0.14989859E-16
    0.671964845445         0.53407857E-05      0.12945466E+02     -0.46136899E-10      0.63770376E-05     -0.22727396E-16      0.12559130E-05     -0.15132588E-16
    0.678244890730         0.54037765E-05      0.12719985E+02     -0.45991124E-10      0.62811639E-05     -0.22710544E-16      0.12953589E-05     -0.15275211E-16
    0.684524936015         0.54628005E-05      0.12494978E+02     -0.45882194E-10      0.61802245E-05     -0.22694098E-16      0.13341710E-05     -0.15417731E-16
    0.690804981299         0.55177220E-05      0.12273755E+02     -0.45808479E-10      0.60760938E-05     -0.22677381E-16      0.13723292E-05     -0.15560146E-16
    0.697085026584         0.55684138E-05      0.12054168E+02     -0.45774706E-10      0.59679569E-05     -0.22662822E-16      0.14098082E-05     -0.15702469E-16
    0.703365071868         0.56147573E-05      0.11840142E+02     -0.46448638E-10      0.58580053E-05     -0.22980837E-16      0.14465968E-05     -0.15846790E-16
    0.709645117153         0.56566434E-05      0.11627840E+02     -0.46472413E-10      0.57445936E-05     -0.22959133E-16      0.14826731E-05     -0.15990975E-16
    0.715925162437         0.56939728E-05      0.11421503E+02     -0.46533644E-10      0.56300686E-05     -0.22938103E-16      0.15180302E-05     -0.16135027E-16
    0.722205207722         0.57266558E-05      0.11216679E+02     -0.46633605E-10      0.55124853E-05     -0.22918286E-16      0.15526488E-05     -0.16278955E-16
    0.728485253006         0.57546134E-05      0.11017651E+02     -0.46770384E-10      0.53942005E-05     -0.22898604E-16      0.15865246E-05     -0.16422759E-16
    0.734765298291         0.57777770E-05      0.10820028E+02     -0.46950984E-10      0.52733086E-05     -0.22882292E-16      0.16196413E-05     -0.16566461E-16
    0.741045343575         0.57960889E-05      0.10627786E+02     -0.47163461E-10      0.51519985E-05     -0.22863283E-16      0.16519960E-05     -0.16710043E-16
    0.747325388860         0.58095025E-05      0.10437013E+02     -0.47416399E-10      0.50286118E-05     -0.22845489E-16      0.16835759E-05     -0.16853514E-16
    0.753605434144         0.58179822E-05      0.10251084E+02     -0.48292588E-10      0.49050205E-05     -0.23107423E-16      0.17143797E-05     -0.16998630E-16
    0.759885479429         0.58215039E-05      0.10066875E+02     -0.48043507E-10      0.47799617E-05     -0.22812056E-16      0.17443981E-05     -0.17141890E-16
    0.766165524714         0.58200549E-05      0.98870455E+01     -0.48417975E-10      0.46549357E-05     -0.22795744E-16      0.17736313E-05     -0.17285049E-16
