 
 # Omega; pulse ft; proj flux t=    500.050000000000     
    0.000000000000         0.16626861E-13      0.00000000E+00      0.00000000E+00      0.00000000E+00      0.00000000E+00      0.00000000E+00      0.00000000E+00
    0.006280045285         0.55619039E-10      0.77078927E+02     -0.30746597E-07      0.42309612E-07     -0.16877201E-16      0.26570628E-09     -0.10598959E-18
    0.012560090569         0.22310564E-09      0.30315299E+02     -0.36215393E-07      0.33375080E-07     -0.39870682E-16      0.47530329E-09     -0.35637928E-18
    0.018840135854         0.50451792E-09      0.80667528E+01     -0.27683227E-07      0.13388564E-07     -0.45946448E-16      0.55938407E-09     -0.64492505E-18
    0.025120181138         0.90326950E-09      0.47288282E+01     -0.20836809E-07      0.10538791E-07     -0.46437460E-16      0.62556816E-09     -0.93655441E-18
    0.031400226423         0.14241628E-08      0.27386824E+01     -0.16693709E-07      0.76985901E-08     -0.46926955E-16      0.67391565E-09     -0.12312578E-17
    0.037680271707         0.20734119E-08      0.19360571E+01     -0.13797114E-07      0.66028646E-08     -0.47054643E-16      0.71538194E-09     -0.15267631E-17
    0.043960316992         0.28586714E-08      0.13674312E+01     -0.11708533E-07      0.55112688E-08     -0.47189847E-16      0.74999296E-09     -0.18231175E-17
    0.050240362276         0.37890711E-08      0.10558253E+01     -0.10107915E-07      0.49353135E-08     -0.47248089E-16      0.78098695E-09     -0.21198376E-17
    0.056520407561         0.48752551E-08      0.81588740E+00     -0.88484356E-08      0.43617921E-08     -0.47304366E-16      0.80837920E-09     -0.24169112E-17
    0.062800452845         0.61294263E-08      0.66433944E+00     -0.78245086E-08      0.40187386E-08     -0.47332212E-16      0.83361706E-09     -0.27141596E-17
    0.069080498130         0.75653939E-08      0.54179317E+00     -0.69775452E-08      0.36774967E-08     -0.47361061E-16      0.85671191E-09     -0.30115892E-17
    0.075360543414         0.91986243E-08      0.45755277E+00     -0.62615570E-08      0.34614871E-08     -0.47370053E-16      0.87845020E-09     -0.33090753E-17
    0.081640588699         0.11046294E-07      0.38709216E+00     -0.56506675E-08      0.32461421E-08     -0.47386311E-16      0.89883612E-09     -0.36066635E-17
    0.087920633984         0.13127346E-07      0.33265014E+00     -0.51219193E-08      0.30783394E-08     -0.47398164E-16      0.91816823E-09     -0.39043261E-17
    0.094200679268         0.15462541E-07      0.28618762E+00     -0.46595120E-08      0.29115238E-08     -0.47403448E-16      0.93645274E-09     -0.42020219E-17
    0.100480724553         0.18074516E-07      0.25058213E+00     -0.42525091E-08      0.27936802E-08     -0.47410206E-16      0.95399717E-09     -0.44997601E-17
    0.106760769837         0.20987836E-07      0.21966013E+00     -0.38919221E-08      0.26763929E-08     -0.47420134E-16      0.97080504E-09     -0.47975607E-17
    0.113040815122         0.24229044E-07      0.19481013E+00     -0.35699605E-08      0.25879460E-08     -0.47424971E-16      0.98705746E-09     -0.50953917E-17
    0.119320860406         0.27826708E-07      0.17297178E+00     -0.32814442E-08      0.25001346E-08     -0.47430004E-16      0.10027584E-08     -0.53932543E-17
    0.125600905691         0.31811467E-07      0.15504844E+00     -0.30218644E-08      0.24338902E-08     -0.47436056E-16      0.10180434E-08     -0.56911548E-17
    0.131880950975         0.36216061E-07      0.13914823E+00     -0.27871874E-08      0.23683152E-08     -0.47438176E-16      0.10329165E-08     -0.59890687E-17
    0.138160996260         0.41075368E-07      0.12589445E+00     -0.25746487E-08      0.23197719E-08     -0.47441309E-16      0.10474848E-08     -0.62870023E-17
    0.144441041544         0.46426423E-07      0.11403954E+00     -0.23816245E-08      0.22718139E-08     -0.47445013E-16      0.10617519E-08     -0.65849591E-17
    0.150721086829         0.52308432E-07      0.10397664E+00     -0.22055998E-08      0.22365373E-08     -0.47442446E-16      0.10757974E-08     -0.68828998E-17
    0.157001132113         0.58762774E-07      0.94917977E-01     -0.20452144E-08      0.22018648E-08     -0.47443970E-16      0.10896252E-08     -0.71808501E-17
    0.163281177398         0.65832996E-07      0.87151625E-01     -0.18987139E-08      0.21778384E-08     -0.47447103E-16      0.11033021E-08     -0.74788201E-17
    0.169561222683         0.73564796E-07      0.80121347E-01     -0.17645657E-08      0.21544400E-08     -0.47448666E-16      0.11168321E-08     -0.77767998E-17
    0.175841267967         0.82005985E-07      0.74050575E-01     -0.16416306E-08      0.21404045E-08     -0.47450725E-16      0.11302740E-08     -0.80747925E-17
    0.182121313252         0.91206450E-07      0.68528248E-01     -0.15288375E-08      0.21270470E-08     -0.47453559E-16      0.11436319E-08     -0.83728030E-17
    0.188401358536         0.10121809E-06      0.63729671E-01     -0.14250373E-08      0.21220639E-08     -0.47450742E-16      0.11569586E-08     -0.86707959E-17
    0.194681403821         0.11209474E-06      0.59346383E-01     -0.13296819E-08      0.21178622E-08     -0.47451640E-16      0.11702588E-08     -0.89687943E-17
    0.200961449105         0.12389210E-06      0.55523403E-01     -0.12419486E-08      0.21215321E-08     -0.47454473E-16      0.11835822E-08     -0.92668105E-17
    0.207241494390         0.13666760E-06      0.52018519E-01     -0.11610590E-08      0.21261285E-08     -0.47455419E-16      0.11969343E-08     -0.95648327E-17
    0.213521539674         0.15048030E-06      0.48960786E-01     -0.10864730E-08      0.21385973E-08     -0.47456919E-16      0.12103648E-08     -0.98628643E-17
    0.219801584959         0.16539075E-06      0.46148296E-01     -0.10176306E-08      0.21521808E-08     -0.47458416E-16      0.12238806E-08     -0.10160905E-16
    0.226081630243         0.18146085E-06      0.43704692E-01     -0.95397239E-09      0.21741445E-08     -0.47456549E-16      0.12375343E-08     -0.10458935E-16
    0.232361675528         0.19875365E-06      0.41450459E-01     -0.89518421E-09      0.21974684E-08     -0.47457592E-16      0.12513346E-08     -0.10756970E-16
    0.238641720812         0.21733318E-06      0.39512030E-01     -0.84080693E-09      0.22302404E-08     -0.47459003E-16      0.12653406E-08     -0.11055015E-16
    0.244921766097         0.23726424E-06      0.37719120E-01     -0.79044132E-09      0.22646920E-08     -0.47458851E-16      0.12795629E-08     -0.11353059E-16
    0.251201811381         0.25861222E-06      0.36208818E-01     -0.74378578E-09      0.23103794E-08     -0.47458807E-16      0.12940722E-08     -0.11651102E-16
    0.257481856666         0.28144279E-06      0.34808645E-01     -0.70056140E-09      0.23581601E-08     -0.47460508E-16      0.13088816E-08     -0.11949156E-16
    0.263761901951         0.30582173E-06      0.33675658E-01     -0.66042121E-09      0.24199982E-08     -0.47459151E-16      0.13240793E-08     -0.12247202E-16
    0.270041947235         0.33181462E-06      0.32623057E-01     -0.62319194E-09      0.24844577E-08     -0.47460116E-16      0.13396818E-08     -0.12545254E-16
    0.276321992520         0.35948656E-06      0.31839039E-01     -0.58861107E-09      0.25672599E-08     -0.47461156E-16      0.13558043E-08     -0.12843312E-16
    0.282602037804         0.38890192E-06      0.31109244E-01     -0.55644539E-09      0.26533646E-08     -0.47460251E-16      0.13724675E-08     -0.13141364E-16
    0.288882083089         0.42012400E-06      0.30667620E-01     -0.52653770E-09      0.27642647E-08     -0.47460141E-16      0.13898272E-08     -0.13439416E-16
    0.295162128373         0.45321473E-06      0.30255897E-01     -0.49871986E-09      0.28793608E-08     -0.47461638E-16      0.14079098E-08     -0.13737478E-16
    0.301442173658         0.48823435E-06      0.30183793E-01     -0.47279944E-09      0.30299873E-08     -0.47461772E-16      0.14269382E-08     -0.14035540E-16
    0.307722218942         0.52524111E-06      0.30116210E-01     -0.44864007E-09      0.31859785E-08     -0.47461404E-16      0.14469463E-08     -0.14333599E-16
    0.314002264227         0.56429086E-06      0.30487749E-01     -0.42613107E-09      0.33957700E-08     -0.47463101E-16      0.14682719E-08     -0.14631670E-16
    0.320282309511         0.60543679E-06      0.30832984E-01     -0.40511645E-09      0.36123855E-08     -0.47463352E-16      0.14909578E-08     -0.14929742E-16
    0.326562354796         0.64872905E-06      0.31758550E-01     -0.38549027E-09      0.39102144E-08     -0.47462796E-16      0.15155142E-08     -0.15227810E-16
    0.332842400080         0.69421440E-06      0.32622142E-01     -0.36717354E-09      0.42170633E-08     -0.47464513E-16      0.15419975E-08     -0.15525890E-16
    0.339122445365         0.74193587E-06      0.34400633E-01     -0.35001603E-09      0.46646487E-08     -0.47461389E-16      0.15712917E-08     -0.15823949E-16
    0.345402490650         0.79193243E-06      0.36058331E-01     -0.33399114E-09      0.51240216E-08     -0.47461371E-16      0.16034708E-08     -0.16122009E-16
    0.351682535934         0.84423861E-06      0.39231837E-01     -0.31900452E-09      0.58370811E-08     -0.47462862E-16      0.16401279E-08     -0.16420078E-16
    0.357962581219         0.89888421E-06      0.42191014E-01     -0.30496872E-09      0.65664216E-08     -0.47463974E-16      0.16813654E-08     -0.16718154E-16
    0.364242626503         0.95589395E-06      0.48064431E-01     -0.29181515E-09      0.78178156E-08     -0.47464559E-16      0.17304616E-08     -0.17016233E-16
    0.370522671788         0.10152872E-05      0.53551975E-01     -0.27948362E-09      0.90947816E-08     -0.47464962E-16      0.17875772E-08     -0.17314315E-16
    0.376802717072         0.10770774E-05      0.65838960E-01     -0.26791359E-09      0.11664296E-07     -0.47464654E-16      0.18608295E-08     -0.17612396E-16
    0.383082762357         0.11412724E-05      0.77433415E-01     -0.25705633E-09      0.14297753E-07     -0.47464366E-16      0.19506201E-08     -0.17910474E-16
    0.389362807641         0.12078734E-05      0.11185038E+00     -0.24686749E-09      0.21505377E-07     -0.47465005E-16      0.20856748E-08     -0.18208556E-16
    0.395642852926         0.12768751E-05      0.14594740E+00     -0.23729651E-09      0.29193365E-07     -0.47465617E-16      0.22690105E-08     -0.18506643E-16
    0.401922898210         0.13482657E-05      0.38708036E+00     -0.22830141E-09      0.80477883E-07     -0.47466148E-16      0.27744152E-08     -0.18804732E-16
    0.408202943495         0.14220259E-05      0.13107999E+01     -0.21988313E-09      0.28301565E-06     -0.47475109E-16      0.45517663E-08     -0.19102878E-16
    0.414482988779         0.14981296E-05      0.19587044E+01     -0.21194087E-09      0.43878753E-06     -0.47478837E-16      0.73073719E-08     -0.19401047E-16
    0.420763034064         0.15765431E-05      0.12833439E+01     -0.20442929E-09      0.29802590E-06     -0.47473807E-16      0.91789880E-08     -0.19699185E-16
    0.427043079349         0.16572251E-05      0.34454097E+00     -0.19734384E-09      0.82869238E-07     -0.47465281E-16      0.96994106E-08     -0.19997269E-16
    0.433323124633         0.17401266E-05      0.42366181E-01     -0.19070730E-09      0.10544621E-07     -0.47465599E-16      0.97656313E-08     -0.20295355E-16
    0.439603169918         0.18251908E-05      0.42174151E-01     -0.18445441E-09      0.10852667E-07     -0.47465621E-16      0.98337865E-08     -0.20593441E-16
    0.445883215202         0.19123531E-05      0.62248103E-01     -0.17856253E-09      0.16546866E-07     -0.47465708E-16      0.99377016E-08     -0.20891528E-16
    0.452163260487         0.20015409E-05      0.13056923E+00     -0.17300908E-09      0.35822239E-07     -0.47465795E-16      0.10162667E-07     -0.21189615E-16
    0.458443305771         0.20926735E-05      0.22788347E+00     -0.16778114E-09      0.64472031E-07     -0.47468079E-16      0.10567554E-07     -0.21487717E-16
    0.464723351056         0.21856626E-05      0.47056282E+00     -0.16285150E-09      0.13716677E-06     -0.47470418E-16      0.11428968E-07     -0.21785833E-16
    0.471003396340         0.22804117E-05      0.90668081E+00     -0.15818473E-09      0.27207355E-06     -0.47467509E-16      0.13137602E-07     -0.22083932E-16
    0.477283441625         0.23768165E-05      0.36261198E+01     -0.15380549E-09      0.11191907E-05     -0.47471591E-16      0.20166170E-07     -0.22382055E-16
    0.483563486909         0.24747652E-05      0.13876765E+02     -0.15007442E-09      0.44016083E-05     -0.47602508E-16      0.47808470E-07     -0.22681001E-16
    0.489843532194         0.25741382E-05      0.25697212E+02     -0.14647317E-09      0.83695703E-05     -0.47706244E-16      0.10036975E-06     -0.22980599E-16
    0.496123577478         0.26748086E-05      0.24551605E+02     -0.14269136E-09      0.82039955E-05     -0.47680765E-16      0.15189121E-06     -0.23280036E-16
    0.502403622763         0.27766424E-05      0.15653930E+02     -0.13893994E-09      0.53620795E-05     -0.47592330E-16      0.18556532E-06     -0.23578918E-16
    0.508683668048         0.28794986E-05      0.11874993E+02     -0.13588070E-09      0.41662479E-05     -0.47672677E-16      0.21172954E-06     -0.23878305E-16
    0.514963713332         0.29832293E-05      0.12316897E+02     -0.13242936E-09      0.44223591E-05     -0.47548517E-16      0.23950216E-06     -0.24176911E-16
    0.521243758617         0.30876806E-05      0.14108717E+02     -0.12951095E-09      0.51799037E-05     -0.47548921E-16      0.27203219E-06     -0.24475521E-16
    0.527523803901         0.31926924E-05      0.15967084E+02     -0.12675699E-09      0.59893995E-05     -0.47547708E-16      0.30964589E-06     -0.24774123E-16
    0.533803849186         0.32980988E-05      0.16749408E+02     -0.12413954E-09      0.64139284E-05     -0.47537328E-16      0.34992565E-06     -0.25072659E-16
    0.540083894470         0.34037289E-05      0.16711149E+02     -0.12166145E-09      0.65274375E-05     -0.47521420E-16      0.39091825E-06     -0.25371096E-16
    0.546363939755         0.35094067E-05      0.16259772E+02     -0.12024803E-09      0.64730475E-05     -0.47870981E-16      0.43156928E-06     -0.25671728E-16
    0.552643985039         0.36149520E-05      0.15923488E+02     -0.11803774E-09      0.64556199E-05     -0.47854265E-16      0.47211087E-06     -0.25972255E-16
    0.558924030324         0.37201804E-05      0.15754274E+02     -0.11596639E-09      0.64990861E-05     -0.47839436E-16      0.51292542E-06     -0.26272688E-16
    0.565204075608         0.38249044E-05      0.15733318E+02     -0.11403193E-09      0.65990026E-05     -0.47828247E-16      0.55436746E-06     -0.26573052E-16
    0.571484120893         0.39289333E-05      0.15766633E+02     -0.11222302E-09      0.67181876E-05     -0.47818406E-16      0.59655798E-06     -0.26873354E-16
    0.577764166177         0.40320740E-05      0.15784567E+02     -0.11052472E-09      0.68273668E-05     -0.47805734E-16      0.63943415E-06     -0.27173576E-16
    0.584044211462         0.41341318E-05      0.15757535E+02     -0.10804670E-09      0.69130476E-05     -0.47401575E-16      0.68284840E-06     -0.27471260E-16
    0.590324256747         0.42349105E-05      0.15687781E+02     -0.10656932E-09      0.69752184E-05     -0.47383645E-16      0.72665309E-06     -0.27768831E-16
    0.596604302031         0.43342134E-05      0.15602754E+02     -0.10519259E-09      0.70253481E-05     -0.47364367E-16      0.77077260E-06     -0.28066282E-16
    0.602884347316         0.44318436E-05      0.15509875E+02     -0.10479968E-09      0.70664514E-05     -0.47747765E-16      0.81515023E-06     -0.28366140E-16
    0.609164392600         0.45276046E-05      0.15419343E+02     -0.10361745E-09      0.71030118E-05     -0.47731993E-16      0.85975747E-06     -0.28665899E-16
    0.615444437885         0.46213012E-05      0.15323409E+02     -0.10252494E-09      0.71313786E-05     -0.47714198E-16      0.90454285E-06     -0.28965546E-16
    0.621724483169         0.47127398E-05      0.15222845E+02     -0.10152428E-09      0.71517775E-05     -0.47696673E-16      0.94945633E-06     -0.29265084E-16
    0.628004528454         0.48017293E-05      0.15109733E+02     -0.10061141E-09      0.71603518E-05     -0.47678743E-16      0.99442367E-06     -0.29564508E-16
    0.634284573738         0.48880813E-05      0.14987085E+02     -0.99782568E-10      0.71583694E-05     -0.47659735E-16      0.10393786E-05     -0.29863814E-16
    0.640564619023         0.49716111E-05      0.14849706E+02     -0.99040160E-10      0.71432314E-05     -0.47641805E-16      0.10842384E-05     -0.30163006E-16
    0.646844664307         0.50521382E-05      0.14702693E+02     -0.98377777E-10      0.71172919E-05     -0.47622797E-16      0.11289353E-05     -0.30462080E-16
    0.653124709592         0.51294867E-05      0.14543352E+02     -0.98621854E-10      0.70792133E-05     -0.48005791E-16      0.11733931E-05     -0.30763558E-16
    0.659404754876         0.52034861E-05      0.14377159E+02     -0.98108662E-10      0.70316636E-05     -0.47983547E-16      0.12175522E-05     -0.31064897E-16
    0.665684800161         0.52739718E-05      0.14203406E+02     -0.97675685E-10      0.69743599E-05     -0.47962113E-16      0.12613515E-05     -0.31366101E-16
    0.671964845445         0.53407857E-05      0.14026723E+02     -0.96519983E-10      0.69096732E-05     -0.47546495E-16      0.13047446E-05     -0.31664695E-16
    0.678244890730         0.54037765E-05      0.13846911E+02     -0.96249826E-10      0.68376428E-05     -0.47528430E-16      0.13476853E-05     -0.31963176E-16
    0.684524936015         0.54628005E-05      0.13667090E+02     -0.96055197E-10      0.67599705E-05     -0.47510501E-16      0.13901382E-05     -0.32261544E-16
    0.690804981299         0.55177220E-05      0.13486369E+02     -0.95935075E-10      0.66763960E-05     -0.47492436E-16      0.14320663E-05     -0.32559799E-16
    0.697085026584         0.55684138E-05      0.13306614E+02     -0.95893530E-10      0.65880362E-05     -0.47476394E-16      0.14734394E-05     -0.32857953E-16
    0.703365071868         0.56147573E-05      0.13126192E+02     -0.96671063E-10      0.64942889E-05     -0.47828786E-16      0.15142239E-05     -0.33158320E-16
    0.709645117153         0.56566434E-05      0.12946441E+02     -0.96767228E-10      0.63960323E-05     -0.47806677E-16      0.15543912E-05     -0.33458548E-16
    0.715925162437         0.56939728E-05      0.12765541E+02     -0.96938983E-10      0.62925932E-05     -0.47784703E-16      0.15939090E-05     -0.33758638E-16
    0.722205207722         0.57266558E-05      0.12584756E+02     -0.97188158E-10      0.61848324E-05     -0.47763538E-16      0.16327500E-05     -0.34058595E-16
    0.728485253006         0.57546134E-05      0.12402523E+02     -0.97513493E-10      0.60722284E-05     -0.47742238E-16      0.16708839E-05     -0.34358418E-16
    0.734765298291         0.57777770E-05      0.12220081E+02     -0.97922750E-10      0.59556464E-05     -0.47724174E-16      0.17082856E-05     -0.34658128E-16
    0.741045343575         0.57960889E-05      0.12036297E+02     -0.98405688E-10      0.58347983E-05     -0.47703818E-16      0.17449284E-05     -0.34957711E-16
    0.747325388860         0.58095025E-05      0.11852306E+02     -0.98969930E-10      0.57105080E-05     -0.47684270E-16      0.17807907E-05     -0.35257170E-16
    0.753605434144         0.58179822E-05      0.11667350E+02     -0.10028105E-09      0.55826867E-05     -0.47983278E-16      0.18158502E-05     -0.35558507E-16
    0.759885479429         0.58215039E-05      0.11482465E+02     -0.10034803E-09      0.54521128E-05     -0.47647332E-16      0.18500897E-05     -0.35857734E-16
    0.766165524714         0.58200549E-05      0.11296841E+02     -0.10116360E-09      0.53186836E-05     -0.47628998E-16      0.18834913E-05     -0.36156847E-16
