 #KVL flux sum: time, flux integral, flux
 
    0.000000000000         0.00000000E+00      0.00000000E+00      0.00000000E+00      0.00000000E+00
    1.000000000000         0.41784457E-19     -0.82209421E-24      0.83568914E-19     -0.16441884E-23
    2.000000000000         0.97074853E-19      0.71136116E-24      0.11058079E-18      0.30669107E-23
    3.000000000000         0.21813973E-16      0.42005565E-23      0.43433797E-16      0.69783908E-23
    4.000000000000         0.13585545E-14      0.47638671E-23      0.26734810E-14      0.11266211E-23
    5.000000000000         0.17765383E-13      0.24797155E-23      0.32813657E-13     -0.45683031E-23
    6.000000000000         0.24118735E-12      0.12628807E-22      0.44684393E-12      0.20298183E-22
    7.000000000000         0.21074988E-11      0.16378169E-22      0.37326228E-11      0.74987249E-23
    8.000000000000         0.14207661E-10      0.24942740E-22      0.24200325E-10      0.17129141E-22
    9.000000000000         0.80889595E-10      0.22192456E-22      0.13336387E-09     -0.55005666E-23
   10.000000000000         0.38654764E-09      0.20915904E-22      0.61131610E-09     -0.25531036E-23
   11.000000000000         0.15278375E-08      0.27813114E-22      0.22825797E-08      0.13794419E-22
   12.000000000000         0.50109975E-08      0.31437093E-22      0.69663201E-08      0.72479573E-23
   13.000000000000         0.13820118E-07      0.41744289E-22      0.17618240E-07      0.20614393E-22
   14.000000000000         0.32501059E-07      0.40017297E-22      0.37361883E-07     -0.34539839E-23
   15.000000000000         0.65893711E-07      0.12426391E-21      0.66785304E-07      0.16849323E-21
   16.000000000000         0.11662063E-06      0.23716270E-21      0.10145384E-06      0.22579758E-21
   17.000000000000         0.18350625E-06      0.28876261E-21      0.13377124E-06      0.10319983E-21
   18.000000000000         0.26222111E-06      0.38353108E-21      0.15742970E-06      0.18953692E-21
   19.000000000000         0.34769198E-06      0.45886844E-21      0.17094175E-06      0.15067472E-21
   20.000000000000         0.43590935E-06      0.49834324E-21      0.17643474E-06      0.78949599E-22
   21.000000000000         0.52454148E-06      0.48607012E-21      0.17726426E-06     -0.24546234E-22
   22.000000000000         0.61262290E-06      0.57423324E-21      0.17616283E-06      0.17632623E-21
   23.000000000000         0.69973368E-06      0.46795904E-21      0.17422155E-06     -0.21254839E-21
   24.000000000000         0.78530148E-06      0.27984060E-21      0.17113560E-06     -0.37623688E-21
   25.000000000000         0.86829852E-06      0.36922706E-21      0.16599409E-06      0.17877293E-21
   26.000000000000         0.94730687E-06      0.42552106E-21      0.15801671E-06      0.11258800E-21
   27.000000000000         0.10208414E-05      0.55285107E-21      0.14706914E-06      0.25466001E-21
   28.000000000000         0.10876609E-05      0.54303877E-21      0.13363882E-06     -0.19624584E-22
   29.000000000000         0.11469537E-05      0.52164277E-21      0.11858575E-06     -0.42792015E-22
   30.000000000000         0.11983837E-05      0.54624019E-21      0.10285998E-06      0.49194840E-22
   31.000000000000         0.12420289E-05      0.49506513E-21      0.87290423E-07     -0.10235011E-21
   32.000000000000         0.12783613E-05      0.46018383E-21      0.72664720E-07     -0.69762608E-22
   33.000000000000         0.13082958E-05      0.46286371E-21      0.59869096E-07      0.53597640E-23
   34.000000000000         0.13332059E-05      0.46775800E-21      0.49820153E-07      0.97885837E-23
   35.000000000000         0.13547992E-05      0.55970700E-21      0.43186587E-07      0.18389800E-21
   36.000000000000         0.13747977E-05      0.59841822E-21      0.39996942E-07      0.77422435E-22
   37.000000000000         0.13945334E-05      0.50103657E-21      0.39471486E-07     -0.19476331E-21
   38.000000000000         0.14146532E-05      0.56619649E-21      0.40239521E-07      0.13031985E-21
   39.000000000000         0.14350564E-05      0.53557201E-21      0.40806502E-07     -0.61248972E-22
   40.000000000000         0.14550862E-05      0.65523010E-21      0.40059604E-07      0.23931618E-21
   41.000000000000         0.14738411E-05      0.73627411E-21      0.37509671E-07      0.16208803E-21
   42.000000000000         0.14904710E-05      0.77377258E-21      0.33259884E-07      0.74996935E-22
   43.000000000000         0.15043971E-05      0.65917190E-21      0.27852257E-07     -0.22920136E-21
   44.000000000000         0.15154482E-05      0.60035072E-21      0.22102202E-07     -0.11764235E-21
   45.000000000000         0.15239334E-05      0.59389222E-21      0.16970246E-07     -0.12917012E-22
   46.000000000000         0.15306102E-05      0.67099774E-21      0.13353670E-07      0.15421105E-21
   47.000000000000         0.15365042E-05      0.62482842E-21      0.11787987E-07     -0.92338652E-22
   48.000000000000         0.15425993E-05      0.72412094E-21      0.12190143E-07      0.19858504E-21
   49.000000000000         0.15495102E-05      0.72675810E-21      0.13821835E-07      0.52743241E-23
   50.000000000000         0.15572970E-05      0.73520466E-21      0.15573675E-07      0.16893123E-22
   51.000000000000         0.15655064E-05      0.81229105E-21      0.16418846E-07      0.15417278E-21
   52.000000000000         0.15734053E-05      0.76942776E-21      0.15797636E-07     -0.85726587E-22
   53.000000000000         0.15802774E-05      0.75443880E-21      0.13744216E-07     -0.29977912E-22
   54.000000000000         0.15856571E-05      0.71671085E-21      0.10759367E-07     -0.75455915E-22
   55.000000000000         0.15894489E-05      0.72696632E-21      0.75835962E-08      0.20510952E-22
   56.000000000000         0.15919353E-05      0.67833470E-21      0.49729206E-08     -0.97263235E-22
   57.000000000000         0.15936940E-05      0.66394974E-21      0.35173579E-08     -0.28769934E-22
   58.000000000000         0.15954298E-05      0.66111309E-21      0.34716737E-08     -0.56732951E-23
   59.000000000000         0.15977459E-05      0.61193197E-21      0.46321347E-08     -0.98362231E-22
   60.000000000000         0.16009271E-05      0.62902347E-21      0.63623309E-08      0.34182989E-22
   61.000000000000         0.16048356E-05      0.66731146E-21      0.78170332E-08      0.76575988E-22
   62.000000000000         0.16089850E-05      0.61930928E-21      0.82989243E-08     -0.96004367E-22
   63.000000000000         0.16127605E-05      0.67875565E-21      0.75508356E-08      0.11889273E-21
   64.000000000000         0.16156715E-05      0.67140677E-21      0.58220897E-08     -0.14697756E-22
   65.000000000000         0.16175233E-05      0.66327714E-21      0.37035342E-08     -0.16259252E-22
   66.000000000000         0.16184500E-05      0.68466658E-21      0.18534601E-08      0.42778876E-22
   67.000000000000         0.16188362E-05      0.70239807E-21      0.77243602E-09      0.35462977E-22
   68.000000000000         0.16191791E-05      0.70827884E-21      0.68576327E-09      0.11761539E-22
   69.000000000000         0.16199335E-05      0.69407617E-21      0.15087021E-08     -0.28405326E-22
   70.000000000000         0.16213691E-05      0.63396734E-21      0.28712636E-08     -0.12021767E-21
   71.000000000000         0.16234746E-05      0.61444719E-21      0.42110647E-08     -0.39040297E-22
   72.000000000000         0.16259546E-05      0.58595597E-21      0.49598773E-08     -0.56982450E-22
   73.000000000000         0.16283423E-05      0.60919553E-21      0.47755734E-08      0.46479126E-22
   74.000000000000         0.16301933E-05      0.59482436E-21      0.37018546E-08     -0.28742335E-22
   75.000000000000         0.16312679E-05      0.60351632E-21      0.21492518E-08      0.17383910E-22
   76.000000000000         0.16316151E-05      0.59183422E-21      0.69441206E-09     -0.23364192E-22
   77.000000000000         0.16315251E-05      0.58812183E-21     -0.18004351E-09     -0.74247836E-23
   78.000000000000         0.16313955E-05      0.57920297E-21     -0.25917495E-09     -0.17837723E-22
   79.000000000000         0.16315843E-05      0.56352543E-21      0.37751258E-09     -0.31355077E-22
   80.000000000000         0.16323014E-05      0.56948254E-21      0.14342020E-08      0.11914219E-22
   81.000000000000         0.16335546E-05      0.55842984E-21      0.25064699E-08     -0.22105396E-22
   82.000000000000         0.16351508E-05      0.54222579E-21      0.31923531E-08     -0.32408099E-22
   83.000000000000         0.16367555E-05      0.53507841E-21      0.32094820E-08     -0.14294772E-22
   84.000000000000         0.16380106E-05      0.53669805E-21      0.25101182E-08      0.32392893E-23
   85.000000000000         0.16386774E-05      0.54847235E-21      0.13336287E-08      0.23548605E-22
   86.000000000000         0.16387406E-05      0.59032358E-21      0.12639759E-09      0.83702453E-22
   87.000000000000         0.16384127E-05      0.59397603E-21     -0.65583499E-09      0.73048982E-23
   88.000000000000         0.16380316E-05      0.57588672E-21     -0.76214302E-09     -0.36178614E-22
   89.000000000000         0.16379095E-05      0.59487189E-21     -0.24414249E-09      0.37970335E-22
   90.000000000000         0.16382142E-05      0.59455593E-21      0.60929938E-09     -0.63192290E-24
   91.000000000000         0.16389283E-05      0.61503391E-21      0.14282341E-08      0.40955970E-22
   92.000000000000         0.16398821E-05      0.60499316E-21      0.19076337E-08     -0.20081506E-22
   93.000000000000         0.16408221E-05      0.64524612E-21      0.18800394E-08      0.80505931E-22
   94.000000000000         0.16414914E-05      0.62430581E-21      0.13385624E-08     -0.41880627E-22
   95.000000000000         0.16417131E-05      0.64588825E-21      0.44342235E-09      0.43164877E-22
   96.000000000000         0.16414606E-05      0.66047097E-21     -0.50496171E-09      0.29165444E-22
   97.000000000000         0.16408810E-05      0.64932925E-21     -0.11592619E-08     -0.22283438E-22
   98.000000000000         0.16402400E-05      0.64266413E-21     -0.12820138E-08     -0.13330244E-22
   99.000000000000         0.16398018E-05      0.63892884E-21     -0.87629382E-09     -0.74705891E-23
  100.000000000000         0.16397072E-05      0.64952057E-21     -0.18923946E-09      0.21183465E-22
  101.000000000000         0.16399217E-05      0.64130398E-21      0.42893088E-09     -0.16433185E-22
  102.000000000000         0.16402770E-05      0.63362265E-21      0.71052959E-09     -0.15362659E-22
  103.000000000000         0.16405629E-05      0.67006753E-21      0.57195956E-09      0.72889769E-22
  104.000000000000         0.16406095E-05      0.67454780E-21      0.93075292E-10      0.89605326E-23
  105.000000000000         0.16403266E-05      0.67706291E-21     -0.56567252E-09      0.50302245E-23
  106.000000000000         0.16397161E-05      0.67921298E-21     -0.12210195E-08      0.43001424E-23
  107.000000000000         0.16388711E-05      0.67471788E-21     -0.16899673E-08     -0.89901973E-23
  108.000000000000         0.16379576E-05      0.69691118E-21     -0.18271050E-08      0.44386594E-22
  109.000000000000         0.16371592E-05      0.69837598E-21     -0.15967518E-08      0.29296078E-23
  110.000000000000         0.16365957E-05      0.67877674E-21     -0.11269543E-08     -0.39198493E-22
  111.000000000000         0.16362630E-05      0.68424901E-21     -0.66548100E-09      0.10944543E-22
  112.000000000000         0.16360420E-05      0.68367348E-21     -0.44203656E-09     -0.11510608E-23
  113.000000000000         0.16357728E-05      0.69007760E-21     -0.53842531E-09      0.12808253E-22
  114.000000000000         0.16353363E-05      0.74469322E-21     -0.87298599E-09      0.10923122E-21
  115.000000000000         0.16346882E-05      0.71411247E-21     -0.12961291E-08     -0.61161494E-22
  116.000000000000         0.16338419E-05      0.72775766E-21     -0.16925764E-08      0.27290377E-22
  117.000000000000         0.16328409E-05      0.75836655E-21     -0.20020241E-08      0.61217776E-22
  118.000000000000         0.16317536E-05      0.75550329E-21     -0.21747093E-08     -0.57265069E-23
  119.000000000000         0.16306774E-05      0.74558914E-21     -0.21522413E-08     -0.19828310E-22
  120.000000000000         0.16297184E-05      0.77300778E-21     -0.19181398E-08      0.54837290E-22
  121.000000000000         0.16289394E-05      0.76227732E-21     -0.15579865E-08     -0.21460916E-22
  122.000000000000         0.16283196E-05      0.82240250E-21     -0.12395273E-08      0.12025036E-21
  123.000000000000         0.16277646E-05      0.84374463E-21     -0.11099674E-08      0.42684255E-22
  124.000000000000         0.16271635E-05      0.86504491E-21     -0.12023227E-08      0.42600547E-22
  125.000000000000         0.16264434E-05      0.86205066E-21     -0.14400497E-08     -0.59884823E-23
  126.000000000000         0.16255832E-05      0.85839942E-21     -0.17204089E-08     -0.73024917E-23
  127.000000000000         0.16245941E-05      0.86563412E-21     -0.19782647E-08      0.14469395E-22
  128.000000000000         0.16235079E-05      0.84815242E-21     -0.21724086E-08     -0.34963400E-22
  129.000000000000         0.16223889E-05      0.88142798E-21     -0.22380156E-08      0.66551127E-22
  130.000000000000         0.16213407E-05      0.88977439E-21     -0.20963072E-08      0.16692820E-22
  131.000000000000         0.16204739E-05      0.86896745E-21     -0.17336388E-08     -0.41613886E-22
  132.000000000000         0.16198408E-05      0.89250275E-21     -0.12661566E-08      0.47070601E-22
  133.000000000000         0.16193919E-05      0.86317190E-21     -0.89785052E-09     -0.58661702E-22
  134.000000000000         0.16189970E-05      0.85488006E-21     -0.78976066E-09     -0.16583666E-22
  135.000000000000         0.16185185E-05      0.86799090E-21     -0.95706369E-09      0.26221673E-22
  136.000000000000         0.16178800E-05      0.87188450E-21     -0.12769121E-08      0.77871925E-23
  137.000000000000         0.16170864E-05      0.86699496E-21     -0.15872294E-08     -0.97790769E-23
  138.000000000000         0.16162014E-05      0.87949594E-21     -0.17701440E-08      0.25001966E-22
  139.000000000000         0.16153196E-05      0.88584525E-21     -0.17635113E-08      0.12698610E-22
  140.000000000000         0.16145497E-05      0.90268199E-21     -0.15398830E-08      0.33673491E-22
  141.000000000000         0.16139921E-05      0.88006750E-21     -0.11151405E-08     -0.45228983E-22
  142.000000000000         0.16136969E-05      0.87070112E-21     -0.59044497E-09     -0.18732752E-22
  143.000000000000         0.16136209E-05      0.88879346E-21     -0.15195840E-09      0.36184670E-22
  144.000000000000         0.16136288E-05      0.93947676E-21      0.15788272E-10      0.10136661E-21
  145.000000000000         0.16135559E-05      0.95612178E-21     -0.14573408E-09      0.33290023E-22
  146.000000000000         0.16132972E-05      0.97246465E-21     -0.51735368E-09      0.32685740E-22
  147.000000000000         0.16128590E-05      0.97762787E-21     -0.87652727E-09      0.10326448E-22
  148.000000000000         0.16123421E-05      0.97148887E-21     -0.10336852E-08     -0.12277990E-22
  149.000000000000         0.16118803E-05      0.97101066E-21     -0.92363518E-09     -0.95642330E-24
  150.000000000000         0.16115818E-05      0.97354366E-21     -0.59708910E-09      0.50659864E-23
  151.000000000000         0.16115022E-05      0.98892406E-21     -0.15918785E-09      0.30760814E-22
  152.000000000000         0.16116397E-05      0.98800917E-21      0.27504422E-09     -0.18297953E-23
  153.000000000000         0.16119346E-05      0.10079693E-20      0.58987875E-09      0.39920294E-22
  154.000000000000         0.16122765E-05      0.10262157E-20      0.68370136E-09      0.36492812E-22
  155.000000000000         0.16125372E-05      0.10545883E-20      0.52135432E-09      0.56745213E-22
  156.000000000000         0.16126296E-05      0.10557728E-20      0.18482127E-09      0.23688545E-23
  157.000000000000         0.16125582E-05      0.10363846E-20     -0.14280336E-09     -0.38776273E-22
  158.000000000000         0.16124200E-05      0.10198644E-20     -0.27641128E-09     -0.33040513E-22
  159.000000000000         0.16123497E-05      0.10273899E-20     -0.14044414E-09      0.15051090E-22
  160.000000000000         0.16124472E-05      0.10489413E-20      0.19482453E-09      0.43102771E-22
  161.000000000000         0.16127343E-05      0.10096283E-20      0.57422998E-09     -0.78625907E-22
  162.000000000000         0.16131628E-05      0.98352605E-21      0.85707784E-09     -0.52204577E-22
  163.000000000000         0.16136498E-05      0.10069935E-20      0.97400308E-09      0.46934930E-22
  164.000000000000         0.16141106E-05      0.10134495E-20      0.92155208E-09      0.12912054E-22
  165.000000000000         0.16144774E-05      0.10365870E-20      0.73355735E-09      0.46274927E-22
  166.000000000000         0.16147142E-05      0.10384502E-20      0.47367006E-09      0.37263492E-23
  167.000000000000         0.16148346E-05      0.10785130E-20      0.24086913E-09      0.80125719E-22
  168.000000000000         0.16149079E-05      0.10875337E-20      0.14655873E-09      0.18041412E-22
  169.000000000000         0.16150338E-05      0.11058554E-20      0.25169198E-09      0.36643230E-22
  170.000000000000         0.16152896E-05      0.11153167E-20      0.51167473E-09      0.18922711E-22
  171.000000000000         0.16156849E-05      0.11129582E-20      0.79066367E-09     -0.47171186E-23
  172.000000000000         0.16161578E-05      0.11339509E-20      0.94573601E-09      0.41985440E-22
  173.000000000000         0.16166165E-05      0.11326103E-20      0.91743280E-09     -0.26812494E-23
  174.000000000000         0.16169926E-05      0.11593800E-20      0.75214016E-09      0.53539428E-22
  175.000000000000         0.16172665E-05      0.11850949E-20      0.54788877E-09      0.51429881E-22
  176.000000000000         0.16174580E-05      0.11757409E-20      0.38284033E-09     -0.18707965E-22
  177.000000000000         0.16176021E-05      0.11859550E-20      0.28827279E-09      0.20428213E-22
  178.000000000000         0.16177369E-05      0.11913558E-20      0.26969212E-09      0.10801517E-22
  179.000000000000         0.16179000E-05      0.11953467E-20      0.32613022E-09      0.79818294E-23
  180.000000000000         0.16181196E-05      0.12031543E-20      0.43927751E-09      0.15615175E-22
  181.000000000000         0.16183966E-05      0.12010477E-20      0.55393275E-09     -0.42131917E-23
  182.000000000000         0.16186953E-05      0.11975654E-20      0.59743989E-09     -0.69646064E-23
  183.000000000000         0.16189632E-05      0.11946146E-20      0.53569073E-09     -0.59016250E-23
  184.000000000000         0.16191681E-05      0.12065693E-20      0.40978704E-09      0.23909437E-22
  185.000000000000         0.16193222E-05      0.12088600E-20      0.30819225E-09      0.45813900E-23
  186.000000000000         0.16194666E-05      0.11938102E-20      0.28894654E-09     -0.30099674E-22
  187.000000000000         0.16196319E-05      0.12179614E-20      0.33060975E-09      0.48302392E-22
  188.000000000000         0.16198118E-05      0.12409362E-20      0.35973663E-09      0.45949735E-22
  189.000000000000         0.16199749E-05      0.12607612E-20      0.32611444E-09      0.39649868E-22
  190.000000000000         0.16200989E-05      0.12507381E-20      0.24800393E-09     -0.20046133E-22
  191.000000000000         0.16201921E-05      0.12658655E-20      0.18637699E-09      0.30254836E-22
  192.000000000000         0.16202851E-05      0.12658018E-20      0.18601485E-09     -0.12745641E-24
  193.000000000000         0.16204078E-05      0.12544026E-20      0.24541606E-09     -0.22798276E-22
  194.000000000000         0.16205765E-05      0.12499666E-20      0.33740796E-09     -0.88721060E-23
