 #KVL flux sum: time, flux integral, flux
 
    0.000000000000         0.00000000E+00      0.00000000E+00      0.00000000E+00      0.00000000E+00
    1.000000000000         0.41679852E-19      0.83583872E-24      0.83359704E-19      0.16716774E-23
    2.000000000000         0.96848954E-19     -0.37645086E-24      0.11033820E-18     -0.24245792E-23
    3.000000000000         0.21813291E-16     -0.29229713E-23      0.43432885E-16     -0.50930409E-23
    4.000000000000         0.13585554E-14     -0.61495774E-23      0.26734843E-14     -0.64532122E-23
    5.000000000000         0.17765385E-13     -0.81996064E-23      0.32813659E-13     -0.41000580E-23
    6.000000000000         0.24118735E-12     -0.11919959E-22      0.44684394E-12     -0.74407048E-23
    7.000000000000         0.21074988E-11     -0.10761603E-22      0.37326228E-11      0.23167116E-23
    8.000000000000         0.14207661E-10     -0.10771022E-22      0.24200325E-10     -0.18838783E-25
    9.000000000000         0.80889595E-10     -0.14060054E-22      0.13336387E-09     -0.65780638E-23
   10.000000000000         0.38654764E-09     -0.17085988E-22      0.61131610E-09     -0.60518680E-23
   11.000000000000         0.15278375E-08     -0.98160928E-23      0.22825797E-08      0.14539791E-22
   12.000000000000         0.50109975E-08     -0.14624654E-22      0.69663201E-08     -0.96171216E-23
   13.000000000000         0.13820118E-07     -0.15211176E-22      0.17618240E-07     -0.11730438E-23
   14.000000000000         0.32501059E-07     -0.28451774E-22      0.37361883E-07     -0.26481197E-22
   15.000000000000         0.65893711E-07     -0.10619563E-22      0.66785304E-07      0.35664422E-22
   16.000000000000         0.11662063E-06     -0.10165738E-21      0.10145384E-06     -0.18207563E-21
   17.000000000000         0.18350625E-06     -0.27308353E-21      0.13377124E-06     -0.34285230E-21
   18.000000000000         0.26222111E-06     -0.42269414E-21      0.15742970E-06     -0.29922123E-21
   19.000000000000         0.34769198E-06     -0.65725081E-21      0.17094175E-06     -0.46911334E-21
   20.000000000000         0.43590935E-06     -0.56206512E-21      0.17643474E-06      0.19037138E-21
   21.000000000000         0.52454148E-06     -0.11020002E-21      0.17726426E-06      0.90373021E-21
   22.000000000000         0.61262290E-06     -0.16421753E-21      0.17616283E-06     -0.10803503E-21
   23.000000000000         0.69973368E-06     -0.10277861E-21      0.17422155E-06      0.12287785E-21
   24.000000000000         0.78530148E-06     -0.16154560E-22      0.17113560E-06      0.17324809E-21
   25.000000000000         0.86829852E-06      0.48032606E-22      0.16599409E-06      0.12837433E-21
   26.000000000000         0.94730687E-06     -0.88548227E-22      0.15801671E-06     -0.27316167E-21
   27.000000000000         0.10208414E-05      0.74825410E-22      0.14706914E-06      0.32674727E-21
   28.000000000000         0.10876609E-05     -0.82581613E-23      0.13363882E-06     -0.16616714E-21
   29.000000000000         0.11469537E-05      0.18589399E-21      0.11858575E-06      0.38830429E-21
   30.000000000000         0.11983837E-05      0.27323897E-21      0.10285998E-06      0.17468997E-21
   31.000000000000         0.12420289E-05      0.33315936E-21      0.87290423E-07      0.11984078E-21
   32.000000000000         0.12783613E-05      0.51948073E-21      0.72664720E-07      0.37264274E-21
   33.000000000000         0.13082958E-05      0.68372720E-21      0.59869096E-07      0.32849292E-21
   34.000000000000         0.13332059E-05      0.67077040E-21      0.49820153E-07     -0.25913590E-22
   35.000000000000         0.13547992E-05      0.69828666E-21      0.43186586E-07      0.55032519E-22
   36.000000000000         0.13747977E-05      0.69450670E-21      0.39996942E-07     -0.75599205E-23
   37.000000000000         0.13945334E-05      0.79191815E-21      0.39471486E-07      0.19482289E-21
   38.000000000000         0.14146532E-05      0.73819821E-21      0.40239521E-07     -0.10743987E-21
   39.000000000000         0.14350564E-05      0.79810211E-21      0.40806502E-07      0.11980780E-21
   40.000000000000         0.14550862E-05      0.84205511E-21      0.40059604E-07      0.87905991E-22
   41.000000000000         0.14738411E-05      0.89292792E-21      0.37509671E-07      0.10174562E-21
   42.000000000000         0.14904710E-05      0.88430089E-21      0.33259884E-07     -0.17254066E-22
   43.000000000000         0.15043971E-05      0.88145323E-21      0.27852257E-07     -0.56953183E-23
   44.000000000000         0.15154482E-05      0.78579571E-21      0.22102202E-07     -0.19131503E-21
   45.000000000000         0.15239334E-05      0.80109520E-21      0.16970246E-07      0.30598965E-22
   46.000000000000         0.15306102E-05      0.81301220E-21      0.13353670E-07      0.23834009E-22
   47.000000000000         0.15365042E-05      0.84890212E-21      0.11787987E-07      0.71779844E-22
   48.000000000000         0.15425993E-05      0.85601817E-21      0.12190143E-07      0.14232089E-22
   49.000000000000         0.15495102E-05      0.79478952E-21      0.13821835E-07     -0.12245729E-21
   50.000000000000         0.15572970E-05      0.72224222E-21      0.15573675E-07     -0.14509460E-21
   51.000000000000         0.15655064E-05      0.82134909E-21      0.16418846E-07      0.19821373E-21
   52.000000000000         0.15734053E-05      0.82209420E-21      0.15797636E-07      0.14902248E-23
   53.000000000000         0.15802774E-05      0.83523240E-21      0.13744216E-07      0.26276392E-22
   54.000000000000         0.15856571E-05      0.79445924E-21      0.10759367E-07     -0.81546315E-22
   55.000000000000         0.15894489E-05      0.77943378E-21      0.75835962E-08     -0.30050925E-22
   56.000000000000         0.15919353E-05      0.80259966E-21      0.49729206E-08      0.46331780E-22
   57.000000000000         0.15936940E-05      0.82424219E-21      0.35173579E-08      0.43285045E-22
   58.000000000000         0.15954298E-05      0.87157613E-21      0.34716737E-08      0.94667891E-22
   59.000000000000         0.15977459E-05      0.93076425E-21      0.46321347E-08      0.11837623E-21
   60.000000000000         0.16009271E-05      0.96732163E-21      0.63623309E-08      0.73114765E-22
   61.000000000000         0.16048356E-05      0.97604278E-21      0.78170332E-08      0.17442294E-22
   62.000000000000         0.16089850E-05      0.97916906E-21      0.82989243E-08      0.62525678E-23
   63.000000000000         0.16127605E-05      0.97185094E-21      0.75508356E-08     -0.14636243E-22
   64.000000000000         0.16156715E-05      0.10232693E-20      0.58220897E-08      0.10283671E-21
   65.000000000000         0.16175233E-05      0.10331482E-20      0.37035342E-08      0.19757765E-22
   66.000000000000         0.16184500E-05      0.10852591E-20      0.18534601E-08      0.10422186E-21
   67.000000000000         0.16188362E-05      0.11255853E-20      0.77243602E-09      0.80652417E-22
   68.000000000000         0.16191791E-05      0.11183008E-20      0.68576327E-09     -0.14569014E-22
   69.000000000000         0.16199335E-05      0.11436886E-20      0.15087021E-08      0.50775496E-22
   70.000000000000         0.16213691E-05      0.11233212E-20      0.28712636E-08     -0.40734791E-22
   71.000000000000         0.16234746E-05      0.11289195E-20      0.42110647E-08      0.11196619E-22
   72.000000000000         0.16259546E-05      0.11035410E-20      0.49598773E-08     -0.50756984E-22
   73.000000000000         0.16283423E-05      0.11119122E-20      0.47755734E-08      0.16742516E-22
   74.000000000000         0.16301933E-05      0.10962885E-20      0.37018546E-08     -0.31247550E-22
   75.000000000000         0.16312679E-05      0.11064795E-20      0.21492518E-08      0.20381995E-22
   76.000000000000         0.16316151E-05      0.10996424E-20      0.69441206E-09     -0.13674128E-22
   77.000000000000         0.16315251E-05      0.11016868E-20     -0.18004351E-09      0.40888119E-23
   78.000000000000         0.16313955E-05      0.11290495E-20     -0.25917495E-09      0.54725428E-22
   79.000000000000         0.16315843E-05      0.11461531E-20      0.37751257E-09      0.34207108E-22
   80.000000000000         0.16323014E-05      0.11100454E-20      0.14342021E-08     -0.72215352E-22
   81.000000000000         0.16335546E-05      0.11335258E-20      0.25064699E-08      0.46960780E-22
   82.000000000000         0.16351508E-05      0.11507205E-20      0.31923531E-08      0.34389456E-22
   83.000000000000         0.16367555E-05      0.11644624E-20      0.32094820E-08      0.27483838E-22
   84.000000000000         0.16380106E-05      0.11528700E-20      0.25101182E-08     -0.23184880E-22
   85.000000000000         0.16386774E-05      0.11550450E-20      0.13336287E-08      0.43499375E-23
   86.000000000000         0.16387406E-05      0.11589665E-20      0.12639759E-09      0.78430922E-23
   87.000000000000         0.16384127E-05      0.11835523E-20     -0.65583499E-09      0.49171666E-22
   88.000000000000         0.16380316E-05      0.11518760E-20     -0.76214302E-09     -0.63352702E-22
   89.000000000000         0.16379095E-05      0.11530717E-20     -0.24414249E-09      0.23913851E-23
   90.000000000000         0.16382142E-05      0.11282836E-20      0.60929938E-09     -0.49576214E-22
   91.000000000000         0.16389283E-05      0.11035503E-20      0.14282341E-08     -0.49466597E-22
   92.000000000000         0.16398821E-05      0.11069977E-20      0.19076337E-08      0.68949155E-23
   93.000000000000         0.16408221E-05      0.10733165E-20      0.18800394E-08     -0.67362417E-22
   94.000000000000         0.16414914E-05      0.10731202E-20      0.13385624E-08     -0.39271760E-24
   95.000000000000         0.16417131E-05      0.10421279E-20      0.44342235E-09     -0.61984577E-22
   96.000000000000         0.16414606E-05      0.10435502E-20     -0.50496171E-09      0.28446599E-23
   97.000000000000         0.16408810E-05      0.10299583E-20     -0.11592619E-08     -0.27183753E-22
   98.000000000000         0.16402400E-05      0.10452484E-20     -0.12820138E-08      0.30580213E-22
   99.000000000000         0.16398018E-05      0.10189363E-20     -0.87629382E-09     -0.52624311E-22
  100.000000000000         0.16397072E-05      0.10427488E-20     -0.18923946E-09      0.47625004E-22
  101.000000000000         0.16399217E-05      0.10485242E-20      0.42893088E-09      0.11550771E-22
  102.000000000000         0.16402770E-05      0.10530139E-20      0.71052959E-09      0.89793755E-23
  103.000000000000         0.16405629E-05      0.10590259E-20      0.57195956E-09      0.12024025E-22
  104.000000000000         0.16406095E-05      0.10851771E-20      0.93075291E-10      0.52302404E-22
  105.000000000000         0.16403266E-05      0.10578125E-20     -0.56567252E-09     -0.54729184E-22
  106.000000000000         0.16397161E-05      0.10615657E-20     -0.12210195E-08      0.75064819E-23
  107.000000000000         0.16388711E-05      0.10995775E-20     -0.16899673E-08      0.76023597E-22
  108.000000000000         0.16379576E-05      0.10949639E-20     -0.18271050E-08     -0.92271543E-23
  109.000000000000         0.16371592E-05      0.10856295E-20     -0.15967518E-08     -0.18668879E-22
  110.000000000000         0.16365957E-05      0.10990894E-20     -0.11269543E-08      0.26919771E-22
  111.000000000000         0.16362630E-05      0.10901112E-20     -0.66548100E-09     -0.17956326E-22
  112.000000000000         0.16360420E-05      0.11093330E-20     -0.44203656E-09      0.38443508E-22
  113.000000000000         0.16357728E-05      0.11542132E-20     -0.53842531E-09      0.89760389E-22
  114.000000000000         0.16353363E-05      0.11372360E-20     -0.87298599E-09     -0.33954266E-22
  115.000000000000         0.16346882E-05      0.11521949E-20     -0.12961291E-08      0.29917665E-22
  116.000000000000         0.16338419E-05      0.11688286E-20     -0.16925764E-08      0.33267471E-22
  117.000000000000         0.16328409E-05      0.11827509E-20     -0.20020241E-08      0.27844674E-22
  118.000000000000         0.16317536E-05      0.12046726E-20     -0.21747093E-08      0.43843345E-22
  119.000000000000         0.16306774E-05      0.12300973E-20     -0.21522413E-08      0.50849321E-22
  120.000000000000         0.16297184E-05      0.12560400E-20     -0.19181398E-08      0.51885535E-22
  121.000000000000         0.16289394E-05      0.12328655E-20     -0.15579865E-08     -0.46349127E-22
  122.000000000000         0.16283196E-05      0.12486784E-20     -0.12395273E-08      0.31625906E-22
  123.000000000000         0.16277646E-05      0.12343006E-20     -0.11099674E-08     -0.28755737E-22
  124.000000000000         0.16271635E-05      0.12532822E-20     -0.12023227E-08      0.37963332E-22
  125.000000000000         0.16264434E-05      0.12146621E-20     -0.14400497E-08     -0.77240268E-22
  126.000000000000         0.16255832E-05      0.12679842E-20     -0.17204089E-08      0.10664427E-21
  127.000000000000         0.16245941E-05      0.12575960E-20     -0.19782647E-08     -0.20776399E-22
  128.000000000000         0.16235079E-05      0.12636349E-20     -0.21724086E-08      0.12077741E-22
  129.000000000000         0.16223889E-05      0.12562486E-20     -0.22380156E-08     -0.14772551E-22
  130.000000000000         0.16213407E-05      0.12330109E-20     -0.20963072E-08     -0.46475436E-22
  131.000000000000         0.16204739E-05      0.12491041E-20     -0.17336388E-08      0.32186281E-22
  132.000000000000         0.16198408E-05      0.12476028E-20     -0.12661566E-08     -0.30024203E-23
  133.000000000000         0.16193919E-05      0.12351865E-20     -0.89785052E-09     -0.24832646E-22
  134.000000000000         0.16189970E-05      0.12548043E-20     -0.78976066E-09      0.39235479E-22
  135.000000000000         0.16185185E-05      0.12627408E-20     -0.95706369E-09      0.15873167E-22
  136.000000000000         0.16178800E-05      0.12843610E-20     -0.12769121E-08      0.43240259E-22
  137.000000000000         0.16170864E-05      0.12908252E-20     -0.15872294E-08      0.12928550E-22
  138.000000000000         0.16162014E-05      0.12363858E-20     -0.17701440E-08     -0.10887881E-21
  139.000000000000         0.16153196E-05      0.12171573E-20     -0.17635113E-08     -0.38457009E-22
  140.000000000000         0.16145497E-05      0.12028078E-20     -0.15398830E-08     -0.28699045E-22
  141.000000000000         0.16139921E-05      0.11713459E-20     -0.11151405E-08     -0.62923737E-22
  142.000000000000         0.16136969E-05      0.11478620E-20     -0.59044497E-09     -0.46967819E-22
  143.000000000000         0.16136209E-05      0.11399743E-20     -0.15195840E-09     -0.15775548E-22
  144.000000000000         0.16136288E-05      0.11530359E-20      0.15788271E-10      0.26123212E-22
  145.000000000000         0.16135559E-05      0.11234379E-20     -0.14573408E-09     -0.59196005E-22
  146.000000000000         0.16132972E-05      0.11138648E-20     -0.51735368E-09     -0.19146187E-22
  147.000000000000         0.16128590E-05      0.10947346E-20     -0.87652727E-09     -0.38260348E-22
  148.000000000000         0.16123421E-05      0.10932769E-20     -0.10336852E-08     -0.29153664E-23
  149.000000000000         0.16118803E-05      0.11017247E-20     -0.92363518E-09      0.16895622E-22
  150.000000000000         0.16115818E-05      0.10688279E-20     -0.59708910E-09     -0.65793610E-22
  151.000000000000         0.16115022E-05      0.10526279E-20     -0.15918785E-09     -0.32400044E-22
  152.000000000000         0.16116397E-05      0.10539442E-20      0.27504422E-09      0.26325710E-23
  153.000000000000         0.16119346E-05      0.10577370E-20      0.58987875E-09      0.75855958E-23
  154.000000000000         0.16122765E-05      0.10565831E-20      0.68370136E-09     -0.23077789E-23
  155.000000000000         0.16125372E-05      0.10567008E-20      0.52135432E-09      0.23546279E-24
  156.000000000000         0.16126296E-05      0.10784392E-20      0.18482128E-09      0.43476712E-22
  157.000000000000         0.16125582E-05      0.10853303E-20     -0.14280336E-09      0.13782165E-22
  158.000000000000         0.16124200E-05      0.11013162E-20     -0.27641128E-09      0.31971782E-22
  159.000000000000         0.16123497E-05      0.11205987E-20     -0.14044414E-09      0.38565159E-22
  160.000000000000         0.16124472E-05      0.11101170E-20      0.19482453E-09     -0.20963413E-22
  161.000000000000         0.16127343E-05      0.10973667E-20      0.57422998E-09     -0.25500590E-22
  162.000000000000         0.16131628E-05      0.11021288E-20      0.85707784E-09      0.95241682E-23
  163.000000000000         0.16136498E-05      0.11006345E-20      0.97400308E-09     -0.29886179E-23
  164.000000000000         0.16141106E-05      0.11265230E-20      0.92155208E-09      0.51777050E-22
  165.000000000000         0.16144774E-05      0.11227155E-20      0.73355735E-09     -0.76149895E-23
  166.000000000000         0.16147142E-05      0.11218133E-20      0.47367006E-09     -0.18044850E-23
  167.000000000000         0.16148346E-05      0.10929630E-20      0.24086913E-09     -0.57700496E-22
  168.000000000000         0.16149079E-05      0.11008807E-20      0.14655873E-09      0.15835331E-22
  169.000000000000         0.16150338E-05      0.10842565E-20      0.25169198E-09     -0.33248524E-22
  170.000000000000         0.16152896E-05      0.10860115E-20      0.51167473E-09      0.35101278E-23
  171.000000000000         0.16156849E-05      0.11106699E-20      0.79066366E-09      0.49316738E-22
  172.000000000000         0.16161578E-05      0.11086840E-20      0.94573602E-09     -0.39716943E-23
  173.000000000000         0.16166165E-05      0.11300797E-20      0.91743280E-09      0.42791419E-22
  174.000000000000         0.16169926E-05      0.11536954E-20      0.75214016E-09      0.47231350E-22
  175.000000000000         0.16172665E-05      0.11701306E-20      0.54788877E-09      0.32870382E-22
  176.000000000000         0.16174580E-05      0.11564181E-20      0.38284033E-09     -0.27425005E-22
  177.000000000000         0.16176021E-05      0.11923531E-20      0.28827279E-09      0.71870066E-22
  178.000000000000         0.16177369E-05      0.11832306E-20      0.26969212E-09     -0.18245117E-22
  179.000000000000         0.16179000E-05      0.11798580E-20      0.32613022E-09     -0.67452547E-23
  180.000000000000         0.16181196E-05      0.12107075E-20      0.43927751E-09      0.61699078E-22
  181.000000000000         0.16183966E-05      0.12059462E-20      0.55393275E-09     -0.95225831E-23
  182.000000000000         0.16186953E-05      0.11879496E-20      0.59743989E-09     -0.35993229E-22
  183.000000000000         0.16189632E-05      0.11923109E-20      0.53569073E-09      0.87226084E-23
  184.000000000000         0.16191681E-05      0.11704490E-20      0.40978704E-09     -0.43723868E-22
  185.000000000000         0.16193222E-05      0.11725188E-20      0.30819225E-09      0.41397490E-23
  186.000000000000         0.16194666E-05      0.11654234E-20      0.28894654E-09     -0.14190834E-22
  187.000000000000         0.16196319E-05      0.11618154E-20      0.33060975E-09     -0.72160938E-23
  188.000000000000         0.16198118E-05      0.11830518E-20      0.35973663E-09      0.42472868E-22
  189.000000000000         0.16199749E-05      0.11684607E-20      0.32611444E-09     -0.29182146E-22
  190.000000000000         0.16200989E-05      0.11847113E-20      0.24800393E-09      0.32501042E-22
  191.000000000000         0.16201921E-05      0.11839062E-20      0.18637699E-09     -0.16101757E-23
  192.000000000000         0.16202851E-05      0.11701507E-20      0.18601485E-09     -0.27510925E-22
  193.000000000000         0.16204078E-05      0.11856826E-20      0.24541606E-09      0.31063802E-22
  194.000000000000         0.16205765E-05      0.12065073E-20      0.33740796E-09      0.41649491E-22
