 #KVL flux sum: time, flux integral, flux
 
    0.000000000000         0.00000000E+00      0.00000000E+00      0.00000000E+00      0.00000000E+00
    1.000000000000         0.45900691E-19      0.51133915E-23      0.91801382E-19      0.10226783E-22
    2.000000000000         0.12393859E-17     -0.51422928E-24      0.23869704E-17     -0.11255241E-22
    3.000000000000         0.92145587E-17      0.19957454E-24      0.15950346E-16      0.14276076E-23
    4.000000000000         0.77059272E-15     -0.45083805E-23      0.15227563E-14     -0.94159101E-23
    5.000000000000         0.32635075E-13     -0.23513738E-23      0.63728964E-13      0.43140134E-23
    6.000000000000         0.78871827E-12     -0.13225209E-23      0.15121664E-11      0.20577058E-23
    7.000000000000         0.10356064E-10     -0.51302305E-25      0.19134691E-10      0.25424372E-23
    8.000000000000         0.86708536E-10     -0.28511485E-23      0.15270494E-09     -0.55996923E-23
    9.000000000000         0.51721019E-09     -0.28750232E-23      0.86100331E-09     -0.47749532E-25
   10.000000000000         0.23617425E-08     -0.38450996E-23      0.36890645E-08     -0.19401527E-23
   11.000000000000         0.86520392E-08      0.13077758E-22      0.12580593E-07      0.33845714E-22
   12.000000000000         0.26218784E-07      0.33386732E-22      0.35133489E-07      0.40617948E-22
   13.000000000000         0.67138722E-07      0.70668216E-23      0.81839877E-07     -0.52639820E-22
   14.000000000000         0.14745829E-06     -0.89941709E-22      0.16063913E-06     -0.19401706E-21
   15.000000000000         0.28129368E-06     -0.57051619E-22      0.26767078E-06      0.65780180E-22
   16.000000000000         0.46627507E-06     -0.61612297E-22      0.36996278E-06     -0.91213555E-23
   17.000000000000         0.68218539E-06      0.14413092E-21      0.43182063E-06      0.41148644E-21
   18.000000000000         0.90660495E-06      0.23429736E-21      0.44883913E-06      0.18033288E-21
   19.000000000000         0.11242557E-05      0.43954193E-21      0.43530148E-06      0.41048912E-21
   20.000000000000         0.13271016E-05      0.52172297E-21      0.40569175E-06      0.16436209E-21
   21.000000000000         0.15111409E-05      0.83577758E-21      0.36807861E-06      0.62810921E-21
   22.000000000000         0.16737554E-05      0.92275313E-21      0.32522898E-06      0.17395111E-21
   23.000000000000         0.18128325E-05      0.61415864E-21      0.27815420E-06     -0.61718899E-21
   24.000000000000         0.19274416E-05      0.40597976E-21      0.22921838E-06     -0.41635777E-21
   25.000000000000         0.20190695E-05      0.23155775E-21      0.18325570E-06     -0.34884400E-21
   26.000000000000         0.20921630E-05      0.32199228E-21      0.14618694E-06      0.18086905E-21
   27.000000000000         0.21532037E-05      0.21125612E-21      0.12208146E-06     -0.22147232E-21
   28.000000000000         0.22084874E-05      0.24494537E-21      0.11056743E-06      0.67378500E-22
   29.000000000000         0.22617267E-05      0.17529500E-21      0.10647866E-06     -0.13930073E-21
   30.000000000000         0.23129298E-05      0.35791494E-22      0.10240621E-06     -0.27900702E-21
   31.000000000000         0.23593441E-05      0.12452844E-21      0.92828495E-07      0.17747390E-21
   32.000000000000         0.23979607E-05      0.11328115E-21      0.77233246E-07     -0.22494593E-22
   33.000000000000         0.24279914E-05      0.41536978E-22      0.60061374E-07     -0.14348834E-21
   34.000000000000         0.24516771E-05      0.58544281E-22      0.47371313E-07      0.34014606E-22
   35.000000000000         0.24729284E-05     -0.17290553E-22      0.42502742E-07     -0.15166967E-21
   36.000000000000         0.24948237E-05      0.83302785E-22      0.43790632E-07      0.20118668E-21
   37.000000000000         0.25177992E-05      0.56613303E-22      0.45950894E-07     -0.53378964E-22
   38.000000000000         0.25398151E-05      0.31488517E-22      0.44031730E-07     -0.50249572E-22
   39.000000000000         0.25582727E-05      0.40063668E-22      0.36915207E-07      0.17150300E-22
   40.000000000000         0.25721598E-05      0.51104607E-22      0.27774183E-07      0.22081880E-22
   41.000000000000         0.25828073E-05      0.84084817E-22      0.21295152E-07      0.65960419E-22
   42.000000000000         0.25927910E-05      0.91317818E-22      0.19967432E-07      0.14466002E-22
   43.000000000000         0.26039680E-05      0.89534631E-22      0.22353809E-07     -0.35663737E-23
   44.000000000000         0.26162300E-05      0.95298054E-22      0.24524141E-07      0.11526845E-22
   45.000000000000         0.26278780E-05      0.35873545E-22      0.23296018E-07     -0.11884902E-21
   46.000000000000         0.26371762E-05      0.40975587E-22      0.18596323E-07      0.10204083E-22
   47.000000000000         0.26437652E-05      0.71763141E-22      0.13178090E-07      0.61575109E-22
   48.000000000000         0.26488474E-05      0.10539888E-21      0.10164374E-07      0.67271468E-22
   49.000000000000         0.26541281E-05      0.81294838E-22      0.10561442E-07     -0.48208075E-22
   50.000000000000         0.26604771E-05      0.63419797E-22      0.12697872E-07     -0.35750081E-22
   51.000000000000         0.26673879E-05      0.77336129E-22      0.13821718E-07      0.27832663E-22
   52.000000000000         0.26735691E-05      0.11529538E-21      0.12362419E-07      0.75918494E-22
   53.000000000000         0.26780761E-05      0.11020791E-21      0.90138736E-08     -0.10174933E-22
   54.000000000000         0.26810400E-05      0.89256993E-22      0.59277561E-08     -0.41901833E-22
   55.000000000000         0.26834738E-05      0.82430498E-22      0.48675824E-08     -0.13652989E-22
   56.000000000000         0.26864135E-05      0.55883188E-22      0.58794152E-08     -0.53094621E-22
   57.000000000000         0.26901352E-05      0.64463589E-22      0.74435661E-08      0.17160801E-22
   58.000000000000         0.26940444E-05      0.61885331E-22      0.78182334E-08     -0.51565153E-23
   59.000000000000         0.26972479E-05      0.51317957E-22      0.64070403E-08     -0.21134748E-22
   60.000000000000         0.26992993E-05      0.27895697E-22      0.41027936E-08     -0.46844520E-22
   61.000000000000         0.27005244E-05      0.51446612E-24      0.24502636E-08     -0.54762462E-22
   62.000000000000         0.27017164E-05      0.11102486E-22      0.23839059E-08      0.21176040E-22
   63.000000000000         0.27034903E-05     -0.30409074E-22      0.35477784E-08     -0.83023120E-22
   64.000000000000         0.27058258E-05     -0.50934621E-23      0.46710141E-08      0.50631223E-22
   65.000000000000         0.27081413E-05      0.13387126E-23      0.46311711E-08      0.12864349E-22
   66.000000000000         0.27098064E-05      0.73812279E-23      0.33301950E-08      0.12085031E-22
   67.000000000000         0.27106590E-05     -0.10353610E-22      0.17051482E-08     -0.35469676E-22
   68.000000000000         0.27111159E-05     -0.82334121E-23      0.91378638E-09      0.42403958E-23
   69.000000000000         0.27118091E-05     -0.15869530E-22      0.13863693E-08     -0.15272236E-22
   70.000000000000         0.27130667E-05      0.13327201E-22      0.25151946E-08      0.58393463E-22
   71.000000000000         0.27146690E-05      0.18805061E-23      0.32046929E-08     -0.22893390E-22
   72.000000000000         0.27160664E-05      0.95495642E-23      0.27947181E-08      0.15338116E-22
   73.000000000000         0.27168557E-05      0.22499522E-22      0.15785416E-08      0.25899916E-22
   74.000000000000         0.27171076E-05      0.27209910E-22      0.50390697E-09      0.94207759E-23
   75.000000000000         0.27172818E-05      0.13376845E-22      0.34832982E-09     -0.27666131E-22
   76.000000000000         0.27178241E-05     -0.36903896E-23      0.10845730E-08     -0.34134469E-22
   77.000000000000         0.27188024E-05     -0.40048058E-23      0.19567431E-08     -0.62883236E-24
   78.000000000000         0.27198814E-05     -0.44270372E-23      0.21579646E-08     -0.84446276E-24
   79.000000000000         0.27206320E-05      0.55069731E-23      0.15011919E-08      0.19868021E-22
   80.000000000000         0.27208944E-05      0.78325652E-23      0.52481228E-09      0.46511841E-23
   81.000000000000         0.27208894E-05      0.52769825E-23     -0.10123889E-10     -0.51111653E-23
   82.000000000000         0.27210081E-05      0.17420244E-22      0.23756034E-09      0.24286524E-22
   83.000000000000         0.27214824E-05      0.12655857E-22      0.94849875E-09     -0.95287737E-23
   84.000000000000         0.27222136E-05      0.13851132E-22      0.14624463E-08      0.23905485E-23
   85.000000000000         0.27228850E-05      0.76639301E-23      0.13428378E-08     -0.12374403E-22
   86.000000000000         0.27232369E-05      0.10831672E-22      0.70373981E-09      0.63354841E-23
   87.000000000000         0.27232692E-05      0.50811926E-23      0.64624296E-10     -0.11500959E-22
   88.000000000000         0.27232197E-05      0.58600556E-23     -0.99006463E-10      0.15577260E-23
   89.000000000000         0.27233586E-05      0.70246022E-23      0.27782138E-09      0.23290931E-23
   90.000000000000         0.27237782E-05      0.15583887E-22      0.83905309E-09      0.17118569E-22
   91.000000000000         0.27243377E-05      0.16372235E-22      0.11190277E-08      0.15766965E-23
   92.000000000000         0.27247906E-05      0.17923216E-22      0.90584138E-09      0.31019622E-23
   93.000000000000         0.27249811E-05      0.21529006E-22      0.38096884E-09      0.72115804E-23
   94.000000000000         0.27249584E-05      0.12695511E-22     -0.45438360E-10     -0.17666991E-22
   95.000000000000         0.27249296E-05      0.48583840E-22     -0.57597282E-10      0.71776659E-22
   96.000000000000         0.27250944E-05      0.45139872E-22      0.32970182E-09     -0.68879356E-23
   97.000000000000         0.27254902E-05      0.43733710E-22      0.79163971E-09     -0.28123236E-23
   98.000000000000         0.27259647E-05      0.43240734E-22      0.94904082E-09     -0.98595285E-24
   99.000000000000         0.27262972E-05      0.35216433E-22      0.66490932E-09     -0.16048602E-22
  100.000000000000         0.27263749E-05      0.51620321E-22      0.15536362E-09      0.32807775E-22
  101.000000000000         0.27262856E-05      0.35262683E-22     -0.17859534E-09     -0.32715276E-22
  102.000000000000         0.27262481E-05      0.24046288E-22     -0.74989526E-10     -0.22432790E-22
  103.000000000000         0.27264313E-05      0.28339368E-22      0.36639780E-09      0.85861611E-23
  104.000000000000         0.27268093E-05      0.20319081E-22      0.75605553E-09     -0.16040574E-22
  105.000000000000         0.27271782E-05      0.26268082E-22      0.73786067E-09      0.11898001E-22
  106.000000000000         0.27273272E-05      0.24236577E-22      0.29780658E-09     -0.40630089E-23
  107.000000000000         0.27272200E-05      0.34615638E-22     -0.21423801E-09      0.20758121E-22
  108.000000000000         0.27270288E-05      0.27335169E-22     -0.38242225E-09     -0.14560936E-22
  109.000000000000         0.27269838E-05      0.27855366E-22     -0.90025321E-10      0.10403942E-23
  110.000000000000         0.27271713E-05      0.27109276E-22      0.37490796E-09     -0.14921807E-23
  111.000000000000         0.27274576E-05      0.29430747E-22      0.57259184E-09      0.46429421E-23
  112.000000000000         0.27276081E-05      0.22088510E-22      0.30110796E-09     -0.14684475E-22
  113.000000000000         0.27274937E-05      0.17470217E-22     -0.22880067E-09     -0.92365859E-23
  114.000000000000         0.27271998E-05      0.30879233E-22     -0.58790846E-09      0.26818034E-22
  115.000000000000         0.27269441E-05      0.11050752E-22     -0.51128479E-09     -0.39656962E-22
  116.000000000000         0.27268831E-05      0.14096448E-22     -0.12194887E-09      0.60913916E-23
  117.000000000000         0.27269809E-05      0.15399594E-22      0.19558108E-09      0.26062925E-23
  118.000000000000         0.27270513E-05      0.49399158E-23      0.14071420E-09     -0.20919357E-22
  119.000000000000         0.27269237E-05      0.10977261E-22     -0.25517687E-09      0.12074690E-22
  120.000000000000         0.27265828E-05      0.48890203E-23     -0.68172107E-09     -0.12176481E-22
  121.000000000000         0.27261680E-05      0.10249531E-22     -0.82968968E-09      0.10721021E-22
  122.000000000000         0.27258477E-05     -0.79382304E-24     -0.64050138E-09     -0.22086707E-22
  123.000000000000         0.27256834E-05      0.23390829E-23     -0.32866038E-09      0.62658119E-23
  124.000000000000         0.27255895E-05     -0.11139289E-22     -0.18778766E-09     -0.26956743E-22
  125.000000000000         0.27254103E-05     -0.11473551E-22     -0.35847840E-09     -0.66852469E-24
  126.000000000000         0.27250437E-05     -0.69435030E-23     -0.73310879E-09      0.90600961E-23
  127.000000000000         0.27245181E-05     -0.39085293E-23     -0.10512519E-08      0.60699473E-23
  128.000000000000         0.27239676E-05      0.14304986E-22     -0.11009097E-08      0.36427031E-22
  129.000000000000         0.27235276E-05      0.27263149E-22     -0.88012620E-09      0.25916324E-22
  130.000000000000         0.27232261E-05      0.17888526E-22     -0.60305025E-09     -0.18749245E-22
  131.000000000000         0.27229570E-05      0.26247497E-22     -0.53815036E-09      0.16717941E-22
  132.000000000000         0.27225626E-05      0.35746182E-22     -0.78873760E-09      0.18997371E-22
  133.000000000000         0.27219671E-05      0.33389815E-22     -0.11910511E-08     -0.47127337E-23
  134.000000000000         0.27212501E-05      0.12334024E-22     -0.14339598E-08     -0.42111582E-22
  135.000000000000         0.27205874E-05      0.42594948E-22     -0.13254635E-08      0.60521847E-22
  136.000000000000         0.27200987E-05      0.64128331E-22     -0.97731960E-09      0.43066766E-22
  137.000000000000         0.27197366E-05      0.67939670E-22     -0.72425675E-09      0.76226779E-23
  138.000000000000         0.27193239E-05      0.58035571E-22     -0.82531578E-09     -0.19808199E-22
  139.000000000000         0.27187153E-05      0.48854762E-22     -0.12173368E-08     -0.18361618E-22
  140.000000000000         0.27179339E-05      0.52657139E-22     -0.15627175E-08      0.76047550E-23
  141.000000000000         0.27171535E-05      0.50775200E-22     -0.15607574E-08     -0.37638792E-23
  142.000000000000         0.27165388E-05      0.43722132E-22     -0.12293565E-08     -0.14106136E-22
  143.000000000000         0.27160962E-05      0.21432449E-22     -0.88533895E-09     -0.44579366E-22
  144.000000000000         0.27156751E-05      0.23957553E-22     -0.84218832E-09      0.50502088E-23
  145.000000000000         0.27151145E-05      0.27873830E-22     -0.11210697E-08      0.78325528E-23
  146.000000000000         0.27143908E-05      0.46105685E-22     -0.14475886E-08      0.36463710E-22
  147.000000000000         0.27136291E-05      0.49121221E-22     -0.15232210E-08      0.60310722E-23
  148.000000000000         0.27129810E-05      0.48185813E-22     -0.12963033E-08     -0.18708150E-23
  149.000000000000         0.27124901E-05      0.75582093E-22     -0.98185879E-09      0.54792559E-22
  150.000000000000         0.27120704E-05      0.44435446E-22     -0.83938843E-09     -0.62293294E-22
  151.000000000000         0.27115990E-05      0.41682680E-22     -0.94267024E-09     -0.55055326E-23
  152.000000000000         0.27110250E-05      0.47386628E-22     -0.11481530E-08      0.11407898E-22
  153.000000000000         0.27103984E-05      0.55832266E-22     -0.12530960E-08      0.16891276E-22
  154.000000000000         0.27098144E-05      0.12863232E-22     -0.11681102E-08     -0.85938068E-22
  155.000000000000         0.27093342E-05     -0.18596210E-23     -0.96031776E-09     -0.29445707E-22
  156.000000000000         0.27089500E-05     -0.39543763E-23     -0.76841095E-09     -0.41895107E-23
  157.000000000000         0.27086030E-05      0.20507817E-22     -0.69398587E-09      0.48924387E-22
  158.000000000000         0.27082300E-05      0.16290584E-22     -0.74605054E-09     -0.84344659E-23
  159.000000000000         0.27078049E-05      0.13936376E-22     -0.85011657E-09     -0.47084171E-23
  160.000000000000         0.27073570E-05     -0.23111881E-23     -0.89579390E-09     -0.32495127E-22
  161.000000000000         0.27069547E-05      0.35255465E-23     -0.80463225E-09      0.11673469E-22
  162.000000000000         0.27066587E-05      0.11516738E-22     -0.59191009E-09      0.15982382E-22
  163.000000000000         0.27064718E-05     -0.20472728E-23     -0.37390763E-09     -0.27128021E-22
  164.000000000000         0.27063278E-05     -0.20013865E-22     -0.28806194E-09     -0.35933185E-22
  165.000000000000         0.27061421E-05      0.25985451E-24     -0.37131628E-09      0.40547440E-22
  166.000000000000         0.27058883E-05      0.26390833E-22     -0.50768341E-09      0.52261956E-22
  167.000000000000         0.27056291E-05      0.20837345E-22     -0.51824742E-09     -0.11106975E-22
  168.000000000000         0.27054657E-05      0.14100636E-22     -0.32688309E-09     -0.13473419E-22
  169.000000000000         0.27054437E-05      0.28686035E-22     -0.43953999E-10      0.29170798E-22
  170.000000000000         0.27055083E-05      0.40138514E-22      0.12910543E-09      0.22904958E-22
  171.000000000000         0.27055534E-05      0.38032096E-22      0.90210071E-10     -0.42128357E-23
  172.000000000000         0.27055214E-05      0.32234008E-22     -0.64015540E-10     -0.11596176E-22
  173.000000000000         0.27054552E-05      0.42747725E-22     -0.13227228E-09      0.21027435E-22
  174.000000000000         0.27054538E-05      0.47326484E-22     -0.27644275E-11      0.91575173E-23
  175.000000000000         0.27055764E-05      0.31300843E-22      0.24510895E-09     -0.32051283E-22
  176.000000000000         0.27057903E-05      0.35271544E-22      0.42770008E-09      0.79414030E-23
  177.000000000000         0.27060083E-05      0.34427960E-22      0.43617436E-09     -0.16871682E-23
  178.000000000000         0.27061730E-05      0.38385409E-22      0.32924344E-09      0.79148973E-23
  179.000000000000         0.27063023E-05      0.35409936E-22      0.25868173E-09     -0.59509456E-23
  180.000000000000         0.27064618E-05      0.42494757E-22      0.31902695E-09      0.14169643E-22
  181.000000000000         0.27066977E-05      0.23053746E-22      0.47168959E-09     -0.38882023E-22
  182.000000000000         0.27069994E-05      0.16864550E-22      0.60349411E-09     -0.12378392E-22
  183.000000000000         0.27073196E-05      0.24259981E-22      0.64041676E-09      0.14790861E-22
  184.000000000000         0.27076203E-05      0.21360196E-22      0.60131771E-09     -0.57995695E-23
  185.000000000000         0.27078985E-05      0.20638566E-22      0.55651816E-09     -0.14432587E-23
  186.000000000000         0.27081763E-05      0.14400531E-22      0.55556819E-09     -0.12476072E-22
  187.000000000000         0.27084754E-05      0.18210178E-22      0.59820521E-09      0.76192953E-23
  188.000000000000         0.27088046E-05      0.22149723E-22      0.65827810E-09      0.78790893E-23
  189.000000000000         0.27091611E-05      0.16010580E-22      0.71311984E-09     -0.12278285E-22
  190.000000000000         0.27095347E-05      0.76245709E-23      0.74723782E-09     -0.16772019E-22
  191.000000000000         0.27099069E-05     -0.85739320E-23      0.74438511E-09     -0.32397006E-22
  192.000000000000         0.27102562E-05     -0.13038941E-22      0.69850612E-09     -0.89300188E-23
  193.000000000000         0.27105741E-05     -0.17730141E-22      0.63586880E-09     -0.93823990E-23
  194.000000000000         0.27108796E-05     -0.34317513E-23      0.61093365E-09      0.28596779E-22
