 #KVL flux sum: time, flux integral, flux
 
    0.000000000000         0.94932273E-17     -0.18179625E-24      0.18986455E-16     -0.36359250E-24
    1.000000000000         0.19032299E-16     -0.65989498E-23      0.19078143E-16     -0.12834307E-22
    2.000000000000         0.29718988E-16     -0.39246672E-23      0.21373379E-16      0.53485652E-23
    3.000000000000         0.47187751E-16     -0.10982653E-22      0.34937525E-16     -0.14115973E-22
    4.000000000000         0.81805851E-15     -0.15566480E-22      0.15417415E-14     -0.91676532E-23
    5.000000000000         0.32692034E-13     -0.76402667E-23      0.63747952E-13      0.15852427E-22
    6.000000000000         0.78878472E-12     -0.92752986E-23      0.15121854E-11     -0.32700639E-23
    7.000000000000         0.10356140E-10     -0.13330815E-22      0.19134710E-10     -0.81110319E-23
    8.000000000000         0.86708622E-10     -0.20982730E-22      0.15270496E-09     -0.15303831E-22
    9.000000000000         0.51721029E-09     -0.19879567E-22      0.86100333E-09      0.22063256E-23
   10.000000000000         0.23617426E-08     -0.24779704E-22      0.36890645E-08     -0.98002730E-23
   11.000000000000         0.86520393E-08     -0.31219744E-22      0.12580593E-07     -0.12880079E-22
   12.000000000000         0.26218784E-07     -0.16264848E-22      0.35133489E-07      0.29909791E-22
   13.000000000000         0.67138722E-07      0.13609251E-22      0.81839877E-07      0.59748199E-22
   14.000000000000         0.14745829E-06     -0.74930604E-22      0.16063913E-06     -0.17707971E-21
   15.000000000000         0.28129368E-06      0.12372374E-21      0.26767078E-06      0.39730870E-21
   16.000000000000         0.46627507E-06      0.17160311E-21      0.36996278E-06      0.95758727E-22
   17.000000000000         0.68218539E-06      0.10239726E-21      0.43182063E-06     -0.13841169E-21
   18.000000000000         0.90660495E-06      0.32720172E-21      0.44883913E-06      0.44960891E-21
   19.000000000000         0.11242557E-05      0.45867717E-22      0.43530148E-06     -0.56266800E-21
   20.000000000000         0.13271016E-05      0.25250146E-21      0.40569175E-06      0.41326749E-21
   21.000000000000         0.15111409E-05      0.34763188E-21      0.36807861E-06      0.19026083E-21
   22.000000000000         0.16737554E-05      0.47042054E-21      0.32522898E-06      0.24557732E-21
   23.000000000000         0.18128325E-05      0.49439424E-21      0.27815420E-06      0.47947395E-22
   24.000000000000         0.19274416E-05      0.44475865E-21      0.22921838E-06     -0.99271165E-22
   25.000000000000         0.20190695E-05      0.64707177E-21      0.18325570E-06      0.40462622E-21
   26.000000000000         0.20921630E-05      0.69548728E-21      0.14618694E-06      0.96831023E-22
   27.000000000000         0.21532037E-05      0.83935410E-21      0.12208146E-06      0.28773365E-21
   28.000000000000         0.22084874E-05      0.85070804E-21      0.11056743E-06      0.22707885E-22
   29.000000000000         0.22617267E-05      0.10043463E-20      0.10647866E-06      0.30727659E-21
   30.000000000000         0.23129298E-05      0.94011383E-21      0.10240621E-06     -0.12846503E-21
   31.000000000000         0.23593441E-05      0.99627365E-21      0.92828495E-07      0.11231966E-21
   32.000000000000         0.23979607E-05      0.97204954E-21      0.77233246E-07     -0.48448227E-22
   33.000000000000         0.24279914E-05      0.96720197E-21      0.60061374E-07     -0.96951384E-23
   34.000000000000         0.24516771E-05      0.97374833E-21      0.47371313E-07      0.13092718E-22
   35.000000000000         0.24729284E-05      0.10066065E-20      0.42502742E-07      0.65716430E-22
   36.000000000000         0.24948237E-05      0.11758441E-20      0.43790632E-07      0.33847520E-21
   37.000000000000         0.25177992E-05      0.11456731E-20      0.45950894E-07     -0.60342179E-22
   38.000000000000         0.25398151E-05      0.12266568E-20      0.44031730E-07      0.16196746E-21
   39.000000000000         0.25582727E-05      0.12345429E-20      0.36915207E-07      0.15772169E-22
   40.000000000000         0.25721598E-05      0.12462716E-20      0.27774183E-07      0.23457517E-22
   41.000000000000         0.25828073E-05      0.13365498E-20      0.21295152E-07      0.18055640E-21
   42.000000000000         0.25927910E-05      0.13672767E-20      0.19967432E-07      0.61453703E-22
   43.000000000000         0.26039680E-05      0.14157330E-20      0.22353809E-07      0.96912610E-22
   44.000000000000         0.26162300E-05      0.14156861E-20      0.24524141E-07     -0.93704054E-25
   45.000000000000         0.26278780E-05      0.14903897E-20      0.23296018E-07      0.14940707E-21
   46.000000000000         0.26371762E-05      0.15100784E-20      0.18596323E-07      0.39377513E-22
   47.000000000000         0.26437652E-05      0.15356061E-20      0.13178090E-07      0.51055381E-22
   48.000000000000         0.26488474E-05      0.15438005E-20      0.10164374E-07      0.16388718E-22
   49.000000000000         0.26541281E-05      0.15175564E-20      0.10561442E-07     -0.52488205E-22
   50.000000000000         0.26604771E-05      0.15303130E-20      0.12697872E-07      0.25513352E-22
   51.000000000000         0.26673879E-05      0.15306758E-20      0.13821718E-07      0.72560057E-24
   52.000000000000         0.26735691E-05      0.14977217E-20      0.12362419E-07     -0.65908281E-22
   53.000000000000         0.26780761E-05      0.15327829E-20      0.90138736E-08      0.70122338E-22
   54.000000000000         0.26810400E-05      0.15361166E-20      0.59277561E-08      0.66674271E-23
   55.000000000000         0.26834738E-05      0.15380960E-20      0.48675824E-08      0.39587438E-23
   56.000000000000         0.26864135E-05      0.15728631E-20      0.58794152E-08      0.69534264E-22
   57.000000000000         0.26901352E-05      0.15888973E-20      0.74435661E-08      0.32068395E-22
   58.000000000000         0.26940444E-05      0.15735944E-20      0.78182335E-08     -0.30605885E-22
   59.000000000000         0.26972479E-05      0.15561570E-20      0.64070404E-08     -0.34874720E-22
   60.000000000000         0.26992993E-05      0.15449095E-20      0.41027936E-08     -0.22494981E-22
   61.000000000000         0.27005244E-05      0.15818905E-20      0.24502636E-08      0.73961932E-22
   62.000000000000         0.27017164E-05      0.15663013E-20      0.23839059E-08     -0.31178408E-22
   63.000000000000         0.27034903E-05      0.15490081E-20      0.35477785E-08     -0.34586363E-22
   64.000000000000         0.27058258E-05      0.16120797E-20      0.46710141E-08      0.12614323E-21
   65.000000000000         0.27081413E-05      0.16112442E-20      0.46311711E-08     -0.16710220E-23
   66.000000000000         0.27098064E-05      0.16230473E-20      0.33301950E-08      0.23606202E-22
   67.000000000000         0.27106590E-05      0.16209769E-20      0.17051482E-08     -0.41408003E-23
   68.000000000000         0.27111159E-05      0.16330062E-20      0.91378640E-09      0.24058541E-22
   69.000000000000         0.27118091E-05      0.16183775E-20      0.13863694E-08     -0.29257248E-22
   70.000000000000         0.27130667E-05      0.16004005E-20      0.25151947E-08     -0.35954033E-22
   71.000000000000         0.27146690E-05      0.15913659E-20      0.32046929E-08     -0.18069130E-22
   72.000000000000         0.27160664E-05      0.16013187E-20      0.27947181E-08      0.19905599E-22
   73.000000000000         0.27168557E-05      0.16002193E-20      0.15785417E-08     -0.21989151E-23
   74.000000000000         0.27171076E-05      0.16133396E-20      0.50390699E-09      0.26240631E-22
   75.000000000000         0.27172818E-05      0.16219674E-20      0.34832984E-09      0.17255638E-22
   76.000000000000         0.27178241E-05      0.16113722E-20      0.10845731E-08     -0.21190394E-22
   77.000000000000         0.27188024E-05      0.16264420E-20      0.19567431E-08      0.30139636E-22
   78.000000000000         0.27198814E-05      0.16236784E-20      0.21579647E-08     -0.55272265E-23
   79.000000000000         0.27206320E-05      0.16252328E-20      0.15011919E-08      0.31086926E-23
   80.000000000000         0.27208944E-05      0.16360168E-20      0.52481230E-09      0.21568126E-22
   81.000000000000         0.27208894E-05      0.16299796E-20     -0.10123870E-10     -0.12074406E-22
   82.000000000000         0.27210081E-05      0.16291393E-20      0.23756035E-09     -0.16806776E-23
   83.000000000000         0.27214824E-05      0.16285083E-20      0.94849877E-09     -0.12619755E-23
   84.000000000000         0.27222136E-05      0.16335049E-20      0.14624464E-08      0.99931132E-23
   85.000000000000         0.27228850E-05      0.16455711E-20      0.13428378E-08      0.24132429E-22
   86.000000000000         0.27232369E-05      0.16551859E-20      0.70373983E-09      0.19229576E-22
   87.000000000000         0.27232692E-05      0.16528485E-20      0.64624316E-10     -0.46746809E-23
   88.000000000000         0.27232197E-05      0.16482896E-20     -0.99006442E-10     -0.91179573E-23
   89.000000000000         0.27233586E-05      0.16471213E-20      0.27782140E-09     -0.23366028E-23
   90.000000000000         0.27237782E-05      0.16339862E-20      0.83905311E-09     -0.26270179E-22
   91.000000000000         0.27243377E-05      0.16302836E-20      0.11190277E-08     -0.74051194E-23
   92.000000000000         0.27247906E-05      0.16254614E-20      0.90584140E-09     -0.96443484E-23
   93.000000000000         0.27249811E-05      0.16324289E-20      0.38096885E-09      0.13934919E-22
   94.000000000000         0.27249584E-05      0.16296692E-20     -0.45438341E-10     -0.55194263E-23
   95.000000000000         0.27249296E-05      0.16367968E-20     -0.57597264E-10      0.14255335E-22
   96.000000000000         0.27250944E-05      0.16421048E-20      0.32970183E-09      0.10615947E-22
   97.000000000000         0.27254902E-05      0.16395909E-20      0.79163973E-09     -0.50277829E-23
   98.000000000000         0.27259647E-05      0.16421601E-20      0.94904084E-09      0.51382991E-23
   99.000000000000         0.27262972E-05      0.16286905E-20      0.66490934E-09     -0.26939171E-22
  100.000000000000         0.27263749E-05      0.16284754E-20      0.15536363E-09     -0.43022581E-24
  101.000000000000         0.27262856E-05      0.16376852E-20     -0.17859532E-09      0.18419561E-22
  102.000000000000         0.27262481E-05      0.16433907E-20     -0.74989507E-10      0.11411157E-22
  103.000000000000         0.27264313E-05      0.16631709E-20      0.36639782E-09      0.39560327E-22
  104.000000000000         0.27268093E-05      0.16678823E-20      0.75605555E-09      0.94227353E-23
  105.000000000000         0.27271782E-05      0.16635165E-20      0.73786069E-09     -0.87314912E-23
  106.000000000000         0.27273272E-05      0.16685861E-20      0.29780660E-09      0.10139223E-22
  107.000000000000         0.27272200E-05      0.16734643E-20     -0.21423799E-09      0.97563035E-23
  108.000000000000         0.27270288E-05      0.16839394E-20     -0.38242223E-09      0.20950252E-22
  109.000000000000         0.27269838E-05      0.16806684E-20     -0.90025300E-10     -0.65421087E-23
  110.000000000000         0.27271713E-05      0.16917184E-20      0.37490798E-09      0.22100159E-22
  111.000000000000         0.27274576E-05      0.16900561E-20      0.57259186E-09     -0.33246890E-23
  112.000000000000         0.27276081E-05      0.16935376E-20      0.30110798E-09      0.69630196E-23
  113.000000000000         0.27274937E-05      0.16755790E-20     -0.22880065E-09     -0.35917247E-22
  114.000000000000         0.27271998E-05      0.16921839E-20     -0.58790844E-09      0.33209807E-22
  115.000000000000         0.27269441E-05      0.17023103E-20     -0.51128477E-09      0.20252760E-22
  116.000000000000         0.27268831E-05      0.17080037E-20     -0.12194885E-09      0.11386847E-22
  117.000000000000         0.27269809E-05      0.17021071E-20      0.19558110E-09     -0.11793155E-22
  118.000000000000         0.27270513E-05      0.17185337E-20      0.14071422E-09      0.32853188E-22
  119.000000000000         0.27269237E-05      0.17087495E-20     -0.25517685E-09     -0.19568458E-22
  120.000000000000         0.27265828E-05      0.17145949E-20     -0.68172105E-09      0.11690767E-22
  121.000000000000         0.27261680E-05      0.17166688E-20     -0.82968966E-09      0.41479695E-23
  122.000000000000         0.27258477E-05      0.17016797E-20     -0.64050136E-09     -0.29978305E-22
  123.000000000000         0.27256834E-05      0.17004261E-20     -0.32866035E-09     -0.25072650E-23
  124.000000000000         0.27255895E-05      0.17042129E-20     -0.18778763E-09      0.75736453E-23
  125.000000000000         0.27254103E-05      0.17135323E-20     -0.35847838E-09      0.18638764E-22
  126.000000000000         0.27250437E-05      0.17298104E-20     -0.73310876E-09      0.32556378E-22
  127.000000000000         0.27245181E-05      0.17283362E-20     -0.10512518E-08     -0.29485475E-23
  128.000000000000         0.27239676E-05      0.17109461E-20     -0.11009097E-08     -0.34780158E-22
  129.000000000000         0.27235276E-05      0.17141728E-20     -0.88012618E-09      0.64534123E-23
  130.000000000000         0.27232261E-05      0.17104053E-20     -0.60305023E-09     -0.75349343E-23
  131.000000000000         0.27229570E-05      0.17242643E-20     -0.53815034E-09      0.27717947E-22
  132.000000000000         0.27225626E-05      0.17361633E-20     -0.78873758E-09      0.23797901E-22
  133.000000000000         0.27219671E-05      0.17267709E-20     -0.11910511E-08     -0.18784785E-22
  134.000000000000         0.27212501E-05      0.17268102E-20     -0.14339598E-08      0.78671520E-25
  135.000000000000         0.27205874E-05      0.17372857E-20     -0.13254634E-08      0.20951035E-22
  136.000000000000         0.27200987E-05      0.17471214E-20     -0.97731958E-09      0.19671313E-22
  137.000000000000         0.27197366E-05      0.17610118E-20     -0.72425673E-09      0.27780904E-22
  138.000000000000         0.27193239E-05      0.17607759E-20     -0.82531576E-09     -0.47187766E-24
  139.000000000000         0.27187153E-05      0.17507470E-20     -0.12173368E-08     -0.20057868E-22
  140.000000000000         0.27179339E-05      0.17342278E-20     -0.15627174E-08     -0.33038303E-22
  141.000000000000         0.27171535E-05      0.17528527E-20     -0.15607573E-08      0.37249835E-22
  142.000000000000         0.27165388E-05      0.17690168E-20     -0.12293565E-08      0.32328063E-22
  143.000000000000         0.27160962E-05      0.17539540E-20     -0.88533893E-09     -0.30125550E-22
  144.000000000000         0.27156751E-05      0.17630581E-20     -0.84218830E-09      0.18208323E-22
  145.000000000000         0.27151145E-05      0.17730952E-20     -0.11210697E-08      0.20074024E-22
  146.000000000000         0.27143908E-05      0.17438269E-20     -0.14475886E-08     -0.58536559E-22
  147.000000000000         0.27136291E-05      0.17392113E-20     -0.15232210E-08     -0.92312124E-23
  148.000000000000         0.27129810E-05      0.17336948E-20     -0.12963032E-08     -0.11032845E-22
  149.000000000000         0.27124901E-05      0.17111783E-20     -0.98185877E-09     -0.45033027E-22
  150.000000000000         0.27120704E-05      0.17301587E-20     -0.83938841E-09      0.37960668E-22
  151.000000000000         0.27115990E-05      0.17732054E-20     -0.94267023E-09      0.86093477E-22
  152.000000000000         0.27110250E-05      0.17767260E-20     -0.11481530E-08      0.70412336E-23
  153.000000000000         0.27103984E-05      0.17807673E-20     -0.12530959E-08      0.80825426E-23
  154.000000000000         0.27098144E-05      0.17705317E-20     -0.11681102E-08     -0.20471105E-22
  155.000000000000         0.27093342E-05      0.18172961E-20     -0.96031774E-09      0.93528763E-22
  156.000000000000         0.27089500E-05      0.18256852E-20     -0.76841093E-09      0.16778201E-22
  157.000000000000         0.27086030E-05      0.18017354E-20     -0.69398585E-09     -0.47899558E-22
  158.000000000000         0.27082300E-05      0.18010643E-20     -0.74605052E-09     -0.13423762E-23
  159.000000000000         0.27078049E-05      0.18270831E-20     -0.85011655E-09      0.52037683E-22
  160.000000000000         0.27073570E-05      0.18081174E-20     -0.89579388E-09     -0.37931487E-22
  161.000000000000         0.27069547E-05      0.18166024E-20     -0.80463223E-09      0.16970149E-22
  162.000000000000         0.27066587E-05      0.17938343E-20     -0.59191007E-09     -0.45536194E-22
  163.000000000000         0.27064718E-05      0.17936363E-20     -0.37390762E-09     -0.39614701E-24
  164.000000000000         0.27063278E-05      0.17859808E-20     -0.28806192E-09     -0.15310856E-22
  165.000000000000         0.27061421E-05      0.17880145E-20     -0.37131626E-09      0.40672895E-23
  166.000000000000         0.27058883E-05      0.17930760E-20     -0.50768339E-09      0.10123155E-22
  167.000000000000         0.27056291E-05      0.17705622E-20     -0.51824740E-09     -0.45027701E-22
  168.000000000000         0.27054657E-05      0.17461799E-20     -0.32688307E-09     -0.48764567E-22
  169.000000000000         0.27054437E-05      0.17232715E-20     -0.43953981E-10     -0.45816828E-22
  170.000000000000         0.27055083E-05      0.17332676E-20      0.12910545E-09      0.19992133E-22
  171.000000000000         0.27055534E-05      0.17104436E-20      0.90210089E-10     -0.45647859E-22
  172.000000000000         0.27055214E-05      0.16956855E-20     -0.64015522E-10     -0.29516209E-22
  173.000000000000         0.27054552E-05      0.16953807E-20     -0.13227226E-09     -0.60959779E-24
  174.000000000000         0.27054539E-05      0.16881784E-20     -0.27644091E-11     -0.14404688E-22
  175.000000000000         0.27055764E-05      0.16741119E-20      0.24510896E-09     -0.28133064E-22
  176.000000000000         0.27057903E-05      0.16868254E-20      0.42770010E-09      0.25427070E-22
  177.000000000000         0.27060083E-05      0.16906046E-20      0.43617438E-09      0.75584297E-23
  178.000000000000         0.27061730E-05      0.16886023E-20      0.32924346E-09     -0.40046808E-23
  179.000000000000         0.27063023E-05      0.16679884E-20      0.25868175E-09     -0.41227723E-22
  180.000000000000         0.27064618E-05      0.16549678E-20      0.31902697E-09     -0.26041270E-22
  181.000000000000         0.27066977E-05      0.16518272E-20      0.47168961E-09     -0.62811914E-23
  182.000000000000         0.27069994E-05      0.16476587E-20      0.60349413E-09     -0.83369597E-23
  183.000000000000         0.27073196E-05      0.16435817E-20      0.64041678E-09     -0.81538935E-23
  184.000000000000         0.27076203E-05      0.16311034E-20      0.60131772E-09     -0.24956744E-22
  185.000000000000         0.27078985E-05      0.16241151E-20      0.55651818E-09     -0.13976612E-22
  186.000000000000         0.27081763E-05      0.16173492E-20      0.55556821E-09     -0.13531830E-22
  187.000000000000         0.27084754E-05      0.16167479E-20      0.59820523E-09     -0.12024765E-23
  188.000000000000         0.27088046E-05      0.16210534E-20      0.65827812E-09      0.86110605E-23
  189.000000000000         0.27091611E-05      0.16229842E-20      0.71311986E-09      0.38614710E-23
  190.000000000000         0.27095347E-05      0.16219647E-20      0.74723784E-09     -0.20389719E-23
  191.000000000000         0.27099069E-05      0.16185385E-20      0.74438513E-09     -0.68524119E-23
  192.000000000000         0.27102562E-05      0.16218539E-20      0.69850614E-09      0.66307167E-23
  193.000000000000         0.27105741E-05      0.16020982E-20      0.63586882E-09     -0.39511256E-22
  194.000000000000         0.27108796E-05      0.16231706E-20      0.61093367E-09      0.42144806E-22
