 #KVL flux sum: time, flux integral, flux
 
    0.000000000000         0.00000000E+00      0.00000000E+00      0.00000000E+00      0.00000000E+00
    1.000000000000         0.41681772E-19      0.46004097E-24      0.83363544E-19      0.92008193E-24
    2.000000000000         0.96857436E-19      0.93885758E-24      0.11035133E-18      0.95763322E-24
    3.000000000000         0.21813447E-16      0.51337062E-23      0.43433180E-16      0.83896972E-23
    4.000000000000         0.13585553E-14      0.87226005E-23      0.26734836E-14      0.71777887E-23
    5.000000000000         0.17765386E-13      0.12874843E-22      0.32813661E-13      0.83044842E-23
    6.000000000000         0.24118735E-12      0.19576591E-22      0.44684393E-12      0.13403496E-22
    7.000000000000         0.21074988E-11      0.26208245E-22      0.37326229E-11      0.13263308E-22
    8.000000000000         0.14207661E-10      0.32231695E-22      0.24200325E-10      0.12046902E-22
    9.000000000000         0.80889595E-10      0.32923705E-22      0.13336387E-09      0.13840196E-23
   10.000000000000         0.38654764E-09      0.40291429E-22      0.61131610E-09      0.14735448E-22
   11.000000000000         0.15278375E-08      0.45437527E-22      0.22825797E-08      0.10292195E-22
   12.000000000000         0.50109975E-08      0.36251124E-22      0.69663201E-08     -0.18372806E-22
   13.000000000000         0.13820118E-07      0.30265508E-22      0.17618240E-07     -0.11971231E-22
   14.000000000000         0.32501059E-07      0.77455871E-22      0.37361883E-07      0.94380726E-22
   15.000000000000         0.65893711E-07      0.10254794E-21      0.66785304E-07      0.50184141E-22
   16.000000000000         0.11662063E-06      0.10448468E-21      0.10145384E-06      0.38734703E-23
   17.000000000000         0.18350625E-06      0.78122881E-22      0.13377124E-06     -0.52723592E-22
   18.000000000000         0.26222111E-06      0.34267074E-21      0.15742970E-06      0.52909572E-21
   19.000000000000         0.34769198E-06      0.21933159E-21      0.17094175E-06     -0.24667830E-21
   20.000000000000         0.43590935E-06      0.20522281E-21      0.17643474E-06     -0.28217559E-22
   21.000000000000         0.52454148E-06      0.74425102E-21      0.17726426E-06      0.10780564E-20
   22.000000000000         0.61262290E-06      0.77379874E-21      0.17616283E-06      0.59095436E-22
   23.000000000000         0.69973368E-06      0.63376472E-21      0.17422155E-06     -0.28006804E-21
   24.000000000000         0.78530148E-06      0.46882353E-21      0.17113560E-06     -0.32988238E-21
   25.000000000000         0.86829852E-06      0.60405009E-21      0.16599409E-06      0.27045312E-21
   26.000000000000         0.94730687E-06      0.51786833E-21      0.15801671E-06     -0.17236351E-21
   27.000000000000         0.10208414E-05      0.51707793E-21      0.14706914E-06     -0.15808040E-23
   28.000000000000         0.10876609E-05      0.43683398E-21      0.13363882E-06     -0.16048790E-21
   29.000000000000         0.11469537E-05      0.61776349E-21      0.11858575E-06      0.36185901E-21
   30.000000000000         0.11983837E-05      0.63220558E-21      0.10285998E-06      0.28884190E-22
   31.000000000000         0.12420289E-05      0.60830911E-21      0.87290423E-07     -0.47792951E-22
   32.000000000000         0.12783613E-05      0.58866541E-21      0.72664720E-07     -0.39287390E-22
   33.000000000000         0.13082958E-05      0.43026836E-21      0.59869096E-07     -0.31679410E-21
   34.000000000000         0.13332059E-05      0.35269292E-21      0.49820153E-07     -0.15515089E-21
   35.000000000000         0.13547992E-05      0.34735500E-21      0.43186586E-07     -0.10675831E-22
   36.000000000000         0.13747977E-05      0.41195156E-21      0.39996942E-07      0.12919312E-21
   37.000000000000         0.13945334E-05      0.45446890E-21      0.39471486E-07      0.85034675E-22
   38.000000000000         0.14146532E-05      0.59226677E-21      0.40239521E-07      0.27559574E-21
   39.000000000000         0.14350564E-05      0.53696791E-21      0.40806502E-07     -0.11059773E-21
   40.000000000000         0.14550862E-05      0.62537603E-21      0.40059604E-07      0.17681625E-21
   41.000000000000         0.14738411E-05      0.69665942E-21      0.37509671E-07      0.14256679E-21
   42.000000000000         0.14904710E-05      0.76908783E-21      0.33259884E-07      0.14485681E-21
   43.000000000000         0.15043971E-05      0.68255666E-21      0.27852257E-07     -0.17306232E-21
   44.000000000000         0.15154482E-05      0.68418960E-21      0.22102202E-07      0.32658723E-23
   45.000000000000         0.15239334E-05      0.67690157E-21      0.16970246E-07     -0.14576071E-22
   46.000000000000         0.15306102E-05      0.60716152E-21      0.13353670E-07     -0.13948008E-21
   47.000000000000         0.15365042E-05      0.58260060E-21      0.11787987E-07     -0.49121842E-22
   48.000000000000         0.15425993E-05      0.63447632E-21      0.12190143E-07      0.10375143E-21
   49.000000000000         0.15495102E-05      0.61561130E-21      0.13821835E-07     -0.37730031E-22
   50.000000000000         0.15572970E-05      0.69558365E-21      0.15573675E-07      0.15994468E-21
   51.000000000000         0.15655064E-05      0.60291744E-21      0.16418846E-07     -0.18533242E-21
   52.000000000000         0.15734053E-05      0.67795095E-21      0.15797636E-07      0.15006703E-21
   53.000000000000         0.15802774E-05      0.71738710E-21      0.13744216E-07      0.78872304E-22
   54.000000000000         0.15856571E-05      0.70016640E-21      0.10759367E-07     -0.34441406E-22
   55.000000000000         0.15894489E-05      0.74202784E-21      0.75835962E-08      0.83722878E-22
   56.000000000000         0.15919353E-05      0.75409058E-21      0.49729206E-08      0.24125485E-22
   57.000000000000         0.15936940E-05      0.78272580E-21      0.35173579E-08      0.57270433E-22
   58.000000000000         0.15954298E-05      0.83374736E-21      0.34716737E-08      0.10204312E-21
   59.000000000000         0.15977459E-05      0.83506560E-21      0.46321347E-08      0.26364819E-23
   60.000000000000         0.16009271E-05      0.84080480E-21      0.63623309E-08      0.11478395E-22
   61.000000000000         0.16048356E-05      0.86849627E-21      0.78170332E-08      0.55382956E-22
   62.000000000000         0.16089850E-05      0.89070854E-21      0.82989243E-08      0.44424532E-22
   63.000000000000         0.16127605E-05      0.81873440E-21      0.75508356E-08     -0.14394827E-21
   64.000000000000         0.16156715E-05      0.85965665E-21      0.58220897E-08      0.81844500E-22
   65.000000000000         0.16175233E-05      0.87480721E-21      0.37035342E-08      0.30301118E-22
   66.000000000000         0.16184500E-05      0.88455092E-21      0.18534601E-08      0.19487406E-22
   67.000000000000         0.16188362E-05      0.90945558E-21      0.77243602E-09      0.49809320E-22
   68.000000000000         0.16191791E-05      0.87047256E-21      0.68576327E-09     -0.77966039E-22
   69.000000000000         0.16199335E-05      0.89089426E-21      0.15087021E-08      0.40843417E-22
   70.000000000000         0.16213691E-05      0.89690806E-21      0.28712636E-08      0.12027598E-22
   71.000000000000         0.16234746E-05      0.90746530E-21      0.42110647E-08      0.21114468E-22
   72.000000000000         0.16259546E-05      0.89252506E-21      0.49598773E-08     -0.29880474E-22
   73.000000000000         0.16283423E-05      0.91347313E-21      0.47755734E-08      0.41896141E-22
   74.000000000000         0.16301933E-05      0.90432701E-21      0.37018546E-08     -0.18292241E-22
   75.000000000000         0.16312679E-05      0.92792053E-21      0.21492518E-08      0.47187033E-22
   76.000000000000         0.16316151E-05      0.95066602E-21      0.69441206E-09      0.45490994E-22
   77.000000000000         0.16315251E-05      0.95167618E-21     -0.18004351E-09      0.20203134E-23
   78.000000000000         0.16313955E-05      0.95049698E-21     -0.25917495E-09     -0.23584015E-23
   79.000000000000         0.16315843E-05      0.91277519E-21      0.37751257E-09     -0.75443570E-22
   80.000000000000         0.16323014E-05      0.92108353E-21      0.14342021E-08      0.16616676E-22
   81.000000000000         0.16335546E-05      0.94869370E-21      0.25064699E-08      0.55220333E-22
   82.000000000000         0.16351508E-05      0.95579069E-21      0.31923531E-08      0.14193973E-22
   83.000000000000         0.16367555E-05      0.95009434E-21      0.32094820E-08     -0.11392701E-22
   84.000000000000         0.16380106E-05      0.97232469E-21      0.25101182E-08      0.44460718E-22
   85.000000000000         0.16386774E-05      0.99445113E-21      0.13336287E-08      0.44252878E-22
   86.000000000000         0.16387406E-05      0.10123049E-20      0.12639759E-09      0.35707481E-22
   87.000000000000         0.16384127E-05      0.10372248E-20     -0.65583499E-09      0.49839898E-22
   88.000000000000         0.16380316E-05      0.10247495E-20     -0.76214302E-09     -0.24950741E-22
   89.000000000000         0.16379095E-05      0.10103717E-20     -0.24414249E-09     -0.28755549E-22
   90.000000000000         0.16382142E-05      0.10153786E-20      0.60929938E-09      0.10013824E-22
   91.000000000000         0.16389283E-05      0.10431914E-20      0.14282341E-08      0.55625625E-22
   92.000000000000         0.16398821E-05      0.10421344E-20      0.19076337E-08     -0.21139341E-23
   93.000000000000         0.16408221E-05      0.10297762E-20      0.18800394E-08     -0.24716458E-22
   94.000000000000         0.16414914E-05      0.10318007E-20      0.13385624E-08      0.40489701E-23
   95.000000000000         0.16417131E-05      0.10323507E-20      0.44342235E-09      0.10999213E-23
   96.000000000000         0.16414606E-05      0.10517264E-20     -0.50496171E-09      0.38751455E-22
   97.000000000000         0.16408810E-05      0.10750505E-20     -0.11592619E-08      0.46648309E-22
   98.000000000000         0.16402400E-05      0.10911664E-20     -0.12820138E-08      0.32231655E-22
   99.000000000000         0.16398018E-05      0.10967717E-20     -0.87629382E-09      0.11210706E-22
  100.000000000000         0.16397072E-05      0.11013349E-20     -0.18923946E-09      0.91263558E-23
  101.000000000000         0.16399217E-05      0.11034001E-20      0.42893088E-09      0.41303332E-23
  102.000000000000         0.16402770E-05      0.11219300E-20      0.71052959E-09      0.37059890E-22
  103.000000000000         0.16405629E-05      0.11282248E-20      0.57195956E-09      0.12589593E-22
  104.000000000000         0.16406095E-05      0.11467433E-20      0.93075291E-10      0.37036993E-22
  105.000000000000         0.16403266E-05      0.11475192E-20     -0.56567252E-09      0.15518132E-23
  106.000000000000         0.16397161E-05      0.11708881E-20     -0.12210195E-08      0.46737723E-22
  107.000000000000         0.16388711E-05      0.11988314E-20     -0.16899673E-08      0.55886703E-22
  108.000000000000         0.16379576E-05      0.11988124E-20     -0.18271050E-08     -0.37949398E-25
  109.000000000000         0.16371592E-05      0.12071724E-20     -0.15967518E-08      0.16720007E-22
  110.000000000000         0.16365957E-05      0.12108311E-20     -0.11269543E-08      0.73172863E-23
  111.000000000000         0.16362630E-05      0.12301428E-20     -0.66548100E-09      0.38623516E-22
  112.000000000000         0.16360420E-05      0.12788404E-20     -0.44203656E-09      0.97395163E-22
  113.000000000000         0.16357728E-05      0.13150200E-20     -0.53842531E-09      0.72359049E-22
  114.000000000000         0.16353363E-05      0.12986474E-20     -0.87298599E-09     -0.32745172E-22
  115.000000000000         0.16346882E-05      0.12885160E-20     -0.12961291E-08     -0.20262747E-22
  116.000000000000         0.16338419E-05      0.12819220E-20     -0.16925764E-08     -0.13188079E-22
  117.000000000000         0.16328409E-05      0.12703881E-20     -0.20020241E-08     -0.23067772E-22
  118.000000000000         0.16317536E-05      0.12793500E-20     -0.21747093E-08      0.17923843E-22
  119.000000000000         0.16306774E-05      0.13098448E-20     -0.21522413E-08      0.60989693E-22
  120.000000000000         0.16297184E-05      0.13078752E-20     -0.19181398E-08     -0.39393367E-23
  121.000000000000         0.16289394E-05      0.12878162E-20     -0.15579865E-08     -0.40117896E-22
  122.000000000000         0.16283196E-05      0.13056968E-20     -0.12395273E-08      0.35761108E-22
  123.000000000000         0.16277646E-05      0.13048244E-20     -0.11099674E-08     -0.17447468E-23
  124.000000000000         0.16271635E-05      0.12780552E-20     -0.12023227E-08     -0.53538352E-22
  125.000000000000         0.16264434E-05      0.12455108E-20     -0.14400497E-08     -0.65088890E-22
  126.000000000000         0.16255832E-05      0.12572741E-20     -0.17204089E-08      0.23526725E-22
  127.000000000000         0.16245941E-05      0.12801897E-20     -0.19782647E-08      0.45831091E-22
  128.000000000000         0.16235079E-05      0.12606781E-20     -0.21724086E-08     -0.39023174E-22
  129.000000000000         0.16223889E-05      0.12320622E-20     -0.22380156E-08     -0.57231837E-22
  130.000000000000         0.16213407E-05      0.12400269E-20     -0.20963072E-08      0.15929348E-22
  131.000000000000         0.16204739E-05      0.12901787E-20     -0.17336388E-08      0.10030366E-21
  132.000000000000         0.16198408E-05      0.12898732E-20     -0.12661566E-08     -0.61087462E-24
  133.000000000000         0.16193919E-05      0.13194874E-20     -0.89785052E-09      0.59228249E-22
  134.000000000000         0.16189970E-05      0.13164825E-20     -0.78976066E-09     -0.60096610E-23
  135.000000000000         0.16185185E-05      0.13436468E-20     -0.95706369E-09      0.54328419E-22
  136.000000000000         0.16178800E-05      0.13250832E-20     -0.12769121E-08     -0.37127024E-22
  137.000000000000         0.16170864E-05      0.13206111E-20     -0.15872294E-08     -0.89442557E-23
  138.000000000000         0.16162014E-05      0.13637534E-20     -0.17701440E-08      0.86284522E-22
  139.000000000000         0.16153196E-05      0.13630777E-20     -0.17635113E-08     -0.13512921E-23
  140.000000000000         0.16145497E-05      0.13495014E-20     -0.15398830E-08     -0.27152644E-22
  141.000000000000         0.16139921E-05      0.13163012E-20     -0.11151405E-08     -0.66400415E-22
  142.000000000000         0.16136969E-05      0.13037842E-20     -0.59044497E-09     -0.25034071E-22
  143.000000000000         0.16136209E-05      0.12469460E-20     -0.15195840E-09     -0.11367630E-21
  144.000000000000         0.16136288E-05      0.12359901E-20      0.15788271E-10     -0.21911915E-22
  145.000000000000         0.16135559E-05      0.12547831E-20     -0.14573408E-09      0.37586024E-22
  146.000000000000         0.16132972E-05      0.12450072E-20     -0.51735368E-09     -0.19551819E-22
  147.000000000000         0.16128590E-05      0.12721818E-20     -0.87652727E-09      0.54349268E-22
  148.000000000000         0.16123421E-05      0.12456400E-20     -0.10336852E-08     -0.53083665E-22
  149.000000000000         0.16118803E-05      0.12381512E-20     -0.92363518E-09     -0.14977511E-22
  150.000000000000         0.16115818E-05      0.12404606E-20     -0.59708910E-09      0.46188591E-23
  151.000000000000         0.16115022E-05      0.12451434E-20     -0.15918785E-09      0.93655108E-23
  152.000000000000         0.16116397E-05      0.12555026E-20      0.27504422E-09      0.20718339E-22
  153.000000000000         0.16119346E-05      0.12706720E-20      0.58987875E-09      0.30338815E-22
  154.000000000000         0.16122765E-05      0.12997478E-20      0.68370136E-09      0.58151596E-22
  155.000000000000         0.16125372E-05      0.13115049E-20      0.52135432E-09      0.23514199E-22
  156.000000000000         0.16126296E-05      0.13198894E-20      0.18482127E-09      0.16769011E-22
  157.000000000000         0.16125582E-05      0.13589848E-20     -0.14280336E-09      0.78190805E-22
  158.000000000000         0.16124200E-05      0.13780567E-20     -0.27641128E-09      0.38143890E-22
  159.000000000000         0.16123497E-05      0.13755538E-20     -0.14044414E-09     -0.50059198E-23
  160.000000000000         0.16124472E-05      0.13727083E-20      0.19482453E-09     -0.56909541E-23
  161.000000000000         0.16127343E-05      0.13761122E-20      0.57422998E-09      0.68077797E-23
  162.000000000000         0.16131628E-05      0.13653798E-20      0.85707784E-09     -0.21464665E-22
  163.000000000000         0.16136498E-05      0.13732891E-20      0.97400308E-09      0.15818576E-22
  164.000000000000         0.16141106E-05      0.13742716E-20      0.92155208E-09      0.19650082E-23
  165.000000000000         0.16144774E-05      0.13849285E-20      0.73355735E-09      0.21313656E-22
  166.000000000000         0.16147142E-05      0.13668697E-20      0.47367006E-09     -0.36117587E-22
  167.000000000000         0.16148346E-05      0.13715192E-20      0.24086913E-09      0.92991641E-23
  168.000000000000         0.16149079E-05      0.13488181E-20      0.14655873E-09     -0.45402344E-22
  169.000000000000         0.16150338E-05      0.13800902E-20      0.25169198E-09      0.62544237E-22
  170.000000000000         0.16152896E-05      0.13996620E-20      0.51167473E-09      0.39143662E-22
  171.000000000000         0.16156849E-05      0.13998694E-20      0.79066366E-09      0.41476210E-24
  172.000000000000         0.16161578E-05      0.13880785E-20      0.94573602E-09     -0.23581802E-22
  173.000000000000         0.16166165E-05      0.13809362E-20      0.91743280E-09     -0.14284500E-22
  174.000000000000         0.16169926E-05      0.13744218E-20      0.75214016E-09     -0.13028959E-22
  175.000000000000         0.16172665E-05      0.13852677E-20      0.54788877E-09      0.21691879E-22
  176.000000000000         0.16174580E-05      0.13719663E-20      0.38284033E-09     -0.26602740E-22
  177.000000000000         0.16176021E-05      0.13816246E-20      0.28827279E-09      0.19316489E-22
  178.000000000000         0.16177369E-05      0.13699641E-20      0.26969212E-09     -0.23321056E-22
  179.000000000000         0.16179000E-05      0.13878265E-20      0.32613022E-09      0.35724918E-22
  180.000000000000         0.16181196E-05      0.13804699E-20      0.43927751E-09     -0.14713303E-22
  181.000000000000         0.16183966E-05      0.13885131E-20      0.55393275E-09      0.16086494E-22
  182.000000000000         0.16186953E-05      0.13893099E-20      0.59743989E-09      0.15935960E-23
  183.000000000000         0.16189632E-05      0.13827865E-20      0.53569073E-09     -0.13046823E-22
  184.000000000000         0.16191681E-05      0.13836307E-20      0.40978704E-09      0.16883603E-23
  185.000000000000         0.16193222E-05      0.14205139E-20      0.30819225E-09      0.73766434E-22
  186.000000000000         0.16194666E-05      0.14163008E-20      0.28894654E-09     -0.84261161E-23
  187.000000000000         0.16196319E-05      0.14065772E-20      0.33060975E-09     -0.19447224E-22
  188.000000000000         0.16198118E-05      0.13929747E-20      0.35973663E-09     -0.27204960E-22
  189.000000000000         0.16199749E-05      0.13747641E-20      0.32611444E-09     -0.36421202E-22
  190.000000000000         0.16200989E-05      0.13720497E-20      0.24800393E-09     -0.54289781E-23
  191.000000000000         0.16201921E-05      0.13754969E-20      0.18637699E-09      0.68944001E-23
  192.000000000000         0.16202851E-05      0.13708529E-20      0.18601485E-09     -0.92878222E-23
  193.000000000000         0.16204078E-05      0.13911141E-20      0.24541606E-09      0.40522258E-22
  194.000000000000         0.16205765E-05      0.13906859E-20      0.33740796E-09     -0.85630029E-24
