 #KVL flux sum: time, flux integral, flux
 
    0.000000000000         0.94932273E-17     -0.17544511E-24      0.18986455E-16     -0.35089022E-24
    1.000000000000         0.19028078E-16      0.63659875E-24      0.19069702E-16      0.16240877E-23
    2.000000000000         0.28576438E-16     -0.15614493E-24      0.19096720E-16     -0.15854874E-23
    3.000000000000         0.59786481E-16      0.50556048E-24      0.62420085E-16      0.13234108E-23
    4.000000000000         0.14060212E-14     -0.25866072E-23      0.26924695E-14     -0.61843353E-23
    5.000000000000         0.17822345E-13     -0.13897298E-23      0.32832647E-13      0.23937549E-23
    6.000000000000         0.24125380E-12     -0.13955337E-23      0.44686292E-12     -0.11607821E-25
    7.000000000000         0.21075747E-11     -0.53793269E-23      0.37326418E-11     -0.79675864E-23
    8.000000000000         0.14207747E-10     -0.76023994E-23      0.24200344E-10     -0.44461451E-23
    9.000000000000         0.80889690E-10     -0.15288307E-23      0.13336389E-09      0.12147138E-22
   10.000000000000         0.38654775E-09      0.77936455E-23      0.61131612E-09      0.18644952E-22
   11.000000000000         0.15278376E-08      0.11281655E-22      0.22825797E-08      0.69760180E-23
   12.000000000000         0.50109977E-08      0.40501346E-22      0.69663201E-08      0.58439383E-22
   13.000000000000         0.13820118E-07      0.57323974E-22      0.17618240E-07      0.33645256E-22
   14.000000000000         0.32501059E-07      0.65701675E-22      0.37361883E-07      0.16755402E-22
   15.000000000000         0.65893711E-07      0.13668998E-21      0.66785304E-07      0.14197660E-21
   16.000000000000         0.11662063E-06      0.14834007E-21      0.10145384E-06      0.23300197E-22
   17.000000000000         0.18350625E-06      0.11239814E-21      0.13377124E-06     -0.71883877E-22
   18.000000000000         0.26222111E-06     -0.23330234E-21      0.15742970E-06     -0.69140095E-21
   19.000000000000         0.34769198E-06     -0.82677863E-22      0.17094175E-06      0.30124895E-21
   20.000000000000         0.43590935E-06      0.91596104E-22      0.17643474E-06      0.34854793E-21
   21.000000000000         0.52454148E-06     -0.37057964E-21      0.17726426E-06     -0.92435148E-21
   22.000000000000         0.61262290E-06      0.16799855E-22      0.17616283E-06      0.77475898E-21
   23.000000000000         0.69973368E-06      0.27932684E-21      0.17422155E-06      0.52505396E-21
   24.000000000000         0.78530148E-06      0.31838988E-21      0.17113560E-06      0.78126092E-22
   25.000000000000         0.86829852E-06      0.61067789E-21      0.16599409E-06      0.58457602E-21
   26.000000000000         0.94730687E-06      0.62676285E-21      0.15801671E-06      0.32169924E-22
   27.000000000000         0.10208414E-05      0.68127022E-21      0.14706914E-06      0.10901474E-21
   28.000000000000         0.10876609E-05      0.80208605E-21      0.13363882E-06      0.24163165E-21
   29.000000000000         0.11469537E-05      0.93795065E-21      0.11858575E-06      0.27172920E-21
   30.000000000000         0.11983837E-05      0.10980973E-20      0.10285998E-06      0.32029323E-21
   31.000000000000         0.12420289E-05      0.12261219E-20      0.87290423E-07      0.25604931E-21
   32.000000000000         0.12783613E-05      0.12971768E-20      0.72664720E-07      0.14210969E-21
   33.000000000000         0.13082958E-05      0.12660099E-20      0.59869096E-07     -0.62333687E-22
   34.000000000000         0.13332059E-05      0.12451370E-20      0.49820153E-07     -0.41745838E-22
   35.000000000000         0.13547992E-05      0.12949460E-20      0.43186587E-07      0.99617958E-22
   36.000000000000         0.13747977E-05      0.12096947E-20      0.39996942E-07     -0.17050266E-21
   37.000000000000         0.13945334E-05      0.11501790E-20      0.39471486E-07     -0.11903137E-21
   38.000000000000         0.14146532E-05      0.12878745E-20      0.40239521E-07      0.27539109E-21
   39.000000000000         0.14350564E-05      0.13788497E-20      0.40806502E-07      0.18195044E-21
   40.000000000000         0.14550862E-05      0.14264204E-20      0.40059604E-07      0.95141418E-22
   41.000000000000         0.14738411E-05      0.14958688E-20      0.37509671E-07      0.13889673E-21
   42.000000000000         0.14904710E-05      0.14856690E-20      0.33259884E-07     -0.20399609E-22
   43.000000000000         0.15043971E-05      0.14919016E-20      0.27852257E-07      0.12465227E-22
   44.000000000000         0.15154482E-05      0.14326705E-20      0.22102202E-07     -0.11846218E-21
   45.000000000000         0.15239334E-05      0.13758529E-20      0.16970246E-07     -0.11363527E-21
   46.000000000000         0.15306102E-05      0.13487506E-20      0.13353670E-07     -0.54204648E-22
   47.000000000000         0.15365042E-05      0.13685386E-20      0.11787987E-07      0.39576150E-22
   48.000000000000         0.15425993E-05      0.14338335E-20      0.12190143E-07      0.13058982E-21
   49.000000000000         0.15495102E-05      0.14814100E-20      0.13821835E-07      0.95152819E-22
   50.000000000000         0.15572970E-05      0.14182373E-20      0.15573675E-07     -0.12634534E-21
   51.000000000000         0.15655064E-05      0.14126056E-20      0.16418846E-07     -0.11263283E-22
   52.000000000000         0.15734053E-05      0.13569454E-20      0.15797636E-07     -0.11132052E-21
   53.000000000000         0.15802774E-05      0.13908851E-20      0.13744216E-07      0.67879487E-22
   54.000000000000         0.15856571E-05      0.13912385E-20      0.10759367E-07      0.70664898E-24
   55.000000000000         0.15894489E-05      0.13988213E-20      0.75835962E-08      0.15165758E-22
   56.000000000000         0.15919353E-05      0.13884664E-20      0.49729206E-08     -0.20709898E-22
   57.000000000000         0.15936940E-05      0.13888335E-20      0.35173579E-08      0.73416997E-24
   58.000000000000         0.15954298E-05      0.13804361E-20      0.34716737E-08     -0.16794800E-22
   59.000000000000         0.15977459E-05      0.14079827E-20      0.46321347E-08      0.55093291E-22
   60.000000000000         0.16009271E-05      0.14479712E-20      0.63623309E-08      0.79976876E-22
   61.000000000000         0.16048356E-05      0.14469311E-20      0.78170333E-08     -0.20801276E-23
   62.000000000000         0.16089850E-05      0.14496738E-20      0.82989243E-08      0.54853790E-23
   63.000000000000         0.16127605E-05      0.14682257E-20      0.75508356E-08      0.37103830E-22
   64.000000000000         0.16156715E-05      0.14976846E-20      0.58220897E-08      0.58917820E-22
   65.000000000000         0.16175233E-05      0.15029556E-20      0.37035342E-08      0.10541943E-22
   66.000000000000         0.16184500E-05      0.15021271E-20      0.18534601E-08     -0.16568745E-23
   67.000000000000         0.16188362E-05      0.15379137E-20      0.77243604E-09      0.71573071E-22
   68.000000000000         0.16191791E-05      0.15701287E-20      0.68576329E-09      0.64430038E-22
   69.000000000000         0.16199335E-05      0.15791508E-20      0.15087021E-08      0.18044277E-22
   70.000000000000         0.16213691E-05      0.15694647E-20      0.28712636E-08     -0.19372171E-22
   71.000000000000         0.16234746E-05      0.15758112E-20      0.42110647E-08      0.12692836E-22
   72.000000000000         0.16259546E-05      0.15350189E-20      0.49598773E-08     -0.81584474E-22
   73.000000000000         0.16283423E-05      0.15433460E-20      0.47755734E-08      0.16654168E-22
   74.000000000000         0.16301933E-05      0.15496970E-20      0.37018546E-08      0.12701880E-22
   75.000000000000         0.16312679E-05      0.15523281E-20      0.21492519E-08      0.52623885E-23
   76.000000000000         0.16316151E-05      0.15295781E-20      0.69441208E-09     -0.45500085E-22
   77.000000000000         0.16315251E-05      0.15117770E-20     -0.18004349E-09     -0.35602186E-22
   78.000000000000         0.16313955E-05      0.14912465E-20     -0.25917493E-09     -0.41060984E-22
   79.000000000000         0.16315843E-05      0.14655797E-20      0.37751259E-09     -0.51333646E-22
   80.000000000000         0.16323014E-05      0.14480321E-20      0.14342021E-08     -0.35095264E-22
   81.000000000000         0.16335546E-05      0.14869653E-20      0.25064699E-08      0.77866389E-22
   82.000000000000         0.16351508E-05      0.14964221E-20      0.31923531E-08      0.18913631E-22
   83.000000000000         0.16367555E-05      0.15020869E-20      0.32094820E-08      0.11329732E-22
   84.000000000000         0.16380106E-05      0.14688783E-20      0.25101182E-08     -0.66417335E-22
   85.000000000000         0.16386774E-05      0.14972793E-20      0.13336287E-08      0.56802094E-22
   86.000000000000         0.16387406E-05      0.14960418E-20      0.12639761E-09     -0.24750616E-23
   87.000000000000         0.16384127E-05      0.15103814E-20     -0.65583497E-09      0.28679291E-22
   88.000000000000         0.16380316E-05      0.14986817E-20     -0.76214300E-09     -0.23399509E-22
   89.000000000000         0.16379095E-05      0.15015188E-20     -0.24414248E-09      0.56742915E-23
   90.000000000000         0.16382142E-05      0.14638965E-20      0.60929940E-09     -0.75244600E-22
   91.000000000000         0.16389283E-05      0.14306129E-20      0.14282341E-08     -0.66567240E-22
   92.000000000000         0.16398821E-05      0.14406644E-20      0.19076337E-08      0.20103033E-22
   93.000000000000         0.16408221E-05      0.14412666E-20      0.18800394E-08      0.12043186E-23
   94.000000000000         0.16414914E-05      0.14642506E-20      0.13385624E-08      0.45967962E-22
   95.000000000000         0.16417131E-05      0.14728121E-20      0.44342237E-09      0.17122984E-22
   96.000000000000         0.16414606E-05      0.14336129E-20     -0.50496170E-09     -0.78398221E-22
   97.000000000000         0.16408810E-05      0.14539200E-20     -0.11592619E-08      0.40614191E-22
   98.000000000000         0.16402400E-05      0.15133195E-20     -0.12820138E-08      0.11879888E-21
   99.000000000000         0.16398018E-05      0.14897937E-20     -0.87629380E-09     -0.47051605E-22
  100.000000000000         0.16397072E-05      0.14735394E-20     -0.18923944E-09     -0.32508571E-22
  101.000000000000         0.16399217E-05      0.14556674E-20      0.42893090E-09     -0.35744069E-22
  102.000000000000         0.16402770E-05      0.14631288E-20      0.71052961E-09      0.14922893E-22
  103.000000000000         0.16405629E-05      0.14518755E-20      0.57195957E-09     -0.22506513E-22
  104.000000000000         0.16406095E-05      0.14412253E-20      0.93075310E-10     -0.21300393E-22
  105.000000000000         0.16403266E-05      0.14111717E-20     -0.56567250E-09     -0.60107239E-22
  106.000000000000         0.16397161E-05      0.14016100E-20     -0.12210195E-08     -0.19123398E-22
  107.000000000000         0.16388711E-05      0.13497086E-20     -0.16899673E-08     -0.10380279E-21
  108.000000000000         0.16379576E-05      0.13824707E-20     -0.18271050E-08      0.65524106E-22
  109.000000000000         0.16371592E-05      0.13714730E-20     -0.15967518E-08     -0.21995312E-22
  110.000000000000         0.16365957E-05      0.13939129E-20     -0.11269542E-08      0.44879734E-22
  111.000000000000         0.16362630E-05      0.13810685E-20     -0.66548098E-09     -0.25688869E-22
  112.000000000000         0.16360420E-05      0.14340803E-20     -0.44203654E-09      0.10602368E-21
  113.000000000000         0.16357728E-05      0.14160938E-20     -0.53842529E-09     -0.35972928E-22
  114.000000000000         0.16353363E-05      0.14020190E-20     -0.87298597E-09     -0.28149579E-22
  115.000000000000         0.16346882E-05      0.13622154E-20     -0.12961291E-08     -0.79607324E-22
  116.000000000000         0.16338419E-05      0.13535095E-20     -0.16925763E-08     -0.17411789E-22
  117.000000000000         0.16328409E-05      0.13612842E-20     -0.20020241E-08      0.15549421E-22
  118.000000000000         0.16317536E-05      0.13448139E-20     -0.21747093E-08     -0.32940647E-22
  119.000000000000         0.16306774E-05      0.13524445E-20     -0.21522413E-08      0.15261267E-22
  120.000000000000         0.16297184E-05      0.13634891E-20     -0.19181398E-08      0.22089249E-22
  121.000000000000         0.16289394E-05      0.13620699E-20     -0.15579865E-08     -0.28385369E-23
  122.000000000000         0.16283196E-05      0.13759236E-20     -0.12395273E-08      0.27707371E-22
  123.000000000000         0.16277646E-05      0.13823550E-20     -0.11099674E-08      0.12862806E-22
  124.000000000000         0.16271635E-05      0.13517797E-20     -0.12023227E-08     -0.61150594E-22
  125.000000000000         0.16264434E-05      0.13502052E-20     -0.14400497E-08     -0.31489363E-23
  126.000000000000         0.16255832E-05      0.13481875E-20     -0.17204089E-08     -0.40353604E-23
  127.000000000000         0.16245941E-05      0.13388034E-20     -0.19782647E-08     -0.18768286E-22
  128.000000000000         0.16235079E-05      0.13177898E-20     -0.21724085E-08     -0.42027166E-22
  129.000000000000         0.16223889E-05      0.12963698E-20     -0.22380156E-08     -0.42839904E-22
  130.000000000000         0.16213407E-05      0.12766703E-20     -0.20963072E-08     -0.39399148E-22
  131.000000000000         0.16204739E-05      0.12816171E-20     -0.17336388E-08      0.98937813E-23
  132.000000000000         0.16198408E-05      0.12706132E-20     -0.12661565E-08     -0.22007814E-22
  133.000000000000         0.16193919E-05      0.12296725E-20     -0.89785050E-09     -0.81881442E-22
  134.000000000000         0.16189970E-05      0.11974400E-20     -0.78976064E-09     -0.64465059E-22
  135.000000000000         0.16185185E-05      0.11860961E-20     -0.95706367E-09     -0.22687797E-22
  136.000000000000         0.16178800E-05      0.11763887E-20     -0.12769120E-08     -0.19414752E-22
  137.000000000000         0.16170864E-05      0.11878644E-20     -0.15872294E-08      0.22951434E-22
  138.000000000000         0.16162014E-05      0.11286742E-20     -0.17701440E-08     -0.11838052E-21
  139.000000000000         0.16153196E-05      0.11257871E-20     -0.17635112E-08     -0.57741105E-23
  140.000000000000         0.16145497E-05      0.11434813E-20     -0.15398830E-08      0.35388410E-22
  141.000000000000         0.16139921E-05      0.11488610E-20     -0.11151405E-08      0.10759436E-22
  142.000000000000         0.16136969E-05      0.10996935E-20     -0.59044495E-09     -0.98335001E-22
  143.000000000000         0.16136209E-05      0.11006688E-20     -0.15195838E-09      0.19505559E-23
  144.000000000000         0.16136288E-05      0.10989172E-20      0.15788290E-10     -0.35033324E-23
  145.000000000000         0.16135559E-05      0.11204205E-20     -0.14573406E-09      0.43006598E-22
  146.000000000000         0.16132972E-05      0.10829721E-20     -0.51735366E-09     -0.74896790E-22
  147.000000000000         0.16128590E-05      0.10740680E-20     -0.87652725E-09     -0.17808161E-22
  148.000000000000         0.16123421E-05      0.10464920E-20     -0.10336852E-08     -0.55151883E-22
  149.000000000000         0.16118803E-05      0.10441321E-20     -0.92363516E-09     -0.47199451E-23
  150.000000000000         0.16115818E-05      0.10262653E-20     -0.59708908E-09     -0.35733570E-22
  151.000000000000         0.16115022E-05      0.10338852E-20     -0.15918783E-09      0.15239764E-22
  152.000000000000         0.16116397E-05      0.10391163E-20      0.27504424E-09      0.10462366E-22
  153.000000000000         0.16119346E-05      0.10270749E-20      0.58987877E-09     -0.24082854E-22
  154.000000000000         0.16122765E-05      0.10442776E-20      0.68370137E-09      0.34405281E-22
  155.000000000000         0.16125372E-05      0.10670113E-20      0.52135434E-09      0.45467573E-22
  156.000000000000         0.16126296E-05      0.10454859E-20      0.18482129E-09     -0.43050922E-22
  157.000000000000         0.16125582E-05      0.10481083E-20     -0.14280335E-09      0.52449260E-23
  158.000000000000         0.16124200E-05      0.10364854E-20     -0.27641126E-09     -0.23245840E-22
  159.000000000000         0.16123497E-05      0.10492685E-20     -0.14044412E-09      0.25566188E-22
  160.000000000000         0.16124472E-05      0.10457101E-20      0.19482455E-09     -0.71167993E-23
  161.000000000000         0.16127343E-05      0.10375053E-20      0.57423000E-09     -0.16409592E-22
  162.000000000000         0.16131628E-05      0.10243386E-20      0.85707785E-09     -0.26333536E-22
  163.000000000000         0.16136498E-05      0.10383761E-20      0.97400310E-09      0.28075031E-22
  164.000000000000         0.16141106E-05      0.10524473E-20      0.92155210E-09      0.28142394E-22
  165.000000000000         0.16144774E-05      0.10738485E-20      0.73355737E-09      0.42802492E-22
  166.000000000000         0.16147142E-05      0.10830548E-20      0.47367007E-09      0.18412529E-22
  167.000000000000         0.16148346E-05      0.10881321E-20      0.24086915E-09      0.10154595E-22
  168.000000000000         0.16149079E-05      0.10937492E-20      0.14655875E-09      0.11234202E-22
  169.000000000000         0.16150338E-05      0.10967334E-20      0.25169200E-09      0.59684338E-23
  170.000000000000         0.16152896E-05      0.11008411E-20      0.51167475E-09      0.82155091E-23
  171.000000000000         0.16156849E-05      0.11173914E-20      0.79066368E-09      0.33100537E-22
  172.000000000000         0.16161578E-05      0.11194462E-20      0.94573603E-09      0.41096093E-23
  173.000000000000         0.16166165E-05      0.11291509E-20      0.91743282E-09      0.19409401E-22
  174.000000000000         0.16169926E-05      0.11404137E-20      0.75214018E-09      0.22525639E-22
  175.000000000000         0.16172665E-05      0.11633364E-20      0.54788879E-09      0.45845243E-22
  176.000000000000         0.16174580E-05      0.11604401E-20      0.38284035E-09     -0.57925413E-23
  177.000000000000         0.16176021E-05      0.11659285E-20      0.28827281E-09      0.10976782E-22
  178.000000000000         0.16177369E-05      0.11380791E-20      0.26969214E-09     -0.55698842E-22
  179.000000000000         0.16179000E-05      0.11315994E-20      0.32613024E-09     -0.12959278E-22
  180.000000000000         0.16181196E-05      0.11329035E-20      0.43927753E-09      0.26081102E-23
  181.000000000000         0.16183966E-05      0.11505175E-20      0.55393277E-09      0.35228109E-22
  182.000000000000         0.16186953E-05      0.11542204E-20      0.59743991E-09      0.74057445E-23
  183.000000000000         0.16189632E-05      0.11693096E-20      0.53569075E-09      0.30178464E-22
  184.000000000000         0.16191681E-05      0.11592591E-20      0.40978706E-09     -0.20101135E-22
  185.000000000000         0.16193222E-05      0.11384743E-20      0.30819227E-09     -0.41569608E-22
  186.000000000000         0.16194666E-05      0.11481380E-20      0.28894656E-09      0.19327466E-22
  187.000000000000         0.16196319E-05      0.11734311E-20      0.33060977E-09      0.50586242E-22
  188.000000000000         0.16198118E-05      0.11761087E-20      0.35973665E-09      0.53551669E-23
  189.000000000000         0.16199749E-05      0.11900683E-20      0.32611446E-09      0.27919223E-22
  190.000000000000         0.16200989E-05      0.11936204E-20      0.24800395E-09      0.71040845E-23
  191.000000000000         0.16201921E-05      0.11990051E-20      0.18637700E-09      0.10769444E-22
  192.000000000000         0.16202851E-05      0.12286452E-20      0.18601487E-09      0.59280317E-22
  193.000000000000         0.16204078E-05      0.12353858E-20      0.24541608E-09      0.13481209E-22
  194.000000000000         0.16205765E-05      0.12249580E-20      0.33740798E-09     -0.20855629E-22
