 
 # Omega; pulse ft; proj flux t=    1000.25000000000     
    0.000000000000         0.32818054E-12      0.00000000E+00      0.00000000E+00      0.00000000E+00      0.00000000E+00      0.00000000E+00      0.00000000E+00
    0.003140807452         0.15084240E-10      0.27171138E-04      0.20058384E-11      0.80878412E-14      0.59706378E-21      0.25402352E-16      0.18752624E-23
    0.006281614903         0.59367197E-10      0.33528201E-04      0.87717192E-12      0.19639398E-13      0.51381010E-21      0.87085919E-16      0.34890409E-23
    0.009422422355         0.13322140E-09      0.26024695E-04     -0.22468746E-12      0.22805508E-13     -0.19689420E-21      0.15871363E-15      0.28706342E-23
    0.012563229807         0.23672078E-09      0.19844024E-04     -0.11484052E-12      0.23174347E-13     -0.13411362E-21      0.23149979E-15      0.24494091E-23
    0.015704037259         0.36996889E-09      0.16124410E-04      0.16063514E-13      0.23544008E-13      0.23455091E-22      0.30544699E-15      0.25230770E-23
    0.018844844710         0.53309892E-09      0.13533973E-04     -0.29646651E-13      0.23729207E-13     -0.51979675E-22      0.37997586E-15      0.23598189E-23
    0.021985652162         0.72627381E-09      0.11680695E-04      0.27392581E-13      0.23915110E-13      0.56083700E-22      0.45508861E-15      0.25359670E-23
    0.025126459614         0.94968623E-09      0.10269339E-04      0.11711142E-13      0.24056588E-13      0.27434103E-22      0.53064572E-15      0.26221322E-23
    0.028267267066         0.12035587E-08      0.91699019E-05     -0.24555944E-13      0.24198633E-13     -0.64801160E-22      0.60664897E-15      0.24186042E-23
    0.031408074517         0.14881438E-08      0.82846722E-05      0.85093122E-14      0.24328851E-13      0.24988531E-22      0.68306121E-15      0.24970884E-23
    0.034548881969         0.18037240E-08      0.75593541E-05      0.97435067E-14      0.24460395E-13      0.31527829E-22      0.75988660E-15      0.25961112E-23
    0.037689689421         0.21506121E-08      0.69511601E-05      0.16993079E-13      0.24583261E-13      0.60097206E-22      0.83709788E-15      0.27848650E-23
    0.040830496872         0.25291509E-08      0.64354574E-05      0.72653572E-14      0.24706554E-13      0.27892647E-22      0.91469641E-15      0.28724704E-23
    0.043971304324         0.29397140E-08      0.59917976E-05      0.60911520E-14      0.24827646E-13      0.25239331E-22      0.99267527E-15      0.29517423E-23
    0.047112111776         0.33827052E-08      0.56064816E-05      0.49056223E-14      0.24949662E-13      0.21830736E-22      0.10710374E-14      0.30203084E-23
    0.050252919228         0.38585594E-08      0.52680278E-05      0.20570451E-13      0.25070017E-13      0.97892717E-22      0.11497774E-14      0.33277706E-23
    0.053393726679         0.43677419E-08      0.49686510E-05      0.91524308E-14      0.25191145E-13      0.46402980E-22      0.12288980E-14      0.34735134E-23
    0.056534534131         0.49107496E-08      0.47013657E-05     -0.74591807E-14      0.25310497E-13     -0.40157603E-22      0.13083934E-14      0.33473861E-23
    0.059675341583         0.54881104E-08      0.44615615E-05      0.12571457E-13      0.25430651E-13      0.71656605E-22      0.13882662E-14      0.35724457E-23
    0.062816149035         0.61003835E-08      0.42479866E-05      0.61769469E-14      0.25568876E-13      0.37179400E-22      0.14685731E-14      0.36892191E-23
    0.065956956486         0.67481601E-08      0.40541322E-05      0.47705171E-15      0.25707826E-13      0.30250524E-23      0.15493164E-14      0.36987202E-23
    0.069097763938         0.74320630E-08      0.38736570E-05     -0.95498380E-15      0.25823151E-13     -0.63662556E-23      0.16304220E-14      0.36787250E-23
    0.072238571390         0.81527474E-08      0.37083587E-05      0.10418304E-13      0.25939359E-13      0.72874321E-22      0.17118925E-14      0.39076092E-23
    0.075379378841         0.89109006E-08      0.35574206E-05      0.10361938E-14      0.26064352E-13      0.75919389E-23      0.17937556E-14      0.39314540E-23
    0.078520186293         0.97072426E-08      0.34180729E-05     -0.15627272E-14      0.26190185E-13     -0.11974032E-22      0.18760139E-14      0.38938459E-23
    0.081660993745         0.10542526E-07      0.32890524E-05      0.48137481E-15      0.26317431E-13      0.38517320E-23      0.19586719E-14      0.39059435E-23
    0.084801801197         0.11417538E-07      0.31691483E-05      0.21981983E-14      0.26445550E-13      0.18343277E-22      0.20417323E-14      0.39635562E-23
    0.087942608648         0.12333096E-07      0.30574036E-05      0.56199783E-14      0.26574691E-13      0.48848370E-22      0.21251983E-14      0.41169795E-23
    0.091083416100         0.13290054E-07      0.29529623E-05     -0.52524360E-14      0.26704720E-13     -0.47499702E-22      0.22090727E-14      0.39677921E-23
    0.094224223552         0.14289299E-07      0.28552020E-05     -0.12272526E-14      0.26836623E-13     -0.11535197E-22      0.22933613E-14      0.39315622E-23
    0.097365031004         0.15331753E-07      0.27633835E-05      0.10161066E-14      0.26969483E-13      0.99167818E-23      0.23780673E-14      0.39627089E-23
    0.100505838455         0.16418370E-07      0.26769880E-05      0.33301054E-15      0.27103655E-13      0.33716260E-23      0.24631946E-14      0.39732986E-23
    0.103646645907         0.17550142E-07      0.25954973E-05      0.87935511E-15      0.27238842E-13      0.92285260E-23      0.25487466E-14      0.40022836E-23
    0.106787453359         0.18728094E-07      0.25185096E-05      0.71509441E-15      0.27375347E-13      0.77728342E-23      0.26347273E-14      0.40266966E-23
    0.109928260810         0.19953287E-07      0.24456201E-05     -0.63683162E-14      0.27512926E-13     -0.71642774E-22      0.27211401E-14      0.38016804E-23
    0.113069068262         0.21226819E-07      0.23765278E-05     -0.76290367E-17      0.27652009E-13     -0.88767399E-25      0.28079897E-14      0.38014016E-23
    0.116209875714         0.22549823E-07      0.23108926E-05     -0.39364251E-14      0.27792176E-13     -0.47341800E-22      0.28952796E-14      0.36527101E-23
    0.119350683166         0.23923468E-07      0.22484803E-05     -0.48783067E-15      0.27933863E-13     -0.60605355E-23      0.29830145E-14      0.36336751E-23
    0.122491490617         0.25348961E-07      0.21890184E-05     -0.87057928E-15      0.28076717E-13     -0.11166196E-22      0.30711981E-14      0.35986043E-23
    0.125632298069         0.26827544E-07      0.21323234E-05      0.10100192E-14      0.28221193E-13      0.13367553E-22      0.31598354E-14      0.36405892E-23
    0.128773105521         0.28360500E-07      0.20781654E-05     -0.91207054E-15      0.28366876E-13     -0.12449727E-22      0.32489303E-14      0.36014870E-23
    0.131913912973         0.29949146E-07      0.20263954E-05      0.19412988E-15      0.28514168E-13      0.27316742E-23      0.33384878E-14      0.36100667E-23
    0.135054720424         0.31594841E-07      0.19768300E-05     -0.64353426E-15      0.28662785E-13     -0.93308400E-23      0.34285121E-14      0.35807603E-23
    0.138195527876         0.33298978E-07      0.19293411E-05     -0.52618615E-15      0.28813008E-13     -0.78581262E-23      0.35190082E-14      0.35560794E-23
    0.141336335328         0.35062992E-07      0.18837787E-05     -0.17279678E-15      0.28964612E-13     -0.26568894E-23      0.36099805E-14      0.35477346E-23
    0.144477142779         0.36888357E-07      0.18400458E-05     -0.14410332E-15      0.29117996E-13     -0.22803780E-23      0.37014345E-14      0.35405724E-23
    0.147617950231         0.38776586E-07      0.17980044E-05     -0.12563913E-15      0.29272771E-13     -0.20454930E-23      0.37933746E-14      0.35341479E-23
    0.150758757683         0.40729231E-07      0.17575771E-05      0.18467942E-15      0.29429354E-13      0.30923230E-23      0.38858065E-14      0.35438603E-23
    0.153899565135         0.42747886E-07      0.17186461E-05      0.17024269E-16      0.29587371E-13      0.29308149E-24      0.39787348E-14      0.35447808E-23
    0.157040372586         0.44834184E-07      0.16811425E-05      0.75895541E-15      0.29747136E-13      0.13429409E-22      0.40721648E-14      0.35869600E-23
    0.160181180038         0.46989799E-07      0.16449843E-05      0.12381059E-15      0.29908631E-13      0.22510885E-23      0.41661021E-14      0.35940302E-23
    0.163321987490         0.49216447E-07      0.16100950E-05      0.12117065E-14      0.30071824E-13      0.22631103E-22      0.42605519E-14      0.36651102E-23
    0.166462794942         0.51515886E-07      0.15764152E-05      0.17505748E-14      0.30236902E-13      0.33577420E-22      0.43555202E-14      0.37705704E-23
    0.169603602393         0.53889915E-07      0.15438797E-05      0.11884997E-14      0.30403848E-13      0.23405298E-22      0.44510128E-14      0.38440819E-23
    0.172744409845         0.56340375E-07      0.15124113E-05      0.75221729E-16      0.30572315E-13      0.15205535E-23      0.45470345E-14      0.38488577E-23
    0.175885217297         0.58869149E-07      0.14819769E-05     -0.40581379E-16      0.30742737E-13     -0.84183678E-24      0.46435916E-14      0.38462136E-23
    0.179026024748         0.61478167E-07      0.14525306E-05     -0.64808299E-15      0.30915246E-13     -0.13793613E-22      0.47406904E-14      0.38028906E-23
    0.182166832200         0.64169396E-07      0.14240174E-05     -0.52044401E-15      0.31089706E-13     -0.11362538E-22      0.48383372E-14      0.37672030E-23
    0.185307639652         0.66944851E-07      0.13963952E-05     -0.21665182E-15      0.31266184E-13     -0.48509731E-23      0.49365382E-14      0.37519670E-23
    0.188448447104         0.69806589E-07      0.13696272E-05      0.85987748E-15      0.31444804E-13      0.19741634E-22      0.50353003E-14      0.38139717E-23
    0.191589254555         0.72756711E-07      0.13436816E-05      0.35237547E-15      0.31625758E-13      0.82937370E-23      0.51346307E-14      0.38400207E-23
    0.194730062007         0.75797365E-07      0.13185186E-05     -0.22451874E-15      0.31809001E-13     -0.54164703E-23      0.52345367E-14      0.38230087E-23
    0.197870869459         0.78930738E-07      0.12940972E-05     -0.39937466E-16      0.31994393E-13     -0.98738718E-24      0.53350249E-14      0.38199075E-23
    0.201011676911         0.82159069E-07      0.12703880E-05     -0.18331289E-15      0.32182020E-13     -0.46437615E-23      0.54361024E-14      0.38053223E-23
    0.204152484362         0.85484636E-07      0.12473710E-05     -0.15938461E-15      0.32372162E-13     -0.41363994E-23      0.55377772E-14      0.37923307E-23
    0.207293291814         0.88909765E-07      0.12249892E-05      0.17672617E-15      0.32564105E-13      0.46979431E-23      0.56400547E-14      0.38070860E-23
    0.210434099266         0.92436830E-07      0.12032483E-05      0.17242788E-15      0.32758715E-13      0.46943892E-23      0.57429436E-14      0.38218302E-23
    0.213574906717         0.96068246E-07      0.11820924E-05      0.16084024E-15      0.32955183E-13      0.44840148E-23      0.58464494E-14      0.38359136E-23
    0.216715714169         0.99806478E-07      0.11615333E-05      0.25937315E-15      0.33154515E-13      0.74034819E-23      0.59505814E-14      0.38591665E-23
    0.219856521621         0.10365403E-06      0.11415217E-05      0.17353292E-16      0.33355980E-13      0.50707408E-24      0.60553461E-14      0.38607591E-23
    0.222997329073         0.10761347E-06      0.11220619E-05     -0.23781207E-15      0.33560349E-13     -0.71128484E-23      0.61607527E-14      0.38384190E-23
    0.226138136524         0.11168740E-06      0.11031120E-05      0.44924482E-16      0.33767013E-13      0.13751691E-23      0.62668084E-14      0.38427382E-23
    0.229278943976         0.11587846E-06      0.10846841E-05     -0.75367436E-16      0.33976956E-13     -0.23608312E-23      0.63735235E-14      0.38353233E-23
    0.232419751428         0.12018935E-06      0.10667375E-05      0.21460596E-15      0.34189533E-13      0.68782411E-23      0.64809062E-14      0.38569265E-23
    0.235560558880         0.12462281E-06      0.10492816E-05     -0.56757339E-16      0.34405645E-13     -0.18610569E-23      0.65889677E-14      0.38510813E-23
    0.238701366331         0.12918164E-06      0.10322617E-05      0.41919296E-15      0.34624092E-13      0.14060558E-22      0.66977153E-14      0.38952428E-23
    0.241842173783         0.13386868E-06      0.10157049E-05     -0.84391095E-16      0.34846338E-13     -0.28952511E-23      0.68071609E-14      0.38861494E-23
    0.244982981235         0.13868680E-06      0.99955939E-06     -0.31994430E-16      0.35071190E-13     -0.11225774E-23      0.69173128E-14      0.38826236E-23
    0.248123788686         0.14363896E-06      0.98385028E-06      0.56652220E-16      0.35300066E-13      0.20326539E-23      0.70281835E-14      0.38890077E-23
    0.251264596138         0.14872811E-06      0.96851703E-06      0.12363510E-15      0.35531349E-13      0.45357198E-23      0.71397806E-14      0.39032536E-23
    0.254405403590         0.15395730E-06      0.95360820E-06      0.10748143E-15      0.35767337E-13      0.40313458E-23      0.72521190E-14      0.39159152E-23
    0.257546211042         0.15932959E-06      0.93905068E-06     -0.13024020E-16      0.36005844E-13     -0.49937754E-24      0.73652064E-14      0.39143468E-23
    0.260687018493         0.16484812E-06      0.92489265E-06      0.49533388E-15      0.36249215E-13      0.19413566E-22      0.74790582E-14      0.39753211E-23
    0.263827825945         0.17051605E-06      0.91106439E-06      0.87718182E-16      0.36495257E-13      0.35137995E-23      0.75936828E-14      0.39863572E-23
    0.266968633397         0.17633661E-06      0.89761754E-06     -0.13436898E-16      0.36746523E-13     -0.55007759E-24      0.77090965E-14      0.39846295E-23
    0.270109440849         0.18231305E-06      0.88448038E-06     -0.19451236E-15      0.37000609E-13     -0.81370665E-23      0.78253083E-14      0.39590726E-23
    0.273250248300         0.18844869E-06      0.87170905E-06      0.33426398E-16      0.37260337E-13      0.14287782E-23      0.79423358E-14      0.39635601E-23
    0.276391055752         0.19474689E-06      0.85922681E-06      0.27296509E-16      0.37522955E-13      0.11920551E-23      0.80601882E-14      0.39673041E-23
    0.279531863204         0.20121105E-06      0.84709946E-06      0.80698252E-16      0.37791802E-13      0.36002058E-23      0.81788850E-14      0.39786117E-23
    0.282672670655         0.20784464E-06      0.83523852E-06      0.16278924E-15      0.38063455E-13      0.74186244E-23      0.82984350E-14      0.40019121E-23
    0.285813478107         0.21465116E-06      0.82372442E-06     -0.93708293E-16      0.38342034E-13     -0.43618551E-23      0.84188599E-14      0.39882124E-23
    0.288954285559         0.22163414E-06      0.81245139E-06      0.64553791E-16      0.38623140E-13      0.30688237E-23      0.85401678E-14      0.39978510E-23
    0.292095093011         0.22879719E-06      0.80153258E-06      0.15045790E-15      0.38912602E-13      0.73043925E-23      0.86623848E-14      0.40207927E-23
    0.295235900462         0.23614394E-06      0.79083361E-06      0.47058869E-16      0.39204456E-13      0.23328768E-23      0.87855184E-14      0.40281198E-23
    0.298376707914         0.24367808E-06      0.78047395E-06      0.40573833E-16      0.39505052E-13      0.20537154E-23      0.89095962E-14      0.40345701E-23
    0.301517515366         0.25140334E-06      0.77031865E-06      0.16251260E-15      0.39808113E-13      0.83982390E-23      0.90346258E-14      0.40609474E-23
    0.304658322818         0.25932350E-06      0.76050000E-06      0.56639818E-16      0.40120906E-13      0.29880879E-23      0.91606378E-14      0.40703324E-23
    0.307799130269         0.26744238E-06      0.75087105E-06      0.13152368E-15      0.40436250E-13      0.70828731E-23      0.92876403E-14      0.40925783E-23
    0.310939937721         0.27576385E-06      0.74157458E-06      0.13928567E-15      0.40762267E-13      0.76561415E-23      0.94156667E-14      0.41166248E-23
    0.314080745173         0.28429181E-06      0.73244770E-06     -0.70746635E-16      0.41090585E-13     -0.39689122E-23      0.95447243E-14      0.41041592E-23
    0.317221552624         0.29303021E-06      0.72366340E-06      0.15713963E-15      0.41431342E-13      0.89965940E-23      0.96748522E-14      0.41324158E-23
    0.320362360076         0.30198307E-06      0.71502973E-06      0.35387295E-16      0.41774175E-13      0.20674316E-23      0.98060568E-14      0.41389092E-23
    0.323503167528         0.31115440E-06      0.70673954E-06     -0.10483555E-15      0.42130778E-13     -0.62495487E-23      0.99383815E-14      0.41192805E-23
    0.326643974980         0.32054830E-06      0.69858190E-06      0.60799554E-17      0.42489228E-13      0.36979574E-24      0.10071832E-13      0.41204420E-23
    0.329784782431         0.33016890E-06      0.69077704E-06     -0.12942925E-15      0.42863350E-13     -0.80312038E-23      0.10206458E-13      0.40952175E-23
    0.332925589883         0.34002034E-06      0.68308616E-06     -0.70476166E-17      0.43239024E-13     -0.44611072E-24      0.10342263E-13      0.40938164E-23
    0.336066397335         0.35010685E-06      0.67575886E-06      0.33537303E-16      0.43632484E-13      0.21654408E-23      0.10479304E-13      0.41006176E-23
    0.339207204787         0.36043265E-06      0.66852521E-06     -0.77293501E-16      0.44027044E-13     -0.50903157E-23      0.10617585E-13      0.40846299E-23
    0.342348012238         0.37100205E-06      0.66167268E-06     -0.22371272E-16      0.44442080E-13     -0.15025947E-23      0.10757169E-13      0.40799105E-23
    0.345488819690         0.38181936E-06      0.65488932E-06     -0.50056840E-16      0.44857445E-13     -0.34287045E-23      0.10898057E-13      0.40691416E-23
    0.348629627142         0.39288894E-06      0.64851112E-06     -0.13761328E-15      0.45296601E-13     -0.96118843E-23      0.11040325E-13      0.40389526E-23
    0.351770434593         0.40421519E-06      0.64217678E-06     -0.12567875E-15      0.45735198E-13     -0.89507166E-23      0.11183971E-13      0.40108401E-23
    0.354911242045         0.41580254E-06      0.63627601E-06     -0.63256065E-16      0.46201450E-13     -0.45931669E-23      0.11329080E-13      0.39964138E-23
    0.358052049497         0.42765547E-06      0.63038958E-06     -0.11001216E-15      0.46665892E-13     -0.81438774E-23      0.11475649E-13      0.39708355E-23
    0.361192856949         0.43977848E-06      0.62497588E-06     -0.68764592E-17      0.47162927E-13     -0.51892233E-24      0.11623779E-13      0.39692056E-23
    0.364333664400         0.45217610E-06      0.61954016E-06      0.40323443E-16      0.47656314E-13      0.31017628E-23      0.11773458E-13      0.39789477E-23
    0.367474471852         0.46485292E-06      0.61462830E-06     -0.27723316E-16      0.48188524E-13     -0.21735830E-23      0.11924809E-13      0.39721209E-23
    0.370615279304         0.47781353E-06      0.60965166E-06     -0.77581086E-17      0.48714647E-13     -0.61991716E-24      0.12077812E-13      0.39701738E-23
    0.373756086755         0.49106257E-06      0.60526224E-06      0.11381601E-17      0.49287276E-13      0.92681831E-25      0.12232614E-13      0.39704649E-23
    0.376896894207         0.50460471E-06      0.60075719E-06      0.94207528E-17      0.49850600E-13      0.78173044E-24      0.12389185E-13      0.39729202E-23
    0.380037701659         0.51844464E-06      0.59692098E-06     -0.48078596E-16      0.50470223E-13     -0.40650899E-23      0.12547702E-13      0.39601525E-23
    0.383178509111         0.53258708E-06      0.59290676E-06      0.10876806E-16      0.51076198E-13      0.93698695E-24      0.12708123E-13      0.39630954E-23
