 
 # Omega; pulse ft; proj flux t=    1000.25000000000     
    0.000000000000         0.64285036E-11      0.00000000E+00      0.00000000E+00      0.29597124E-12      0.21063981E-23      0.92935641E-15      0.66141378E-26
    0.003140022642         0.21245158E-10      0.41356246E-03      0.56739164E-14      0.17342471E-12      0.23793197E-23      0.14739139E-14      0.14085256E-25
    0.006280045285         0.65709671E-10      0.62613809E-04      0.28471675E-14      0.40604982E-13      0.18463848E-23      0.16014145E-14      0.19882946E-25
    0.009420067927         0.13986570E-09      0.61946027E-05      0.13198955E-14      0.57005047E-14      0.12146171E-23      0.16193142E-14      0.23696871E-25
    0.012560090569         0.24378600E-09      0.35505853E-05      0.32673644E-14      0.42712858E-14      0.39305764E-23      0.16327261E-14      0.36038970E-25
    0.015700113211         0.37757252E-09      0.19035439E-05      0.11114761E-14      0.28372863E-14      0.16566867E-23      0.16416353E-14      0.41241004E-25
    0.018840135854         0.54135636E-09      0.14861954E-05      0.22857692E-14      0.26467798E-14      0.40707485E-23      0.16499462E-14      0.54023246E-25
    0.021980158496         0.73529789E-09      0.12008450E-05      0.23717271E-14      0.24897866E-14      0.49174494E-23      0.16577642E-14      0.69464148E-25
    0.025120181138         0.95958676E-09      0.28825544E-06      0.18022420E-14      0.68246702E-15      0.42669472E-23      0.16599072E-14      0.82862459E-25
    0.028260203780         0.12144420E-08     -0.37556131E-06      0.14454289E-14     -0.10002879E-14      0.38498244E-23      0.16567662E-14      0.94950995E-25
    0.031400226423         0.15001122E-08     -0.16242460E-06      0.76065105E-15     -0.48093396E-15      0.22522631E-23      0.16552561E-14      0.10202315E-24
    0.034540249065         0.18168754E-08     -0.16953294E-07      0.88514948E-15     -0.55270890E-16      0.28857518E-23      0.16550825E-14      0.11108448E-24
    0.037680271707         0.21650394E-08      0.54812714E-07      0.98888920E-15      0.19519818E-15      0.35216167E-23      0.16556955E-14      0.12214243E-24
    0.040820294349         0.25449417E-08      0.11621840E-06      0.64071750E-15      0.44907542E-15      0.24757738E-23      0.16571056E-14      0.12991642E-24
    0.043960316992         0.29569499E-08      0.13165594E-06      0.82124539E-15      0.54886595E-15      0.34237241E-23      0.16588290E-14      0.14066699E-24
    0.047100339634         0.34014614E-08      0.14507440E-06      0.10660712E-14      0.64934422E-15      0.47716700E-23      0.16608680E-14      0.15565014E-24
    0.050240362276         0.38789041E-08      0.13817932E-06      0.63261702E-15      0.66121397E-15      0.30271910E-23      0.16629442E-14      0.16515559E-24
    0.053380384919         0.43897362E-08      0.13405389E-06      0.31107864E-15      0.68324871E-15      0.15855122E-23      0.16650896E-14      0.17013414E-24
    0.056520407561         0.49344463E-08      0.10510727E-06      0.50377366E-15      0.56873320E-15      0.27259085E-23      0.16668755E-14      0.17869355E-24
    0.059660430203         0.55135541E-08      0.84314472E-07      0.21435803E-15      0.48293653E-15      0.12278001E-23      0.16683919E-14      0.18254887E-24
    0.062800452845         0.61276098E-08     -0.22205985E-07      0.30659328E-15     -0.13428919E-15      0.18541021E-23      0.16679702E-14      0.18837079E-24
    0.065940475488         0.67771950E-08     -0.85391776E-07      0.50669262E-15     -0.54394706E-15      0.32276405E-23      0.16662622E-14      0.19850566E-24
    0.069080498130         0.74629227E-08     -0.76460600E-06      0.41788605E-15     -0.51195744E-14      0.27980408E-23      0.16501866E-14      0.20729157E-24
    0.072220520772         0.81854373E-08     -0.21766134E-05      0.29294245E-15     -0.15289921E-13      0.20578146E-23      0.16021759E-14      0.21375315E-24
    0.075360543414         0.89454151E-08     -0.96610406E-06      0.21467268E-15     -0.71076014E-14      0.15793411E-23      0.15798579E-14      0.21871232E-24
    0.078500566057         0.97435644E-08      0.13637005E-05      0.27863460E-15      0.10490755E-13      0.21434966E-23      0.16127991E-14      0.22544295E-24
    0.081640588699         0.10580626E-07      0.13789386E-05      0.35671112E-15      0.11076252E-13      0.28652635E-23      0.16475788E-14      0.23443994E-24
    0.084780611341         0.11457373E-07      0.92330600E-06      0.21441700E-15      0.77335132E-14      0.17959341E-23      0.16718622E-14      0.24007921E-24
    0.087920633984         0.12374611E-07      0.84119197E-06      0.36349104E-15      0.73380139E-14      0.31708604E-23      0.16949037E-14      0.25003579E-24
    0.091060656626         0.13333179E-07      0.75937755E-06      0.34143129E-15      0.68913351E-14      0.30984816E-23      0.17165427E-14      0.25976509E-24
    0.094200679268         0.14333950E-07      0.68787283E-06      0.40061628E-15      0.64872807E-14      0.37781842E-23      0.17369129E-14      0.27162867E-24
    0.097340701910         0.15377830E-07      0.66392108E-06      0.27804298E-15      0.65006938E-14      0.27224204E-23      0.17573252E-14      0.28017714E-24
    0.100480724553         0.16465758E-07      0.59916410E-06      0.40884794E-15      0.60853763E-14      0.41524410E-23      0.17764334E-14      0.29321589E-24
    0.103620747195         0.17598710E-07      0.44793510E-06     -0.11930696E-16      0.47151105E-14     -0.12558639E-24      0.17912390E-14      0.29282155E-24
    0.106760769837         0.18777693E-07      0.40990773E-06      0.41441315E-16      0.44684748E-14      0.45175892E-24      0.18052701E-14      0.29424008E-24
    0.109900792479         0.20003751E-07      0.40269465E-06      0.35203309E-16      0.45428579E-14      0.39713374E-24      0.18195348E-14      0.29548709E-24
    0.113040815122         0.21277963E-07      0.37822971E-06      0.21809533E-15      0.44125851E-14      0.25443908E-23      0.18333904E-14      0.30347654E-24
    0.116180837764         0.22601444E-07      0.36675275E-06      0.20367081E-15      0.44219897E-14      0.24556877E-23      0.18472756E-14      0.31118745E-24
    0.119320860406         0.23975342E-07      0.35168142E-06      0.18773337E-15      0.43796614E-14      0.23379358E-23      0.18610278E-14      0.31852862E-24
    0.122460883048         0.25400844E-07      0.34216740E-06      0.22053330E-15      0.43987782E-14      0.28350950E-23      0.18748401E-14      0.32743089E-24
    0.125600905691         0.26879174E-07      0.33836871E-06      0.15066857E-15      0.44880327E-14      0.19984279E-23      0.18889326E-14      0.33370599E-24
    0.128740928333         0.28411589E-07      0.33401669E-06      0.22673213E-15      0.45686693E-14      0.31012346E-23      0.19032783E-14      0.34344394E-24
    0.131880950975         0.29999386E-07      0.33688615E-06      0.18612185E-15      0.47495901E-14      0.26240393E-23      0.19181921E-14      0.35168348E-24
    0.135020973618         0.31643900E-07      0.33709375E-06      0.21344993E-15      0.48964593E-14      0.31004695E-23      0.19335671E-14      0.36141903E-24
    0.138160996260         0.33346502E-07      0.34157546E-06      0.18822510E-15      0.51096853E-14      0.28156912E-23      0.19496116E-14      0.37026036E-24
    0.141301018902         0.35108601E-07      0.34421429E-06      0.10380408E-15      0.53007802E-14      0.15985467E-23      0.19662562E-14      0.37527984E-24
    0.144441041544         0.36931646E-07      0.34865340E-06      0.14931326E-15      0.55251571E-14      0.23661872E-23      0.19836053E-14      0.38270972E-24
    0.147581064187         0.38817124E-07      0.35233617E-06      0.13611336E-15      0.57437116E-14      0.22188920E-23      0.20016407E-14      0.38967709E-24
    0.150721086829         0.40766561E-07      0.35663337E-06      0.19424617E-15      0.59785342E-14      0.32563060E-23      0.20204134E-14      0.39990196E-24
    0.153861109471         0.42781523E-07      0.36049089E-06      0.23670442E-15      0.62124706E-14      0.40792134E-23      0.20399207E-14      0.41271078E-24
    0.157001132113         0.44863615E-07      0.36427930E-06      0.20340330E-15      0.64516180E-14      0.36024018E-23      0.20601790E-14      0.42402241E-24
    0.160141154756         0.47014483E-07      0.36759651E-06      0.19687462E-15      0.66887162E-14      0.35822930E-23      0.20811817E-14      0.43527089E-24
    0.163281177398         0.49235812E-07      0.37016427E-06      0.22826543E-15      0.69180254E-14      0.42660682E-23      0.21029044E-14      0.44866644E-24
    0.166421200040         0.51529331E-07      0.37245457E-06      0.19925336E-15      0.71476263E-14      0.38237913E-23      0.21253482E-14      0.46067323E-24
    0.169561222683         0.53896806E-07      0.37350990E-06      0.10951997E-15      0.73583644E-14      0.21576077E-23      0.21484536E-14      0.46744817E-24
    0.172701245325         0.56340048E-07      0.37372702E-06      0.13856799E-15      0.75564693E-14      0.28017367E-23      0.21721811E-14      0.47624568E-24
    0.175841267967         0.58860908E-07      0.37375936E-06      0.76607643E-16      0.77542696E-14      0.15893550E-23      0.21965297E-14      0.48123630E-24
    0.178981290609         0.61461278E-07      0.37202379E-06      0.12429088E-15      0.79178513E-14      0.26453059E-23      0.22213919E-14      0.48954262E-24
    0.182121313252         0.64143096E-07      0.36991613E-06      0.14923461E-15      0.80748617E-14      0.32576271E-23      0.22467471E-14      0.49977164E-24
    0.185261335894         0.66908339E-07      0.36733036E-06      0.11114217E-15      0.82223310E-14      0.24878089E-23      0.22725654E-14      0.50758342E-24
    0.188401358536         0.69759030E-07      0.36358012E-06      0.11253866E-15      0.83437101E-14      0.25826218E-23      0.22987649E-14      0.51569291E-24
    0.191541381178         0.72697233E-07      0.35979492E-06      0.10706682E-15      0.84635578E-14      0.25185631E-23      0.23253406E-14      0.52360125E-24
    0.194681403821         0.75725056E-07      0.35475061E-06      0.88257243E-16      0.85522613E-14      0.21276891E-23      0.23521949E-14      0.53028224E-24
    0.197821426463         0.78844653E-07      0.34986745E-06      0.15563138E-15      0.86426144E-14      0.38444902E-23      0.23793329E-14      0.54235403E-24
    0.200961449105         0.82058219E-07      0.34401264E-06      0.10202863E-15      0.87061552E-14      0.25821060E-23      0.24066705E-14      0.55046190E-24
    0.204101471747         0.85367996E-07      0.33817175E-06      0.13254984E-15      0.87665546E-14      0.34361400E-23      0.24341976E-14      0.56125146E-24
    0.207241494390         0.88776268E-07      0.33154809E-06      0.68198517E-16      0.88025677E-14      0.18106636E-23      0.24618379E-14      0.56693698E-24
    0.210381517032         0.92285368E-07      0.32498575E-06      0.34528327E-16      0.88355229E-14      0.93873600E-24      0.24895817E-14      0.56988464E-24
    0.213521539674         0.95897669E-07      0.31769364E-06      0.96196078E-16      0.88433650E-14      0.26777276E-23      0.25173500E-14      0.57829276E-24
    0.216661562317         0.99615594E-07      0.31054499E-06      0.68207145E-16      0.88493762E-14      0.19436497E-23      0.25451373E-14      0.58439586E-24
    0.219801584959         0.10344161E-06      0.30282178E-06      0.47691939E-16      0.88327152E-14      0.13910800E-23      0.25728722E-14      0.58876389E-24
    0.222941607601         0.10737822E-06      0.29525469E-06      0.52324488E-16      0.88138278E-14      0.15619702E-23      0.26005478E-14      0.59366851E-24
    0.226081630243         0.11142800E-06      0.28725541E-06      0.51198270E-16      0.87748549E-14      0.15639650E-23      0.26281010E-14      0.59857939E-24
    0.229221652886         0.11559354E-06      0.27944802E-06      0.59872437E-16      0.87341698E-14      0.18713177E-23      0.26555265E-14      0.60445537E-24
    0.232361675528         0.11987749E-06      0.27131200E-06      0.10769437E-15      0.86753067E-14      0.34435695E-23      0.26827672E-14      0.61526826E-24
    0.235501698170         0.12428256E-06      0.26342897E-06     -0.17497849E-17      0.86163308E-14     -0.57232600E-25      0.27098227E-14      0.61508855E-24
    0.238641720812         0.12881148E-06      0.25532827E-06      0.13035291E-16      0.85418076E-14      0.43608547E-24      0.27366441E-14      0.61645787E-24
    0.241781743455         0.13346705E-06      0.24748403E-06      0.91308057E-16      0.84672114E-14      0.31239374E-23      0.27632314E-14      0.62626710E-24
    0.244921766097         0.13825210E-06      0.23948100E-06      0.72848709E-16      0.83783421E-14      0.25486423E-23      0.27895396E-14      0.63426990E-24
    0.248061788739         0.14316951E-06      0.23179276E-06      0.76679352E-17      0.82915021E-14      0.27429114E-24      0.28155751E-14      0.63513118E-24
    0.251201811381         0.14822222E-06      0.22403142E-06      0.50523375E-16      0.81929847E-14      0.18476750E-23      0.28413012E-14      0.64093292E-24
    0.254341834024         0.15341320E-06      0.21658119E-06      0.41133794E-16      0.80967055E-14      0.15377523E-23      0.28667251E-14      0.64576149E-24
    0.257481856666         0.15874548E-06      0.20912200E-06      0.27980931E-16      0.79909264E-14      0.10692016E-23      0.28918167E-14      0.64911881E-24
    0.260621879308         0.16422213E-06      0.20199942E-06      0.40613104E-16      0.78888484E-14      0.15860967E-23      0.29165879E-14      0.65409919E-24
    0.263761901951         0.16984627E-06      0.19490005E-06      0.48061347E-16      0.77785485E-14      0.19181499E-23      0.29410127E-14      0.66012223E-24
    0.266901924593         0.17562106E-06      0.18808058E-06      0.56837597E-16      0.76702852E-14      0.23179457E-23      0.29650976E-14      0.66740063E-24
    0.270041947235         0.18154971E-06      0.18139815E-06      0.84249784E-16      0.75585738E-14      0.35105551E-23      0.29888317E-14      0.67842385E-24
    0.273181969877         0.18763548E-06      0.17501483E-06      0.43732520E-16      0.74504151E-14      0.18617018E-23      0.30122262E-14      0.68426964E-24
    0.276321992520         0.19388169E-06      0.16873362E-06      0.23088179E-16      0.73377961E-14      0.10040462E-23      0.30352670E-14      0.68742236E-24
    0.279462015162         0.20029168E-06      0.16275620E-06      0.59354462E-16      0.72297010E-14      0.26365509E-23      0.30579684E-14      0.69570119E-24
    0.282602037804         0.20686884E-06      0.15690871E-06      0.68291715E-16      0.71188446E-14      0.30983501E-23      0.30803218E-14      0.70543008E-24
    0.285742060446         0.21361663E-06      0.15133096E-06      0.84626543E-16      0.70118297E-14      0.39211203E-23      0.31023391E-14      0.71774249E-24
    0.288882083089         0.22053854E-06      0.14593789E-06      0.81191223E-16      0.69051740E-14      0.38416310E-23      0.31240215E-14      0.72980530E-24
    0.292022105731         0.22763810E-06      0.14084823E-06      0.55645555E-16      0.68049244E-14      0.26884526E-23      0.31453891E-14      0.73824710E-24
    0.295162128373         0.23491890E-06      0.13589483E-06      0.65921710E-16      0.67035203E-14      0.32518347E-23      0.31664383E-14      0.74845793E-24
    0.298302151016         0.24238456E-06      0.13126721E-06      0.47857785E-16      0.66107009E-14      0.24101487E-23      0.31871960E-14      0.75602586E-24
    0.301442173658         0.25003877E-06      0.12673531E-06      0.46846337E-16      0.65154382E-14      0.24083614E-23      0.32076547E-14      0.76358817E-24
    0.304582196300         0.25788523E-06      0.12248820E-06      0.45670400E-16      0.64277488E-14      0.23966215E-23      0.32278379E-14      0.77111361E-24
    0.307722218942         0.26592771E-06      0.11836566E-06      0.42550922E-16      0.63397650E-14      0.22790633E-23      0.32477450E-14      0.77826992E-24
    0.310862241585         0.27417002E-06      0.11452736E-06      0.28227929E-16      0.62604265E-14      0.15430276E-23      0.32674028E-14      0.78311506E-24
    0.314002264227         0.28261602E-06      0.11082437E-06      0.36420178E-17      0.61821844E-14      0.20316493E-24      0.32868150E-14      0.78375301E-24
    0.317142286869         0.29126959E-06      0.10745492E-06     -0.65505159E-17      0.61165985E-14     -0.37287149E-24      0.33060213E-14      0.78258218E-24
    0.320282309511         0.30013468E-06      0.10409565E-06      0.60869315E-16      0.60458657E-14      0.35352840E-23      0.33250054E-14      0.79368305E-24
    0.323422332154         0.30921526E-06      0.10113585E-06      0.14726749E-16      0.59929231E-14      0.87265079E-24      0.33438234E-14      0.79642320E-24
    0.326562354796         0.31851537E-06      0.98061125E-07      0.41791919E-17      0.59279403E-14      0.25263834E-24      0.33624372E-14      0.79721649E-24
    0.329702377438         0.32803906E-06      0.95677021E-07      0.35346557E-16      0.59000244E-14      0.21796827E-23      0.33809634E-14      0.80406074E-24
    0.332842400080         0.33779045E-06      0.92699724E-07      0.19639653E-16      0.58308227E-14      0.12353363E-23      0.33992724E-14      0.80793972E-24
    0.335982422723         0.34777368E-06      0.90663636E-07      0.30578162E-17      0.58164226E-14      0.19617073E-24      0.34175361E-14      0.80855570E-24
    0.339122445365         0.35799293E-06      0.89071908E-07      0.47575962E-16      0.58277559E-14      0.31127782E-23      0.34358353E-14      0.81832990E-24
    0.342262468007         0.36845245E-06      0.85904292E-07      0.34685082E-16      0.57316505E-14      0.23142356E-23      0.34538328E-14      0.82559665E-24
    0.345402490650         0.37915648E-06      0.84584818E-07      0.16710173E-16      0.57547719E-14      0.11368853E-23      0.34719030E-14      0.82916649E-24
    0.348542513292         0.39010935E-06      0.83161901E-07      0.40179736E-16      0.57689620E-14      0.27872784E-23      0.34900176E-14      0.83791861E-24
    0.351682535934         0.40131538E-06      0.81348622E-07      0.18397757E-16      0.57534438E-14      0.13011955E-23      0.35080836E-14      0.84200440E-24
    0.354822558576         0.41277896E-06      0.80312368E-07      0.14949004E-16      0.57907049E-14      0.10778573E-23      0.35262665E-14      0.84538889E-24
    0.357962581219         0.42450450E-06      0.79019439E-07      0.29850586E-16      0.58079289E-14      0.21940181E-23      0.35445036E-14      0.85227816E-24
    0.361102603861         0.43649646E-06      0.78224955E-07      0.32177765E-16      0.58605464E-14      0.24107305E-23      0.35629058E-14      0.85984791E-24
    0.364242626503         0.44875932E-06      0.77373732E-07      0.10652412E-16      0.59082510E-14      0.81341716E-24      0.35814578E-14      0.86240206E-24
    0.367382649145         0.46129760E-06      0.76914769E-07      0.38527587E-16      0.59857004E-14      0.29983135E-23      0.36002531E-14      0.87181683E-24
    0.370522671788         0.47411586E-06      0.76474394E-07      0.36326853E-16      0.60649666E-14      0.28809793E-23      0.36192972E-14      0.88086317E-24
    0.373662694430         0.48721866E-06      0.76460824E-07      0.14663917E-16      0.61791085E-14      0.11850505E-23      0.36386997E-14      0.88458425E-24
    0.376802717072         0.50061064E-06      0.76535974E-07      0.37290358E-16      0.63022313E-14      0.30706144E-23      0.36584889E-14      0.89422605E-24
    0.379942739715         0.51429644E-06      0.76990307E-07      0.35729678E-16      0.64591310E-14      0.29975549E-23      0.36787707E-14      0.90363844E-24
    0.383082762357         0.52828072E-06      0.77494417E-07      0.57201097E-17      0.66234649E-14      0.48889905E-24      0.36995685E-14      0.90517360E-24
