
 # Omega; pulse ft; projected flux at t=    1000.2500000000000     
    0.000000000000         0.18717486E-09      0.00000000E+00      0.00000000E+00      0.39189259E-12      0.10339758E-24
    0.003140022642         0.20186436E-09      0.15717290E-04     -0.52453909E-17      0.39348402E-12     -0.13131891E-24
    0.006280045285         0.24594737E-09      0.25909204E-04     -0.13080390E-16      0.39514459E-12     -0.19949070E-24
    0.009420067927         0.31946741E-09      0.30036171E-04     -0.73180075E-17      0.39667940E-12     -0.96646899E-25
    0.012560090569         0.42249703E-09      0.30399169E-04     -0.22357479E-16      0.39821274E-12     -0.29287092E-24
    0.015700113211         0.55513782E-09      0.29030868E-04     -0.15405461E-16      0.39974275E-12     -0.21212667E-24
    0.018840135854         0.71752051E-09      0.27057834E-04     -0.31368098E-17      0.40129695E-12     -0.46522283E-25
    0.021980158496         0.90980495E-09      0.24992042E-04     -0.12613644E-16      0.40284851E-12     -0.20332022E-24
    0.025120181138         0.11321802E-08      0.23041412E-04     -0.34799862E-17      0.40441236E-12     -0.61079133E-25
    0.028260203780         0.13848647E-08      0.21273274E-04      0.41321947E-17      0.40596531E-12      0.78856114E-25
    0.031400226423         0.16681061E-08      0.19699819E-04     -0.22342093E-16      0.40754508E-12     -0.46220780E-24
    0.034540249065         0.19821816E-08      0.18307405E-04      0.21339888E-17      0.40913563E-12      0.47690586E-25
    0.037680271707         0.23273981E-08      0.17076450E-04      0.88827386E-17      0.41074925E-12      0.21366140E-24
    0.040820294349         0.27040919E-08      0.15984940E-04      0.12004961E-17      0.41236222E-12      0.30969101E-25
    0.043960316992         0.31126296E-08      0.15014450E-04      0.34182709E-17      0.41399833E-12      0.94253101E-25
    0.047100339634         0.35534072E-08      0.14147116E-04      0.38550743E-17      0.41563431E-12      0.11325992E-24
    0.050240362276         0.40268513E-08      0.13369209E-04     -0.57249994E-17      0.41729298E-12     -0.17869435E-24
    0.053380384919         0.45334185E-08      0.12667735E-04      0.38012287E-17      0.41895330E-12      0.12571603E-24
    0.056520407561         0.50735959E-08      0.12033028E-04      0.10582094E-16      0.42063757E-12      0.36991739E-24
    0.059660430203         0.56479014E-08      0.11455691E-04     -0.35163656E-17      0.42232283E-12     -0.12963351E-24
    0.062800452845         0.62568834E-08      0.10928898E-04      0.71192501E-17      0.42402768E-12      0.27621807E-24
    0.065940475488         0.69011217E-08      0.10445981E-04      0.53737016E-17      0.42573503E-12      0.21900988E-24
    0.069080498130         0.75812269E-08      0.10001966E-04     -0.81206586E-17      0.42745654E-12     -0.34705462E-24
    0.072220520772         0.82978416E-08      0.95931891E-05      0.19924276E-17      0.42923000E-12      0.89147593E-25
    0.075360543414         0.90516395E-08      0.92159721E-05      0.21267847E-17      0.43106913E-12      0.99478516E-25
    0.078500566057         0.98433265E-08      0.88641834E-05     -0.41178622E-17      0.43284298E-12     -0.20107749E-24
    0.081640588699         0.10673641E-07      0.85367910E-05      0.24384280E-17      0.43463395E-12      0.12414777E-24
    0.084780611341         0.11543353E-07      0.82311903E-05      0.91279067E-18      0.43643604E-12      0.48398194E-25
    0.087920633984         0.12453265E-07      0.79457637E-05     -0.22259053E-18      0.43827895E-12     -0.12277831E-25
    0.091060656626         0.13404215E-07      0.76785715E-05      0.61046778E-17      0.44016304E-12      0.34994185E-24
    0.094200679268         0.14397070E-07      0.74289739E-05      0.28121979E-17      0.44215186E-12      0.16737420E-24
    0.097340701910         0.15432734E-07      0.71941949E-05      0.18496010E-17      0.44417401E-12      0.11419550E-24
    0.100480724553         0.16512144E-07      0.69707336E-05      0.22086522E-17      0.44608922E-12      0.14134179E-24
    0.103620747195         0.17636269E-07      0.67571894E-05     -0.17186407E-17      0.44786654E-12     -0.11391151E-24
    0.106760769837         0.18806114E-07      0.65559688E-05     -0.41520279E-17      0.44972476E-12     -0.28481981E-24
    0.109900792479         0.20022721E-07      0.63655214E-05      0.79556818E-18      0.45162584E-12      0.56444575E-25
    0.113040815122         0.21287162E-07      0.61849607E-05      0.15450215E-17      0.45356754E-12      0.11330251E-24
    0.116180837764         0.22600547E-07      0.60130073E-05     -0.41391267E-18      0.45551085E-12     -0.31355643E-25
    0.119320860406         0.23964023E-07      0.58491389E-05      0.12838325E-17      0.45746495E-12      0.10040937E-24
    0.122460883048         0.25378770E-07      0.56925846E-05     -0.71640940E-18      0.45941506E-12     -0.57817193E-25
    0.125600905691         0.26846007E-07      0.55430503E-05     -0.29950221E-17      0.46137949E-12     -0.24929267E-24
    0.128740928333         0.28366986E-07      0.53999378E-05      0.18070762E-18      0.46334862E-12      0.15505850E-25
    0.131880950975         0.29943001E-07      0.52631201E-05     -0.26145175E-18      0.46534931E-12     -0.23116780E-25
    0.135020973618         0.31575378E-07      0.51318302E-05     -0.12750828E-18      0.46734988E-12     -0.11612033E-25
    0.138160996260         0.33265483E-07      0.50060755E-05      0.87922986E-18      0.46938404E-12      0.82439120E-25
    0.141301018902         0.35014721E-07      0.48852627E-05     -0.11211782E-17      0.47142851E-12     -0.10819385E-24
    0.144441041544         0.36824533E-07      0.47692117E-05     -0.12917138E-17      0.47349542E-12     -0.12824354E-24
    0.147581064187         0.38696400E-07      0.46575376E-05      0.13315402E-17      0.47557481E-12      0.13596175E-24
    0.150721086829         0.40631842E-07      0.45500624E-05      0.10914893E-17      0.47767487E-12      0.11458678E-24
    0.153861109471         0.42632417E-07      0.44464873E-05     -0.16683318E-17      0.47978945E-12     -0.18001806E-24
    0.157001132113         0.44699723E-07      0.43466418E-05     -0.79688172E-19      0.48192387E-12     -0.88352421E-26
    0.160141154756         0.46835399E-07      0.42502810E-05      0.14816923E-18      0.48407366E-12      0.16875312E-25
    0.163281177398         0.49041122E-07      0.41572624E-05     -0.11456040E-17      0.48624400E-12     -0.13399276E-24
    0.166421200040         0.51318613E-07      0.40673741E-05      0.81936157E-18      0.48843066E-12      0.98393043E-25
    0.169561222683         0.53669630E-07      0.39804834E-05     -0.57860568E-18      0.49063714E-12     -0.71319337E-25
    0.172701245325         0.56095974E-07      0.38964473E-05      0.48999016E-18      0.49286454E-12      0.61979224E-25
    0.175841267967         0.58599489E-07      0.38150422E-05     -0.12328897E-17      0.49510227E-12     -0.15999992E-24
    0.178981290609         0.61182058E-07      0.37363438E-05      0.22688036E-17      0.49737714E-12      0.30202013E-24
    0.182121313252         0.63845608E-07      0.36599101E-05      0.15762090E-17      0.49964692E-12      0.21518232E-24
    0.185261335894         0.66592107E-07      0.35859670E-05      0.17161069E-17      0.50195733E-12      0.24021761E-24
    0.188401358536         0.69423567E-07      0.35141727E-05      0.35614164E-18      0.50427628E-12      0.51105565E-25
    0.191541381178         0.72342043E-07      0.34445246E-05      0.15880304E-18      0.50661726E-12      0.23356594E-25
    0.194681403821         0.75349631E-07      0.33769295E-05     -0.23895663E-18      0.50898057E-12     -0.36016233E-25
    0.197821426463         0.78448474E-07      0.33112587E-05      0.11532241E-18      0.51136009E-12      0.17809324E-25
    0.200961449105         0.81640757E-07      0.32474790E-05      0.24818908E-17      0.51376341E-12      0.39264447E-24
    0.204101471747         0.84928709E-07      0.31854745E-05      0.35353347E-17      0.51618462E-12      0.57287710E-24
    0.207241494390         0.88314602E-07      0.31251998E-05     -0.28487338E-18      0.51862820E-12     -0.47274856E-25
    0.210381517032         0.91800755E-07      0.30665720E-05     -0.64046058E-18      0.52109197E-12     -0.10883125E-24
    0.213521539674         0.95389531E-07      0.30095309E-05      0.14332300E-18      0.52357678E-12      0.24934315E-25
    0.216661562317         0.99083337E-07      0.29540209E-05      0.44401761E-18      0.52608371E-12      0.79075417E-25
    0.219801584959         0.10288463E-06      0.28999721E-05     -0.17920877E-17      0.52861080E-12     -0.32666415E-24
    0.222941607601         0.10679590E-06      0.28473494E-05      0.37199677E-18      0.53116168E-12      0.69394516E-25
    0.226081630243         0.11081969E-06      0.27960759E-05      0.48209576E-18      0.53373190E-12      0.92025358E-25
    0.229221652886         0.11495860E-06      0.27461345E-05      0.31964371E-18      0.53632763E-12      0.62427297E-25
    0.232361675528         0.11921526E-06      0.26974415E-05     -0.20811667E-17      0.53894186E-12     -0.41581174E-24
    0.235501698170         0.12359235E-06      0.26499965E-05     -0.87345771E-18      0.54158343E-12     -0.17850976E-24
    0.238641720812         0.12809259E-06      0.26037093E-05      0.68595964E-18      0.54424278E-12      0.14338336E-24
    0.241781743455         0.13271877E-06      0.25585913E-05      0.93121136E-18      0.54693069E-12      0.19905801E-24
    0.244921766097         0.13747370E-06      0.25145523E-05      0.11610554E-17      0.54963634E-12      0.25378602E-24
    0.248061788739         0.14236024E-06      0.24716117E-05     -0.71448627E-18      0.55237197E-12     -0.15967807E-24
    0.251201811381         0.14738131E-06      0.24296758E-05     -0.20163740E-19      0.55512468E-12     -0.46069477E-26
    0.254341834024         0.15253987E-06      0.23887757E-05     -0.35440815E-18      0.55790918E-12     -0.82773597E-25
    0.257481856666         0.15783893E-06      0.23488120E-05      0.17347489E-18      0.56070999E-12      0.41412042E-25
    0.260621879308         0.16328153E-06      0.23098282E-05      0.81423322E-18      0.56354474E-12      0.19865411E-24
    0.263761901951         0.16887077E-06      0.22717163E-05      0.56157072E-18      0.56639455E-12      0.14001334E-24
    0.266901924593         0.17460981E-06      0.22345331E-05     -0.10522900E-18      0.56928043E-12     -0.26808649E-25
    0.270041947235         0.18050182E-06      0.21981673E-05      0.59966939E-18      0.57218127E-12      0.15609349E-24
    0.273181969877         0.18655005E-06      0.21626800E-05      0.80891071E-18      0.57511957E-12      0.21511290E-24
    0.276321992520         0.19275778E-06      0.21279568E-05      0.21079051E-17      0.57807185E-12      0.57262466E-24
    0.279462015162         0.19912834E-06      0.20940709E-05      0.25422701E-18      0.58106432E-12      0.70543098E-25
    0.282602037804         0.20566511E-06      0.20608985E-05      0.12560081E-17      0.58406943E-12      0.35595928E-24
    0.285742060446         0.21237151E-06      0.20285243E-05      0.55200230E-18      0.58711725E-12      0.15976642E-24
    0.288882083089         0.21925100E-06      0.19968202E-05      0.82847352E-20      0.59017727E-12      0.24486242E-26
    0.292022105731         0.22630710E-06      0.19658751E-05      0.53152880E-18      0.59328166E-12      0.16041013E-24
    0.295162128373         0.23354337E-06      0.19355603E-05      0.14418950E-18      0.59639797E-12      0.44428646E-25
    0.298302151016         0.24096340E-06      0.19059645E-05     -0.30125026E-18      0.59955919E-12     -0.94764283E-25
    0.301442173658         0.24857086E-06      0.18769716E-05     -0.67829243E-18      0.60273506E-12     -0.21781396E-24
    0.304582196300         0.25636942E-06      0.18486510E-05      0.38271797E-18      0.60595334E-12      0.12544782E-24
    0.307722218942         0.26436283E-06      0.18209130E-05     -0.35105301E-18      0.60919073E-12     -0.11744561E-24
    0.310862241585         0.27255487E-06      0.17938042E-05     -0.74088868E-18      0.61246822E-12     -0.25296560E-24
    0.314002264227         0.28094936E-06      0.17672562E-05     -0.20242260E-18      0.61576828E-12     -0.70530476E-25
    0.317142286869         0.28955016E-06      0.17413019E-05     -0.88593773E-18      0.61910779E-12     -0.31498900E-24
    0.320282309511         0.29836118E-06      0.17158811E-05     -0.61043844E-18      0.62247099E-12     -0.22144903E-24
    0.323422332154         0.30738639E-06      0.16910264E-05     -0.77241634E-19      0.62587494E-12     -0.28588319E-25
    0.326562354796         0.31662976E-06      0.16666772E-05     -0.24051549E-18      0.62930276E-12     -0.90813667E-25
    0.329702377438         0.32609534E-06      0.16428699E-05      0.10565022E-18      0.63277343E-12      0.40692601E-25
    0.332842400080         0.33578719E-06      0.16195397E-05      0.10724047E-18      0.63626734E-12      0.42131483E-25
    0.335982422723         0.34570944E-06      0.15967320E-05     -0.57499125E-18      0.63980739E-12     -0.23039787E-24
    0.339122445365         0.35586624E-06      0.15743733E-05      0.90157470E-19      0.64336956E-12      0.36842960E-25
    0.342262468007         0.36626178E-06      0.15525155E-05      0.25865652E-19      0.64697992E-12      0.10778995E-25
    0.345402490650         0.37690029E-06      0.15310902E-05      0.37951222E-18      0.65061537E-12      0.16126841E-24
    0.348542513292         0.38778604E-06      0.15101177E-05      0.34978080E-18      0.65428923E-12      0.15154965E-24
    0.351682535934         0.39892335E-06      0.14896083E-05      0.50497455E-18      0.65801122E-12      0.22306462E-24
    0.354822558576         0.41031655E-06      0.14694933E-05      0.32114331E-18      0.66175613E-12      0.14462029E-24
    0.357962581219         0.42197002E-06      0.14498136E-05      0.39207886E-18      0.66554692E-12      0.17998650E-24
    0.361102603861         0.43388818E-06      0.14305411E-05     -0.92899594E-19      0.66937594E-12     -0.43469391E-25
    0.364242626503         0.44607547E-06      0.14116648E-05      0.10400946E-18      0.67324278E-12      0.49603574E-25
    0.367382649145         0.45853638E-06      0.13931841E-05      0.60038599E-19      0.67715206E-12      0.29181543E-25
    0.370522671788         0.47127541E-06      0.13750821E-05     -0.41938698E-18      0.68110044E-12     -0.20772916E-24
    0.373662694430         0.48429711E-06      0.13573582E-05     -0.57236568E-18      0.68509238E-12     -0.28888717E-24
    0.376802717072         0.49760605E-06      0.13399981E-05     -0.35636321E-19      0.68912558E-12     -0.18326817E-25
    0.379942739715         0.51120685E-06      0.13229988E-05     -0.10589539E-18      0.69320311E-12     -0.55485321E-25
    0.383082762357         0.52510413E-06      0.13063483E-05     -0.59486876E-18      0.69732360E-12     -0.31753860E-24
    0.386222784999         0.53930256E-06      0.12900438E-05     -0.99670198E-19      0.70149015E-12     -0.54197900E-25
    0.389362807641         0.55380682E-06      0.12740743E-05     -0.25968477E-18      0.70570166E-12     -0.14383774E-24
    0.392502830284         0.56862162E-06      0.12584365E-05     -0.64580872E-18      0.70996088E-12     -0.36434014E-24
    0.395642852926         0.58375171E-06      0.12431206E-05      0.51315182E-19      0.71426708E-12      0.29484465E-25
    0.398782875568         0.59920184E-06      0.12281231E-05     -0.11937143E-18      0.71862291E-12     -0.69848900E-25
    0.401922898210         0.61497679E-06      0.12134349E-05     -0.67674580E-18      0.72302781E-12     -0.40324045E-24
    0.405062920853         0.63108138E-06      0.11990540E-05      0.27127676E-19      0.72748518E-12      0.16458794E-25
    0.408202943495         0.64752043E-06      0.11849690E-05      0.23999961E-18      0.73199290E-12      0.14825536E-24
    0.411342966137         0.66429877E-06      0.11711823E-05     -0.51342025E-18      0.73655707E-12     -0.32289023E-24
    0.414482988779         0.68142128E-06      0.11576772E-05     -0.73243838E-18      0.74117199E-12     -0.46892417E-24
    0.417623011422         0.69889282E-06      0.11444635E-05     -0.16641647E-17      0.74584854E-12     -0.10845386E-23
    0.420763034064         0.71671828E-06      0.11315166E-05     -0.14445852E-17      0.75057551E-12     -0.95824512E-24
    0.423903056706         0.73490258E-06      0.11188575E-05      0.12714364E-17      0.75537144E-12      0.85838164E-24
    0.427043079349         0.75345064E-06      0.11064491E-05      0.18451066E-18      0.76021620E-12      0.12677310E-24
    0.430183101991         0.77236737E-06      0.10943282E-05      0.56853228E-18      0.76513961E-12      0.39751017E-24
    0.433323124633         0.79165771E-06      0.10824393E-05      0.40459584E-18      0.77010807E-12      0.28785219E-24
    0.436463147275         0.81132662E-06      0.10708443E-05     -0.38875562E-18      0.77517008E-12     -0.28141508E-24
    0.439603169918         0.83137904E-06      0.10594585E-05     -0.77809854E-18      0.78026973E-12     -0.57305381E-24
    0.442743192560         0.85181993E-06      0.10483782E-05      0.19480946E-18      0.78548236E-12      0.14595820E-24
    0.445883215202         0.87265424E-06      0.10374774E-05     -0.67799209E-19      0.79071916E-12     -0.51673545E-25
    0.449023237844         0.89388696E-06      0.10269048E-05     -0.39869189E-18      0.79609800E-12     -0.30908201E-24
    0.452163260487         0.91552302E-06      0.10164731E-05      0.69824774E-19      0.80147952E-12      0.55056180E-25
    0.455303283129         0.93756741E-06      0.10063933E-05     -0.32817252E-18      0.80703433E-12     -0.26316400E-24
    0.458443305771         0.96002506E-06      0.99643664E-06     -0.31527677E-18      0.81258569E-12     -0.25710555E-24
    0.461583328413         0.98290095E-06      0.98673928E-06      0.17461332E-18      0.81824734E-12      0.14479700E-24
    0.464723351056         0.10062000E-05      0.97751366E-06     -0.16625156E-18      0.82420491E-12     -0.14017743E-24
    0.467863373698         0.10299272E-05      0.96582870E-06     -0.15683448E-18      0.82796147E-12     -0.13444714E-24
    0.471003396340         0.10540874E-05      0.96967388E-06     -0.22685479E-18      0.84508586E-12     -0.19770748E-24
    0.474143418983         0.10786856E-05      0.95160235E-06     -0.13995908E-18      0.84306917E-12     -0.12399631E-24
    0.477283441625         0.11037267E-05      0.93332656E-06     -0.60903529E-18      0.84050701E-12     -0.54846659E-24
    0.480423464267         0.11292155E-05      0.93269091E-06      0.36067545E-18      0.85371499E-12      0.33013513E-24
    0.483563486909         0.11551570E-05      0.92339829E-06      0.18061494E-18      0.85901177E-12      0.16802106E-24
    0.486703509552         0.11815559E-05      0.91676607E-06     -0.25419968E-19      0.86670417E-12     -0.24031859E-25
    0.489843532194         0.12084172E-05      0.90897563E-06      0.28983034E-18      0.87324140E-12      0.27843635E-24
    0.492983554836         0.12357457E-05      0.90198765E-06      0.25348128E-18      0.88048063E-12      0.24743727E-24
    0.496123577478         0.12635461E-05      0.89495950E-06     -0.32683270E-18      0.88762012E-12     -0.32415241E-24
    0.499263600121         0.12918231E-05      0.88822481E-06     -0.17351507E-18      0.89499086E-12     -0.17483682E-24
    0.502403622763         0.13205817E-05      0.88188784E-06     -0.16680880E-18      0.90271029E-12     -0.17074737E-24
    0.505543645405         0.13498263E-05      0.87557210E-06     -0.69973363E-18      0.91040303E-12     -0.72756957E-24
    0.508683668048         0.13795618E-05      0.86998472E-06     -0.35226789E-18      0.91881384E-12     -0.37203942E-24
