 
 # Omega; pulse ft; proj flux t=    1000.25000000000     
    0.000000000000         0.64285036E-11      0.00000000E+00      0.00000000E+00      0.71248742E-10     -0.73958025E-21      0.22372266E-12     -0.23222987E-23
    0.003140022642         0.21245158E-10      0.15775738E+00     -0.23460978E-11      0.66154524E-10     -0.98382077E-21      0.43144937E-12     -0.54115182E-23
    0.006280045285         0.65709671E-10      0.99922465E-01     -0.14533106E-11      0.64799601E-10     -0.94247020E-21      0.63492158E-12     -0.83708960E-23
    0.009420067927         0.13986570E-09      0.71995026E-01     -0.80109673E-12      0.66252511E-10     -0.73719912E-21      0.84295597E-12     -0.10685718E-22
    0.012560090569         0.24378600E-09      0.55865103E-01     -0.72507223E-12      0.67204643E-10     -0.87224792E-21      0.10539801E-11     -0.13424596E-22
    0.015700113211         0.37757252E-09      0.45738032E-01     -0.68476189E-12      0.68173839E-10     -0.10206571E-20      0.12680475E-11     -0.16629482E-22
    0.018840135854         0.54135636E-09      0.38792359E-01     -0.40063846E-12      0.69085687E-10     -0.71350091E-21      0.14849781E-11     -0.18869891E-22
    0.021980158496         0.73529789E-09      0.33768685E-01     -0.47122409E-12      0.70014715E-10     -0.97701822E-21      0.17048259E-11     -0.21937751E-22
    0.025120181138         0.95958676E-09      0.29951476E-01     -0.52614888E-12      0.70912432E-10     -0.12456981E-20      0.19274925E-11     -0.25849271E-22
    0.028260203780         0.12144420E-08      0.26967829E-01     -0.29048579E-12      0.71827403E-10     -0.77369372E-21      0.21530322E-11     -0.28278687E-22
    0.031400226423         0.15001122E-08      0.24582028E-01     -0.31249412E-12      0.72786586E-10     -0.92528495E-21      0.23815837E-11     -0.31184103E-22
    0.034540249065         0.18168754E-08      0.22625491E-01     -0.30250195E-12      0.73763306E-10     -0.98621259E-21      0.26132022E-11     -0.34280832E-22
    0.037680271707         0.21650394E-08      0.20992611E-01     -0.18407291E-12      0.74758557E-10     -0.65551757E-21      0.28479457E-11     -0.36339172E-22
    0.040820294349         0.25449417E-08      0.19609516E-01     -0.25315885E-12      0.75772439E-10     -0.97822215E-21      0.30858729E-11     -0.39410812E-22
    0.043960316992         0.29569499E-08      0.18421513E-01     -0.23912459E-12      0.76798214E-10     -0.99689647E-21      0.33270210E-11     -0.42541090E-22
    0.047100339634         0.34014614E-08      0.17391617E-01     -0.13959375E-12      0.77843819E-10     -0.62481312E-21      0.35714524E-11     -0.44503017E-22
    0.050240362276         0.38789041E-08      0.16489648E-01     -0.18862377E-12      0.78906055E-10     -0.90260009E-21      0.38192192E-11     -0.47337202E-22
    0.053380384919         0.43897362E-08      0.15694034E-01     -0.17396737E-12      0.79989682E-10     -0.88668056E-21      0.40703886E-11     -0.50121399E-22
    0.056520407561         0.49344463E-08      0.14987062E-01     -0.10170480E-12      0.81094671E-10     -0.55032250E-21      0.43250277E-11     -0.51849424E-22
    0.059660430203         0.55135541E-08      0.14354934E-01     -0.13680644E-12      0.82222209E-10     -0.78360006E-21      0.45832073E-11     -0.54309946E-22
    0.062800452845         0.61276098E-08      0.13786396E-01     -0.14580884E-12      0.83372292E-10     -0.88176906E-21      0.48449982E-11     -0.57078721E-22
    0.065940475488         0.67771950E-08      0.13272598E-01     -0.16377652E-12      0.84546675E-10     -0.10432592E-20      0.51104767E-11     -0.60354578E-22
    0.069080498130         0.74629227E-08      0.12806169E-01     -0.17692406E-12      0.85746300E-10     -0.11846309E-20      0.53797220E-11     -0.64074346E-22
    0.072220520772         0.81854373E-08      0.12380083E-01     -0.17778351E-12      0.86965602E-10     -0.12488648E-20      0.56527960E-11     -0.67995810E-22
    0.075360543414         0.89454151E-08      0.11990675E-01     -0.12064608E-12      0.88215070E-10     -0.88758997E-21      0.59297933E-11     -0.70782862E-22
    0.078500566057         0.97435644E-08      0.11634427E-01     -0.15831941E-12      0.89501998E-10     -0.12179289E-20      0.62108316E-11     -0.74607186E-22
    0.081640588699         0.10580626E-07      0.11308316E-01     -0.14254786E-12      0.90833457E-10     -0.11450082E-20      0.64960507E-11     -0.78202538E-22
    0.084780611341         0.11457373E-07      0.11006547E-01     -0.93518045E-13      0.92189671E-10     -0.78329723E-21      0.67855283E-11     -0.80662109E-22
    0.087920633984         0.12374611E-07      0.10728979E-01     -0.12289720E-12      0.93592664E-10     -0.10720756E-20      0.70794114E-11     -0.84028451E-22
    0.091060656626         0.13333179E-07      0.10471192E-01     -0.11363997E-12      0.95025842E-10     -0.10312803E-20      0.73777947E-11     -0.87266694E-22
    0.094200679268         0.14333950E-07      0.10230465E-01     -0.68237345E-13      0.96482805E-10     -0.64354163E-21      0.76807529E-11     -0.89287430E-22
    0.097340701910         0.15377830E-07      0.10005994E-01     -0.10240841E-12      0.97972343E-10     -0.10027182E-20      0.79883883E-11     -0.92435987E-22
    0.100480724553         0.16465758E-07      0.97929431E-02     -0.94511036E-13      0.99461473E-10     -0.95989600E-21      0.83006996E-11     -0.95450083E-22
    0.103620747195         0.17598710E-07      0.95935334E-02     -0.58796477E-13      0.10098465E-09     -0.61891084E-21      0.86177937E-11     -0.97393477E-22
    0.106760769837         0.18777693E-07      0.94044480E-02     -0.73231182E-13      0.10251951E-09     -0.79830575E-21      0.89397072E-11     -0.99900175E-22
    0.109900792479         0.20003751E-07      0.92271352E-02     -0.62790717E-13      0.10409268E-09     -0.70835136E-21      0.92665606E-11     -0.10212441E-21
    0.113040815122         0.21277963E-07      0.90598508E-02     -0.71662027E-13      0.10569599E-09     -0.83603901E-21      0.95984484E-11     -0.10474960E-21
    0.116180837764         0.22601444E-07      0.89026117E-02     -0.78544906E-13      0.10734005E-09     -0.94702703E-21      0.99354986E-11     -0.10772328E-21
    0.119320860406         0.23975342E-07      0.87546745E-02     -0.80126603E-13      0.10902626E-09     -0.99785593E-21      0.10277843E-10     -0.11085657E-21
    0.122460883048         0.25400844E-07      0.86153647E-02     -0.44604122E-13      0.11075596E-09     -0.57341420E-21      0.10625620E-10     -0.11265711E-21
    0.125600905691         0.26879174E-07      0.84845875E-02     -0.58594483E-13      0.11253731E-09     -0.77718166E-21      0.10978989E-10     -0.11509747E-21
    0.128740928333         0.28411589E-07      0.83612429E-02     -0.57457373E-13      0.11436481E-09     -0.78590006E-21      0.11338098E-10     -0.11756522E-21
    0.131880950975         0.29999386E-07      0.82450953E-02     -0.56918023E-13      0.11624349E-09     -0.80245887E-21      0.11703105E-10     -0.12008496E-21
    0.135020973618         0.31643900E-07      0.81354521E-02     -0.76070759E-13      0.11817160E-09     -0.11049667E-20      0.12074166E-10     -0.12355458E-21
    0.138160996260         0.33346502E-07      0.80318511E-02     -0.80407341E-13      0.12014983E-09     -0.12028271E-20      0.12451439E-10     -0.12733148E-21
    0.141301018902         0.35108601E-07      0.79340205E-02     -0.38650808E-13      0.12218115E-09     -0.59520899E-21      0.12835091E-10     -0.12920045E-21
    0.144441041544         0.36931646E-07      0.78414782E-02     -0.54394474E-13      0.12426496E-09     -0.86199651E-21      0.13225286E-10     -0.13190714E-21
    0.147581064187         0.38817124E-07      0.77541022E-02     -0.58137938E-13      0.12640578E-09     -0.94775267E-21      0.13622203E-10     -0.13488310E-21
    0.150721086829         0.40766561E-07      0.76714571E-02     -0.54143901E-13      0.12860285E-09     -0.90765808E-21      0.14026019E-10     -0.13773317E-21
    0.153861109471         0.42781523E-07      0.75934736E-02     -0.62638280E-13      0.13086109E-09     -0.10794683E-20      0.14436925E-10     -0.14112273E-21
    0.157001132113         0.44863615E-07      0.75197337E-02     -0.60523070E-13      0.13317927E-09     -0.10719021E-20      0.14855111E-10     -0.14448852E-21
    0.160141154756         0.47014483E-07      0.74502704E-02     -0.32946291E-13      0.13556370E-09     -0.59948444E-21      0.15280784E-10     -0.14637092E-21
    0.163281177398         0.49235812E-07      0.73846182E-02     -0.48909352E-13      0.13801164E-09     -0.91407023E-21      0.15714144E-10     -0.14924112E-21
    0.166421200040         0.51529331E-07      0.73228985E-02     -0.48010292E-13      0.14053081E-09     -0.92134626E-21      0.16155414E-10     -0.15213417E-21
    0.169561222683         0.53896806E-07      0.72646641E-02     -0.41378402E-13      0.14311815E-09     -0.81517882E-21      0.16604808E-10     -0.15469385E-21
    0.172701245325         0.56340048E-07      0.72100328E-02     -0.36333597E-13      0.14578125E-09     -0.73463703E-21      0.17062565E-10     -0.15700062E-21
    0.175841267967         0.58860908E-07      0.71586567E-02     -0.41687854E-13      0.14851843E-09     -0.86488500E-21      0.17528916E-10     -0.15971638E-21
    0.178981290609         0.61461278E-07      0.71106359E-02     -0.40486504E-13      0.15133698E-09     -0.86168177E-21      0.18004117E-10     -0.16242208E-21
    0.182121313252         0.64143096E-07      0.70655850E-02     -0.39123936E-13      0.15423394E-09     -0.85403243E-21      0.18488416E-10     -0.16510376E-21
    0.185261335894         0.66908339E-07      0.70237777E-02     -0.36391789E-13      0.15722040E-09     -0.81459462E-21      0.18982091E-10     -0.16766161E-21
    0.188401358536         0.69759030E-07      0.69847241E-02     -0.38734471E-13      0.16029070E-09     -0.88890778E-21      0.19485408E-10     -0.17045280E-21
    0.191541381178         0.72697233E-07      0.69487777E-02     -0.33284622E-13      0.16345807E-09     -0.78296360E-21      0.19998670E-10     -0.17291132E-21
    0.194681403821         0.75725056E-07      0.69154423E-02     -0.40759720E-13      0.16671619E-09     -0.98262771E-21      0.20522162E-10     -0.17599680E-21
    0.197821426463         0.78844653E-07      0.68850792E-02     -0.35032981E-13      0.17007894E-09     -0.86540357E-21      0.21056214E-10     -0.17871418E-21
    0.200961449105         0.82058219E-07      0.68572228E-02     -0.31794217E-13      0.17354027E-09     -0.80463727E-21      0.21601134E-10     -0.18124076E-21
    0.204101471747         0.85367996E-07      0.68322520E-02     -0.32299241E-13      0.17711506E-09     -0.83730550E-21      0.22157280E-10     -0.18386992E-21
    0.207241494390         0.88776268E-07      0.68097059E-02     -0.21549382E-13      0.18079699E-09     -0.57213388E-21      0.22724986E-10     -0.18566643E-21
    0.210381517032         0.92285368E-07      0.67899834E-02     -0.19892718E-13      0.18460211E-09     -0.54083162E-21      0.23304641E-10     -0.18736466E-21
    0.213521539674         0.95897669E-07      0.67726342E-02     -0.20152093E-13      0.18852400E-09     -0.56095652E-21      0.23896611E-10     -0.18912607E-21
    0.216661562317         0.99615594E-07      0.67580692E-02     -0.29984071E-13      0.19257981E-09     -0.85443440E-21      0.24501316E-10     -0.19180902E-21
    0.219801584959         0.10344161E-06      0.67458510E-02     -0.31889430E-13      0.19676319E-09     -0.93015188E-21      0.25119157E-10     -0.19472972E-21
    0.222941607601         0.10737822E-06      0.67364036E-02     -0.25297329E-13      0.20109249E-09     -0.75516602E-21      0.25750592E-10     -0.19710095E-21
    0.226081630243         0.11142800E-06      0.67293068E-02     -0.32579113E-13      0.20556163E-09     -0.99520142E-21      0.26396060E-10     -0.20022591E-21
    0.229221652886         0.11559354E-06      0.67249858E-02     -0.27863501E-13      0.21018996E-09     -0.87087592E-21      0.27056061E-10     -0.20296048E-21
    0.232361675528         0.11987749E-06      0.67230350E-02     -0.26815333E-13      0.21497166E-09     -0.85743069E-21      0.27731077E-10     -0.20565283E-21
    0.235501698170         0.12428256E-06      0.67238934E-02     -0.19839747E-13      0.21992755E-09     -0.64892567E-21      0.28421654E-10     -0.20769047E-21
    0.238641720812         0.12881148E-06      0.67271778E-02     -0.21443012E-13      0.22505247E-09     -0.71735919E-21      0.29128324E-10     -0.20994300E-21
    0.241781743455         0.13346705E-06      0.67333146E-02     -0.20323347E-13      0.23036799E-09     -0.69532599E-21      0.29851685E-10     -0.21212634E-21
    0.244921766097         0.13825210E-06      0.67419482E-02     -0.32436062E-13      0.23586985E-09     -0.11347891E-20      0.30592322E-10     -0.21568960E-21
    0.248061788739         0.14316951E-06      0.67535091E-02     -0.31561993E-13      0.24158103E-09     -0.11290099E-20      0.31350891E-10     -0.21923472E-21
    0.251201811381         0.14822222E-06      0.67676815E-02     -0.36408022E-13      0.24749882E-09     -0.13314667E-20      0.32128043E-10     -0.22341555E-21
    0.254341834024         0.15341320E-06      0.67848619E-02     -0.24192412E-13      0.25364635E-09     -0.90441296E-21      0.32924499E-10     -0.22625543E-21
    0.257481856666         0.15874548E-06      0.68047968E-02     -0.25277611E-13      0.26002349E-09     -0.96590285E-21      0.33740978E-10     -0.22928838E-21
    0.260621879308         0.16422213E-06      0.68278590E-02     -0.25714467E-13      0.26665396E-09     -0.10042481E-20      0.34578278E-10     -0.23244175E-21
    0.263761901951         0.16984627E-06      0.68538543E-02     -0.83891688E-14      0.27354040E-09     -0.33481549E-21      0.35437201E-10     -0.23349307E-21
    0.266901924593         0.17562106E-06      0.68830967E-02     -0.10266715E-13      0.28070582E-09     -0.41869623E-21      0.36318623E-10     -0.23480779E-21
    0.270041947235         0.18154971E-06      0.69154902E-02     -0.95900345E-14      0.28815753E-09     -0.39960155E-21      0.37223445E-10     -0.23606255E-21
    0.273181969877         0.18763548E-06      0.69513006E-02     -0.17885445E-13      0.29591820E-09     -0.76138685E-21      0.38152634E-10     -0.23845332E-21
    0.276321992520         0.19388169E-06      0.69905287E-02     -0.18407033E-13      0.30400032E-09     -0.80047508E-21      0.39107202E-10     -0.24096683E-21
    0.279462015162         0.20029168E-06      0.70333536E-02     -0.18777541E-13      0.31242461E-09     -0.83410652E-21      0.40088223E-10     -0.24358594E-21
    0.282602037804         0.20686884E-06      0.70799198E-02     -0.28259548E-13      0.32121129E-09     -0.12821171E-20      0.41096833E-10     -0.24761182E-21
    0.285742060446         0.21361663E-06      0.71302901E-02     -0.27972667E-13      0.33037773E-09     -0.12960968E-20      0.42134227E-10     -0.25168159E-21
    0.288882083089         0.22053854E-06      0.71848040E-02     -0.28956785E-13      0.33995505E-09     -0.13701146E-20      0.43201694E-10     -0.25598378E-21
    0.292022105731         0.22763810E-06      0.72433669E-02     -0.15422393E-13      0.34995515E-09     -0.74511563E-21      0.44300561E-10     -0.25832346E-21
    0.295162128373         0.23491890E-06      0.73065442E-02     -0.17357150E-13      0.36042260E-09     -0.85620627E-21      0.45432296E-10     -0.26101197E-21
    0.298302151016         0.24238456E-06      0.73740444E-02     -0.17146495E-13      0.37136160E-09     -0.86350847E-21      0.46598380E-10     -0.26372341E-21
    0.301442173658         0.25003877E-06      0.74467275E-02     -0.14581805E-13      0.38283486E-09     -0.74964783E-21      0.47800490E-10     -0.26607732E-21
    0.304582196300         0.25788523E-06      0.75240494E-02     -0.16781836E-13      0.39483556E-09     -0.88065152E-21      0.49040282E-10     -0.26884258E-21
    0.307722218942         0.26592771E-06      0.76072506E-02     -0.18543556E-13      0.40745077E-09     -0.99320852E-21      0.50319687E-10     -0.27196128E-21
    0.310862241585         0.27417002E-06      0.76954441E-02     -0.99792138E-14      0.42065723E-09     -0.54549528E-21      0.51640560E-10     -0.27367415E-21
    0.314002264227         0.28261602E-06      0.77903523E-02     -0.11682321E-13      0.43457403E-09     -0.65168212E-21      0.53005132E-10     -0.27572045E-21
    0.317142286869         0.29126959E-06      0.78906560E-02     -0.11140874E-13      0.44915556E-09     -0.63416596E-21      0.54415491E-10     -0.27771174E-21
    0.320282309511         0.30013468E-06      0.79986851E-02     -0.13876316E-13      0.46456288E-09     -0.80593511E-21      0.55874229E-10     -0.28024240E-21
    0.323422332154         0.30921526E-06      0.81125708E-02     -0.15762118E-13      0.48071989E-09     -0.93400280E-21      0.57383700E-10     -0.28317519E-21
    0.326562354796         0.31851537E-06      0.82354439E-02     -0.16877044E-13      0.49784479E-09     -0.10202423E-20      0.58946944E-10     -0.28637877E-21
    0.329702377438         0.32803906E-06      0.83646834E-02     -0.11220287E-13      0.51581702E-09     -0.69191084E-21      0.60566621E-10     -0.28855139E-21
    0.332842400080         0.33779045E-06      0.85044428E-02     -0.98175495E-14      0.53493038E-09     -0.61752493E-21      0.62246315E-10     -0.29049043E-21
    0.335982422723         0.34777368E-06      0.86511585E-02     -0.12123513E-13      0.55500525E-09     -0.77777020E-21      0.63989044E-10     -0.29293264E-21
    0.339122445365         0.35799293E-06      0.88103030E-02     -0.13766822E-13      0.57643646E-09     -0.90072933E-21      0.65799068E-10     -0.29576095E-21
    0.342262468007         0.36845245E-06      0.89770351E-02     -0.15955795E-13      0.59895992E-09     -0.10645922E-20      0.67679815E-10     -0.29910380E-21
    0.345402490650         0.37915648E-06      0.91586121E-02     -0.15430437E-13      0.62311092E-09     -0.10498178E-20      0.69636398E-10     -0.30240025E-21
    0.348542513292         0.39010935E-06      0.93484868E-02     -0.14110968E-13      0.64850688E-09     -0.97888138E-21      0.71672724E-10     -0.30547396E-21
    0.351682535934         0.40131538E-06      0.95562236E-02     -0.14610860E-13      0.67587126E-09     -0.10333643E-20      0.73794975E-10     -0.30871875E-21
    0.354822558576         0.41277896E-06      0.97730724E-02     -0.15337565E-13      0.70466081E-09     -0.11058734E-20      0.76007626E-10     -0.31219121E-21
    0.357962581219         0.42450450E-06      0.10011638E-01     -0.14033824E-13      0.73585540E-09     -0.10314861E-20      0.78318229E-10     -0.31543010E-21
    0.361102603861         0.43649646E-06      0.10260205E-01     -0.13514442E-13      0.76868571E-09     -0.10124904E-20      0.80731919E-10     -0.31860935E-21
    0.364242626503         0.44875932E-06      0.10535459E-01     -0.14508129E-13      0.80448669E-09     -0.11078394E-20      0.83258025E-10     -0.32208799E-21
    0.367382649145         0.46129760E-06      0.10821681E-01     -0.80537696E-14      0.84217037E-09     -0.62676456E-21      0.85902460E-10     -0.32405604E-21
    0.370522671788         0.47411586E-06      0.11141066E-01     -0.96498175E-14      0.88356628E-09     -0.76529956E-21      0.88676878E-10     -0.32645910E-21
    0.373662694430         0.48721866E-06      0.11472468E-01     -0.91428991E-14      0.92713657E-09     -0.73887467E-21      0.91588107E-10     -0.32877918E-21
    0.376802717072         0.50061064E-06      0.11845626E-01     -0.11233954E-13      0.97540893E-09     -0.92504179E-21      0.94650914E-10     -0.33168384E-21
    0.379942739715         0.51429644E-06      0.12231873E-01     -0.10595080E-13      0.10261976E-08     -0.88887821E-21      0.97873197E-10     -0.33447493E-21
    0.383082762357         0.52828072E-06      0.12671403E-01     -0.11546415E-13      0.10830277E-08     -0.98687460E-21      0.10127393E-09     -0.33757374E-21
