 
 # Omega; pulse ft; proj flux t=    1000.25000000000     
    0.000000000000         0.13861783E-10      0.00000000E+00      0.00000000E+00      0.16645027E-11     -0.82718061E-24      0.41591771E-15     -0.20669181E-27
    0.003140022642         0.28547099E-10      0.23718557E-03      0.93314001E-16      0.16794613E-11      0.66073688E-24      0.83557321E-15     -0.41590139E-28
    0.006280045285         0.72617464E-10      0.18834916E-03     -0.11082884E-15      0.16962682E-11     -0.99812204E-24      0.12594283E-14     -0.29099595E-27
    0.009420067927         0.14611614E-09      0.14106244E-03      0.21161167E-15      0.17041511E-11      0.25564442E-23      0.16852532E-14      0.34779570E-27
    0.012560090569         0.24911526E-09      0.11074985E-03      0.59544325E-16      0.17108158E-11      0.91981497E-24      0.21127434E-14      0.57763453E-27
    0.015700113211         0.38171583E-09      0.90678431E-04     -0.25347016E-16      0.17170934E-11     -0.47997295E-24      0.25418022E-14      0.45770126E-27
    0.018840135854         0.54404780E-09      0.76622078E-04      0.10649052E-15      0.17232945E-11      0.23950606E-23      0.29724105E-14      0.10561672E-26
    0.021980158496         0.73627010E-09      0.66289677E-04     -0.83326100E-16      0.17294371E-11     -0.21739019E-23      0.34045537E-14      0.51296331E-27
    0.025120181138         0.95857070E-09      0.58397781E-04      0.10807586E-16      0.17356025E-11      0.32120523E-24      0.38382375E-14      0.59322448E-27
    0.028260203780         0.12111667E-08      0.52180796E-04      0.87435565E-17      0.17417743E-11      0.29185645E-24      0.42734635E-14      0.66615213E-27
    0.031400226423         0.14943044E-08      0.47160363E-04     -0.36615756E-16      0.17479781E-11     -0.13571468E-23      0.47102396E-14      0.32703498E-27
    0.034540249065         0.18082594E-08      0.43022318E-04     -0.48352065E-16      0.17542101E-11     -0.19715275E-23      0.51485730E-14     -0.16560057E-27
    0.037680271707         0.21533368E-08      0.39553022E-04      0.20596147E-17      0.17604761E-11      0.91671948E-25      0.55884721E-14     -0.14269404E-27
    0.040820294349         0.25298710E-08      0.36602559E-04     -0.20850628E-16      0.17667953E-11     -0.10064540E-23      0.60299501E-14     -0.39418179E-27
    0.043960316992         0.29382263E-08      0.34061536E-04     -0.68961853E-16      0.17731325E-11     -0.35899293E-23      0.64730117E-14     -0.12912156E-26
    0.047100339634         0.33787968E-08      0.31850506E-04     -0.17365477E-16      0.17795366E-11     -0.97023580E-24      0.69176736E-14     -0.15336533E-26
    0.050240362276         0.38520063E-08      0.29907663E-04     -0.40406700E-16      0.17859498E-11     -0.24129046E-23      0.73639379E-14     -0.21365780E-26
    0.053380384919         0.43583091E-08      0.28187509E-04     -0.68570032E-16      0.17924439E-11     -0.43603687E-23      0.78118249E-14     -0.32261254E-26
    0.056520407561         0.48981894E-08      0.26652200E-04     -0.10282100E-16      0.17989367E-11     -0.69400827E-24      0.82613343E-14     -0.33995408E-26
    0.059660430203         0.54721621E-08      0.25274232E-04     -0.12798756E-16      0.18055232E-11     -0.91430872E-24      0.87124895E-14     -0.36280037E-26
    0.062800452845         0.60807727E-08      0.24028880E-04     -0.38513002E-16      0.18120996E-11     -0.29043965E-23      0.91652880E-14     -0.43537400E-26
    0.065940475488         0.67245976E-08      0.22898866E-04      0.14714989E-16      0.18187824E-11      0.11687637E-23      0.96197564E-14     -0.40616951E-26
    0.069080498130         0.74042442E-08      0.21867048E-04     -0.32502776E-17      0.18254417E-11     -0.27133029E-24      0.10075889E-13     -0.41294938E-26
    0.072220520772         0.81203513E-08      0.20922363E-04     -0.32278005E-16      0.18322194E-11     -0.28266590E-23      0.10533715E-13     -0.48358054E-26
    0.075360543414         0.88735891E-08      0.20052386E-04     -0.86669635E-17      0.18389668E-11     -0.79483100E-24      0.10993227E-13     -0.50344138E-26
    0.078500566057         0.96646596E-08      0.19249900E-04     -0.23381527E-16      0.18458431E-11     -0.22420184E-23      0.11454457E-13     -0.55946383E-26
    0.081640588699         0.10494297E-07      0.18505490E-04     -0.26469191E-16      0.18526797E-11     -0.26499668E-23      0.11917395E-13     -0.62567989E-26
    0.084780611341         0.11363267E-07      0.17814486E-04     -0.11695597E-17      0.18596555E-11     -0.12209042E-24      0.12382077E-13     -0.62873063E-26
    0.087920633984         0.12272369E-07      0.17169490E-04     -0.12094315E-16      0.18665840E-11     -0.13148355E-23      0.12848490E-13     -0.66158509E-26
    0.091060656626         0.13222435E-07      0.16567533E-04     -0.17894112E-16      0.18736611E-11     -0.20236870E-23      0.13316671E-13     -0.71215198E-26
    0.094200679268         0.14214328E-07      0.16002611E-04     -0.12074740E-16      0.18806834E-11     -0.14190661E-23      0.13786607E-13     -0.74761090E-26
    0.097340701910         0.15248947E-07      0.15472932E-04     -0.23246338E-16      0.18878633E-11     -0.28363021E-23      0.14258337E-13     -0.81848302E-26
    0.100480724553         0.16327224E-07      0.14973484E-04     -0.14925122E-16      0.18949816E-11     -0.18888612E-23      0.14731845E-13     -0.86568095E-26
    0.103620747195         0.17450124E-07      0.14503301E-04      0.12659989E-16      0.19022659E-11      0.16604954E-23      0.15207174E-13     -0.82418931E-26
    0.106760769837         0.18618647E-07      0.14058103E-04      0.13204609E-18      0.19094825E-11      0.17935542E-25      0.15684306E-13     -0.82374114E-26
    0.109900792479         0.19833827E-07      0.13637508E-04     -0.62601131E-17      0.19168726E-11     -0.87991439E-24      0.16163285E-13     -0.84572801E-26
    0.113040815122         0.21096733E-07      0.13237788E-04      0.34870649E-17      0.19241898E-11      0.50686522E-24      0.16644092E-13     -0.83306271E-26
    0.116180837764         0.22408470E-07      0.12858982E-04     -0.11505898E-16      0.19316872E-11     -0.17284258E-23      0.17126772E-13     -0.87625176E-26
    0.119320860406         0.23770176E-07      0.12497794E-04     -0.10971205E-16      0.19391076E-11     -0.17022482E-23      0.17611307E-13     -0.91878670E-26
    0.122460883048         0.25183029E-07      0.12154554E-04      0.80681215E-17      0.19467140E-11      0.12922173E-23      0.18097742E-13     -0.88649741E-26
    0.125600905691         0.26648238E-07      0.11826319E-04     -0.17636649E-17      0.19542398E-11     -0.29143677E-24      0.18586058E-13     -0.89377969E-26
    0.128740928333         0.28167053E-07      0.11513626E-04      0.49496623E-17      0.19619567E-11      0.84343746E-24      0.19076302E-13     -0.87270429E-26
    0.131880950975         0.29740759E-07      0.11213817E-04      0.24238975E-17      0.19695906E-11      0.42573245E-24      0.19568454E-13     -0.86206630E-26
    0.135020973618         0.31370676E-07      0.10927572E-04     -0.47619831E-17      0.19774197E-11     -0.86171379E-24      0.20062562E-13     -0.88359838E-26
    0.138160996260         0.33058166E-07      0.10652476E-04     -0.63191145E-18      0.19851640E-11     -0.11776116E-24      0.20558605E-13     -0.88654094E-26
    0.141301018902         0.34804624E-07      0.10389304E-04      0.40091302E-17      0.19931071E-11      0.76912045E-24      0.21056632E-13     -0.86732253E-26
    0.144441041544         0.36611487E-07      0.10135847E-04     -0.52441062E-17      0.20009644E-11     -0.10352632E-23      0.21556623E-13     -0.89319118E-26
    0.147581064187         0.38480227E-07      0.98929420E-05     -0.72113439E-17      0.20090234E-11     -0.14644540E-23      0.22058628E-13     -0.92978423E-26
    0.150721086829         0.40412359E-07      0.96585583E-05     -0.62499052E-17      0.20169960E-11     -0.13051672E-23      0.22562625E-13     -0.96239711E-26
    0.153861109471         0.42409432E-07      0.94335690E-05     -0.10028992E-16      0.20251732E-11     -0.21529970E-23      0.23068665E-13     -0.10161951E-25
    0.157001132113         0.44473040E-07      0.92160952E-05     -0.17232414E-16      0.20332628E-11     -0.38018299E-23      0.23576727E-13     -0.11111934E-25
    0.160141154756         0.46604811E-07      0.90070220E-05      0.95532480E-17      0.20415572E-11      0.21653664E-23      0.24086861E-13     -0.10570863E-25
    0.163281177398         0.48806419E-07      0.88046590E-05     -0.27768324E-17      0.20497736E-11     -0.64646205E-24      0.24599049E-13     -0.10732398E-25
    0.166421200040         0.51079573E-07      0.86098150E-05     -0.62487074E-17      0.20581877E-11     -0.14937618E-23      0.25113338E-13     -0.11105651E-25
    0.169561222683         0.53426027E-07      0.84209674E-05      0.32442884E-17      0.20665260E-11      0.79615629E-24      0.25629712E-13     -0.10906712E-25
    0.172701245325         0.55847574E-07      0.82389160E-05     -0.72752492E-17      0.20750638E-11     -0.18323535E-23      0.26148218E-13     -0.11364571E-25
    0.175841267967         0.58346049E-07      0.80622554E-05     -0.17966543E-16      0.20835299E-11     -0.46430964E-23      0.26668841E-13     -0.12524765E-25
    0.178981290609         0.60923329E-07      0.78917399E-05      0.91571747E-17      0.20921908E-11      0.24276721E-23      0.27191627E-13     -0.11918150E-25
    0.182121313252         0.63581331E-07      0.77261177E-05      0.56250037E-17      0.21007903E-11      0.15294814E-23      0.27716562E-13     -0.11535971E-25
    0.185261335894         0.66322018E-07      0.75660456E-05      0.11296362E-16      0.21095724E-11      0.31496628E-23      0.28243692E-13     -0.10748949E-25
    0.188401358536         0.69147392E-07      0.74104802E-05      0.67789697E-17      0.21183156E-11      0.19377958E-23      0.28773006E-13     -0.10264742E-25
    0.191541381178         0.72059501E-07      0.72598705E-05     -0.14233040E-16      0.21272085E-11     -0.41704110E-23      0.29304542E-13     -0.11306824E-25
    0.194681403821         0.75060434E-07      0.71135363E-05     -0.25894307E-17      0.21361153E-11     -0.77757704E-24      0.29838304E-13     -0.11501121E-25
    0.197821426463         0.78152324E-07      0.69715884E-05      0.15298128E-16      0.21451262E-11      0.47071646E-23      0.30374318E-13     -0.10324918E-25
    0.200961449105         0.81337348E-07      0.68334948E-05      0.25996164E-16      0.21541337E-11      0.81948133E-23      0.30912582E-13     -0.82772385E-26
    0.204101471747         0.84617728E-07      0.66997760E-05      0.13369317E-16      0.21633563E-11      0.43169498E-23      0.31453151E-13     -0.71985404E-26
    0.207241494390         0.87995729E-07      0.65692160E-05      0.16156896E-16      0.21724558E-11      0.53431253E-23      0.31995993E-13     -0.58634266E-26
    0.210381517032         0.91473660E-07      0.64428214E-05      0.71121891E-17      0.21818109E-11      0.24084870E-23      0.32541173E-13     -0.52616057E-26
    0.213521539674         0.95053876E-07      0.63194151E-05      0.19043832E-16      0.21910766E-11      0.66029046E-23      0.33088669E-13     -0.36117045E-26
    0.216661562317         0.98738776E-07      0.61997419E-05      0.94234056E-18      0.22005539E-11      0.33447702E-24      0.33638532E-13     -0.35281271E-26
    0.219801584959         0.10253081E-06      0.60829184E-05     -0.29367398E-17      0.22099786E-11     -0.10669438E-23      0.34190751E-13     -0.37947297E-26
    0.222941607601         0.10643245E-06      0.59694950E-05     -0.44589731E-17      0.22195916E-11     -0.16579458E-23      0.34745372E-13     -0.42090090E-26
    0.226081630243         0.11044626E-06      0.58587539E-05      0.24859698E-17      0.22291717E-11      0.94587578E-24      0.35302386E-13     -0.39726583E-26
    0.229221652886         0.11457479E-06      0.57511400E-05      0.34077695E-17      0.22389269E-11      0.13266495E-23      0.35861838E-13     -0.36411617E-26
    0.232361675528         0.11882069E-06      0.56460446E-05     -0.43114136E-17      0.22486633E-11     -0.17171167E-23      0.36423723E-13     -0.40702263E-26
    0.235501698170         0.12318663E-06      0.55438388E-05      0.38969403E-17      0.22585654E-11      0.15876173E-23      0.36988082E-13     -0.36735203E-26
    0.238641720812         0.12767532E-06      0.54439996E-05     -0.72576181E-19      0.22684604E-11     -0.30241772E-25      0.37554914E-13     -0.36810770E-26
    0.241781743455         0.13228953E-06      0.53468370E-05     -0.84484365E-18      0.22785127E-11     -0.36002350E-24      0.38124257E-13     -0.37710379E-26
    0.244921766097         0.13703207E-06      0.52519030E-05      0.30045940E-17      0.22885693E-11      0.13092819E-23      0.38696114E-13     -0.34438810E-26
    0.248061788739         0.14190580E-06      0.51594541E-05     -0.40056870E-18      0.22987755E-11     -0.17847189E-24      0.39270520E-13     -0.34884767E-26
    0.251201811381         0.14691362E-06      0.50691073E-05      0.30266525E-17      0.23089968E-11      0.13786512E-23      0.39847481E-13     -0.31439861E-26
    0.254341834024         0.15205849E-06      0.49810717E-05      0.19495065E-18      0.23193602E-11      0.90775802E-25      0.40427031E-13     -0.31213035E-26
    0.257481856666         0.15734340E-06      0.48950227E-05     -0.15348449E-17      0.23297491E-11     -0.73049782E-24      0.41009177E-13     -0.33038367E-26
    0.260621879308         0.16277140E-06      0.48111270E-05     -0.46750682E-17      0.23402734E-11     -0.22740904E-23      0.41593953E-13     -0.38720752E-26
    0.263761901951         0.16834557E-06      0.47290464E-05      0.18259110E-17      0.23508003E-11      0.90765705E-24      0.42181360E-13     -0.36452743E-26
    0.266901924593         0.17406906E-06      0.46490395E-05      0.30255382E-17      0.23614875E-11      0.15368273E-23      0.42771437E-13     -0.32612595E-26
    0.270041947235         0.17994505E-06      0.45708966E-05      0.30499892E-17      0.23722617E-11      0.15829220E-23      0.43364206E-13     -0.28657268E-26
    0.273181969877         0.18597676E-06      0.44945528E-05     -0.70366454E-19      0.23831186E-11     -0.37309965E-25      0.43959688E-13     -0.28750496E-26
    0.276321992520         0.19216747E-06      0.44199130E-05     -0.44722254E-18      0.23940361E-11     -0.24223710E-24      0.44557897E-13     -0.29355786E-26
    0.279462015162         0.19852052E-06      0.43470177E-05     -0.34336529E-17      0.24050636E-11     -0.18997285E-23      0.45158863E-13     -0.34102734E-26
    0.282602037804         0.20503926E-06      0.42757514E-05     -0.15488703E-17      0.24161657E-11     -0.87524433E-24      0.45762602E-13     -0.36289751E-26
    0.285742060446         0.21172710E-06      0.42061095E-05     -0.13228363E-17      0.24273668E-11     -0.76341541E-24      0.46369141E-13     -0.38197336E-26
    0.288882083089         0.21858752E-06      0.41380312E-05     -0.36419556E-17      0.24386589E-11     -0.21463075E-23      0.46978501E-13     -0.43560423E-26
    0.292022105731         0.22562402E-06      0.40714612E-05      0.13520370E-17      0.24500358E-11      0.81359958E-24      0.47590704E-13     -0.41527441E-26
    0.295162128373         0.23284014E-06      0.40064018E-05      0.23807244E-17      0.24615250E-11      0.14627122E-23      0.48205777E-13     -0.37872488E-26
    0.298302151016         0.24023948E-06      0.39427355E-05      0.84280680E-18      0.24730801E-11      0.52865040E-24      0.48823739E-13     -0.36551522E-26
    0.301442173658         0.24782569E-06      0.38805341E-05      0.37491781E-18      0.24847709E-11      0.24006615E-24      0.49444621E-13     -0.35951657E-26
    0.304582196300         0.25560245E-06      0.38196223E-05      0.18730238E-17      0.24965109E-11      0.12242112E-23      0.50068437E-13     -0.32892658E-26
    0.307722218942         0.26357350E-06      0.37601159E-05      0.24384313E-18      0.25083992E-11      0.16266943E-24      0.50695223E-13     -0.32486188E-26
    0.310862241585         0.27174260E-06      0.37018500E-05      0.33454850E-17      0.25203514E-11      0.22777254E-23      0.51324996E-13     -0.26794720E-26
    0.314002264227         0.28011357E-06      0.36448492E-05      0.31139947E-17      0.25324068E-11      0.21635741E-23      0.51957781E-13     -0.21388488E-26
    0.317142286869         0.28869027E-06      0.35891193E-05      0.26566858E-17      0.25445936E-11      0.18835222E-23      0.52593612E-13     -0.16682036E-26
    0.320282309511         0.29747662E-06      0.35345472E-05     -0.37066731E-17      0.25568556E-11     -0.26813698E-23      0.53232506E-13     -0.23382110E-26
    0.323422332154         0.30647655E-06      0.34811339E-05     -0.19062982E-17      0.25692153E-11     -0.14069240E-23      0.53874489E-13     -0.26897662E-26
    0.326562354796         0.31569405E-06      0.34289183E-05     -0.33741799E-17      0.25817248E-11     -0.25405108E-23      0.54519598E-13     -0.33245765E-26
    0.329702377438         0.32513315E-06      0.33777213E-05     -0.44048215E-18      0.25942721E-11     -0.33831404E-24      0.55167842E-13     -0.34091128E-26
    0.332842400080         0.33479793E-06      0.33277162E-05      0.34819195E-18      0.26070115E-11      0.27278179E-24      0.55819269E-13     -0.33409514E-26
    0.335982422723         0.34469248E-06      0.32786494E-05     -0.11811135E-17      0.26197676E-11     -0.94375532E-24      0.56473883E-13     -0.35767723E-26
    0.339122445365         0.35482098E-06      0.32307386E-05     -0.27486876E-17      0.26327348E-11     -0.22399106E-23      0.57131738E-13     -0.41364701E-26
    0.342262468007         0.36518760E-06      0.31837040E-05     -0.20113653E-17      0.26457083E-11     -0.16714764E-23      0.57792835E-13     -0.45541304E-26
    0.345402490650         0.37579657E-06      0.31377873E-05     -0.12511205E-17      0.26589084E-11     -0.10601786E-23      0.58457230E-13     -0.48190426E-26
    0.348542513292         0.38665215E-06      0.30926891E-05     -0.16680477E-17      0.26721047E-11     -0.14412047E-23      0.59124922E-13     -0.51791637E-26
    0.351682535934         0.39775867E-06      0.30486740E-05     -0.30717891E-17      0.26855446E-11     -0.27059065E-23      0.59795973E-13     -0.58553022E-26
    0.354822558576         0.40912044E-06      0.30054215E-05     -0.27018025E-17      0.26989690E-11     -0.24263090E-23      0.60470378E-13     -0.64615763E-26
    0.357962581219         0.42074186E-06      0.29632214E-05     -0.10083725E-17      0.27126560E-11     -0.92310610E-24      0.61148203E-13     -0.66922375E-26
    0.361102603861         0.43262732E-06      0.29217291E-05     -0.32677793E-17      0.27263136E-11     -0.30492188E-23      0.61829440E-13     -0.74541613E-26
    0.364242626503         0.44478129E-06      0.28812627E-05     -0.32603768E-17      0.27402560E-11     -0.31008166E-23      0.62514162E-13     -0.82289780E-26
    0.367382649145         0.45720823E-06      0.28414498E-05      0.10157038E-17      0.27541521E-11      0.98449841E-24      0.63202356E-13     -0.79829764E-26
    0.370522671788         0.46991265E-06      0.28026413E-05      0.39765378E-19      0.27683590E-11      0.39278962E-25      0.63894100E-13     -0.79731616E-26
    0.373662694430         0.48289911E-06      0.27644309E-05      0.54994623E-18      0.27824985E-11      0.55354054E-24      0.64589377E-13     -0.78348456E-26
    0.376802717072         0.49617218E-06      0.27272093E-05     -0.26761159E-17      0.27969802E-11     -0.27445796E-23      0.65288273E-13     -0.85206476E-26
    0.379942739715         0.50973645E-06      0.26905287E-05     -0.29180593E-17      0.28113681E-11     -0.30491178E-23      0.65990763E-13     -0.92825461E-26
    0.383082762357         0.52359657E-06      0.26548279E-05     -0.98600286E-18      0.28261362E-11     -0.10496268E-23      0.66696944E-13     -0.95448216E-26
