 
 # eight columns.
 # Omega (column 1); |pulse ft|^2 (2); cross section (Mb) (3); flux (5); flux in
 tegral domega (7)
 
  0.0000      0.328181E-12      0.000000E+00      0.000000E+00      0.000000E+00      0.000000E+00      0.000000E+00      0.000000E+00
  0.0031      0.150842E-10      0.648293E-01      0.226497E-10      0.192973E-10      0.674196E-20      0.606091E-13      0.211752E-22
  0.0063      0.593672E-10      0.875237E-01      0.526679E-11      0.512677E-10      0.308506E-20      0.221631E-12      0.308648E-22
  0.0094      0.133221E-09      0.701563E-01     -0.581377E-11      0.614781E-10     -0.509462E-20      0.414722E-12      0.148636E-22
  0.0126      0.236721E-09      0.540555E-01      0.465032E-12      0.631273E-10      0.543076E-21      0.612993E-12      0.165693E-22
  0.0157      0.369969E-09      0.443742E-01      0.575719E-12      0.647928E-10      0.840634E-21      0.816495E-12      0.192095E-22
  0.0188      0.533099E-09      0.375796E-01     -0.154289E-12      0.658886E-10     -0.270515E-21      0.102344E-11      0.183599E-22
  0.0220      0.726274E-09      0.327251E-01      0.502547E-12      0.670016E-10      0.102892E-20      0.123388E-11      0.215915E-22
  0.0251      0.949686E-09      0.290145E-01      0.786331E-12      0.679683E-10      0.184203E-20      0.144735E-11      0.273770E-22
  0.0283      0.120356E-08      0.261292E-01      0.496590E-12      0.689530E-10      0.131046E-20      0.166392E-11      0.314929E-22
  0.0314      0.148814E-08      0.238158E-01      0.711248E-12      0.699377E-10      0.208866E-20      0.188358E-11      0.380530E-22
  0.0345      0.180372E-08      0.219240E-01      0.616650E-12      0.709411E-10      0.199534E-20      0.210639E-11      0.443200E-22
  0.0377      0.215061E-08      0.203426E-01      0.337830E-12      0.719432E-10      0.119476E-20      0.233235E-11      0.480725E-22
  0.0408      0.252915E-08      0.190057E-01      0.316299E-12      0.729652E-10      0.121431E-20      0.256152E-11      0.518864E-22
  0.0440      0.293971E-08      0.178561E-01      0.293334E-12      0.739887E-10      0.121546E-20      0.279391E-11      0.557039E-22
  0.0471      0.338271E-08      0.168608E-01      0.103018E-12      0.750332E-10      0.458444E-21      0.302957E-11      0.571438E-22
  0.0503      0.385856E-08      0.159886E-01      0.983739E-13      0.760882E-10      0.468152E-21      0.326855E-11      0.586142E-22
  0.0534      0.436774E-08      0.152200E-01      0.687523E-13      0.771655E-10      0.348575E-21      0.351091E-11      0.597090E-22
  0.0565      0.491075E-08      0.145365E-01     -0.165126E-13      0.782593E-10     -0.888980E-22      0.375671E-11      0.594298E-22
  0.0597      0.548811E-08      0.139259E-01      0.134898E-12      0.793767E-10      0.768911E-21      0.400602E-11      0.618448E-22
  0.0628      0.610038E-08      0.133764E-01     -0.146019E-12      0.805133E-10     -0.878898E-21      0.425889E-11      0.590843E-22
  0.0660      0.674816E-08      0.128802E-01     -0.122941E-13      0.816752E-10     -0.779586E-22      0.451542E-11      0.588395E-22
  0.0691      0.743206E-08      0.124298E-01      0.344193E-13      0.828612E-10      0.229451E-21      0.477567E-11      0.595601E-22
  0.0722      0.815275E-08      0.120178E-01     -0.329698E-13      0.840627E-10     -0.230618E-21      0.503970E-11      0.588358E-22
  0.0754      0.891090E-08      0.116400E-01      0.626019E-14      0.852834E-10      0.458669E-22      0.530755E-11      0.589799E-22
  0.0785      0.970724E-08      0.112956E-01     -0.450261E-13      0.865502E-10     -0.345002E-21      0.557939E-11      0.578963E-22
  0.0817      0.105425E-07      0.109813E-01     -0.263026E-13      0.878668E-10     -0.210461E-21      0.585536E-11      0.572353E-22
  0.0848      0.114175E-07      0.106901E-01      0.303377E-14      0.892055E-10      0.253159E-22      0.613554E-11      0.573148E-22
  0.0879      0.123331E-07      0.104219E-01      0.193469E-13      0.905866E-10      0.168162E-21      0.642006E-11      0.578429E-22
  0.0911      0.132901E-07      0.101731E-01      0.685661E-14      0.919988E-10      0.620068E-22      0.670901E-11      0.580377E-22
  0.0942      0.142893E-07      0.994061E-02     -0.968700E-14      0.934338E-10     -0.910500E-22      0.700247E-11      0.577517E-22
  0.0974      0.153318E-07      0.972405E-02      0.127408E-13      0.949027E-10      0.124345E-21      0.730054E-11      0.581423E-22
  0.1005      0.164184E-07      0.951853E-02     -0.158589E-13      0.963721E-10     -0.160567E-21      0.760322E-11      0.576379E-22
  0.1036      0.175501E-07      0.932619E-02     -0.180079E-13      0.978751E-10     -0.188987E-21      0.791063E-11      0.570444E-22
  0.1068      0.187281E-07      0.914364E-02      0.230067E-13      0.993883E-10      0.250075E-21      0.822279E-11      0.578298E-22
  0.1099      0.199533E-07      0.897257E-02      0.116247E-13      0.100940E-09      0.130776E-21      0.853982E-11      0.582406E-22
  0.1131      0.212268E-07      0.881113E-02     -0.372532E-13      0.102522E-09     -0.433459E-21      0.886182E-11      0.568791E-22
  0.1162      0.225498E-07      0.865946E-02      0.143417E-13      0.104144E-09      0.172482E-21      0.918892E-11      0.574209E-22
  0.1194      0.239235E-07      0.851669E-02      0.582015E-13      0.105807E-09      0.723062E-21      0.952124E-11      0.596919E-22
  0.1225      0.253490E-07      0.838231E-02      0.110973E-14      0.107513E-09      0.142336E-22      0.985891E-11      0.597366E-22
  0.1256      0.268275E-07      0.825609E-02      0.765879E-14      0.109269E-09      0.101364E-21      0.102021E-10      0.600549E-22
  0.1288      0.283605E-07      0.813709E-02     -0.195728E-13      0.111071E-09     -0.267169E-21      0.105510E-10      0.592158E-22
  0.1319      0.299491E-07      0.802499E-02      0.167306E-14      0.112923E-09      0.235422E-22      0.109056E-10      0.592898E-22
  0.1351      0.315948E-07      0.791921E-02     -0.160149E-13      0.114824E-09     -0.232206E-21      0.112663E-10      0.585605E-22
  0.1382      0.332990E-07      0.781923E-02      0.114893E-13      0.116773E-09      0.171583E-21      0.116330E-10      0.590994E-22
  0.1413      0.350630E-07      0.772486E-02     -0.721789E-14      0.118776E-09     -0.110981E-21      0.120061E-10      0.587508E-22
  0.1445      0.368884E-07      0.763557E-02      0.665133E-14      0.120830E-09      0.105255E-21      0.123856E-10      0.590814E-22
  0.1476      0.387766E-07      0.755130E-02     -0.438329E-14      0.122940E-09     -0.713630E-22      0.127717E-10      0.588572E-22
  0.1508      0.407292E-07      0.747157E-02     -0.567025E-14      0.125106E-09     -0.949443E-22      0.131647E-10      0.585590E-22
  0.1539      0.427479E-07      0.739639E-02     -0.984399E-14      0.127333E-09     -0.169469E-21      0.135646E-10      0.580268E-22
  0.1570      0.448342E-07      0.732528E-02     -0.905910E-14      0.129618E-09     -0.160297E-21      0.139717E-10      0.575233E-22
  0.1602      0.469898E-07      0.725833E-02     -0.673410E-14      0.131969E-09     -0.122437E-21      0.143862E-10      0.571388E-22
  0.1633      0.492164E-07      0.719505E-02      0.737949E-14      0.134382E-09      0.137827E-21      0.148082E-10      0.575716E-22
  0.1665      0.515159E-07      0.713559E-02     -0.422086E-14      0.136866E-09     -0.809595E-22      0.152381E-10      0.573174E-22
  0.1696      0.538899E-07      0.707949E-02      0.111089E-13      0.139417E-09      0.218769E-21      0.156760E-10      0.580045E-22
  0.1727      0.563404E-07      0.702692E-02     -0.696596E-14      0.142044E-09     -0.140812E-21      0.161221E-10      0.575622E-22
  0.1759      0.588691E-07      0.697743E-02     -0.113111E-13      0.144743E-09     -0.234641E-21      0.165767E-10      0.568252E-22
  0.1790      0.614782E-07      0.693127E-02     -0.620268E-14      0.147523E-09     -0.132016E-21      0.170401E-10      0.564106E-22
  0.1822      0.641694E-07      0.688795E-02      0.667072E-15      0.150380E-09      0.145638E-22      0.175124E-10      0.564564E-22
  0.1853      0.669449E-07      0.684779E-02     -0.149569E-14      0.153326E-09     -0.334895E-22      0.179940E-10      0.563512E-22
  0.1884      0.698066E-07      0.681030E-02     -0.181564E-14      0.156355E-09     -0.416847E-22      0.184850E-10      0.562202E-22
  0.1916      0.727567E-07      0.677582E-02     -0.298749E-14      0.159480E-09     -0.703154E-22      0.189859E-10      0.559994E-22
  0.1947      0.757974E-07      0.674386E-02     -0.479648E-14      0.162694E-09     -0.115714E-21      0.194969E-10      0.556360E-22
  0.1979      0.789307E-07      0.671481E-02     -0.529709E-14      0.166013E-09     -0.130962E-21      0.200183E-10      0.552246E-22
  0.2010      0.821591E-07      0.668818E-02     -0.269126E-14      0.169428E-09     -0.681761E-22      0.205505E-10      0.550105E-22
  0.2042      0.854846E-07      0.666437E-02     -0.743809E-14      0.172956E-09     -0.193036E-21      0.210937E-10      0.544042E-22
  0.2073      0.889098E-07      0.664290E-02      0.102812E-14      0.176589E-09      0.273307E-22      0.216483E-10      0.544901E-22
  0.2104      0.924368E-07      0.662420E-02      0.302957E-14      0.180345E-09      0.824807E-22      0.222148E-10      0.547491E-22
  0.2136      0.960682E-07      0.660778E-02     -0.783162E-14      0.184216E-09     -0.218335E-21      0.227934E-10      0.540634E-22
  0.2167      0.998065E-07      0.659410E-02     -0.157853E-14      0.188220E-09     -0.450572E-22      0.233845E-10      0.539219E-22
  0.2199      0.103654E-06      0.658268E-02     -0.306563E-14      0.192350E-09     -0.895795E-22      0.239887E-10      0.536405E-22
  0.2230      0.107613E-06      0.657399E-02     -0.228196E-15      0.196625E-09     -0.682522E-23      0.246062E-10      0.536191E-22
  0.2261      0.111687E-06      0.656755E-02     -0.345904E-14      0.201037E-09     -0.105884E-21      0.252376E-10      0.532865E-22
  0.2293      0.115878E-06      0.656387E-02     -0.317456E-14      0.205608E-09     -0.994409E-22      0.258834E-10      0.529742E-22
  0.2324      0.120189E-06      0.656244E-02      0.404082E-14      0.210330E-09      0.129511E-21      0.265440E-10      0.533809E-22
  0.2356      0.124623E-06      0.656382E-02      0.284624E-15      0.215226E-09      0.933274E-23      0.272200E-10      0.534103E-22
  0.2387      0.129182E-06      0.656749E-02      0.178689E-14      0.220286E-09      0.599357E-22      0.279119E-10      0.535985E-22
  0.2418      0.133869E-06      0.657402E-02     -0.315328E-14      0.225538E-09     -0.108181E-21      0.286203E-10      0.532587E-22
  0.2450      0.138687E-06      0.658291E-02     -0.107340E-14      0.230972E-09     -0.376622E-22      0.293457E-10      0.531404E-22
  0.2481      0.143639E-06      0.659475E-02     -0.352750E-14      0.236617E-09     -0.126565E-21      0.300889E-10      0.527429E-22
  0.2513      0.148728E-06      0.660905E-02      0.193175E-14      0.242462E-09      0.708688E-22      0.308504E-10      0.529655E-22
  0.2544      0.153957E-06      0.662639E-02     -0.321349E-14      0.248539E-09     -0.120530E-21      0.316310E-10      0.525869E-22
  0.2575      0.159330E-06      0.664632E-02     -0.488678E-14      0.254838E-09     -0.187373E-21      0.324314E-10      0.519984E-22
  0.2607      0.164848E-06      0.666942E-02     -0.167248E-14      0.261394E-09     -0.655493E-22      0.332524E-10      0.517926E-22
  0.2638      0.170516E-06      0.669526E-02     -0.693348E-15      0.268197E-09     -0.277740E-22      0.340947E-10      0.517053E-22
  0.2670      0.176337E-06      0.672443E-02     -0.627492E-15      0.275284E-09     -0.256882E-22      0.349594E-10      0.516247E-22
  0.2701      0.182313E-06      0.675653E-02     -0.267271E-14      0.282647E-09     -0.111808E-21      0.358471E-10      0.512735E-22
  0.2733      0.188449E-06      0.679214E-02     -0.369624E-14      0.290323E-09     -0.157992E-21      0.367589E-10      0.507773E-22
  0.2764      0.194747E-06      0.683092E-02     -0.153076E-14      0.298310E-09     -0.668493E-22      0.376959E-10      0.505673E-22
  0.2795      0.201211E-06      0.687342E-02     -0.340942E-14      0.306645E-09     -0.152105E-21      0.386590E-10      0.500896E-22
  0.2827      0.207845E-06      0.691937E-02     -0.473859E-14      0.315329E-09     -0.215947E-21      0.396494E-10      0.494113E-22
  0.2858      0.214651E-06      0.696930E-02     -0.288117E-14      0.324401E-09     -0.134110E-21      0.406683E-10      0.489901E-22
  0.2890      0.221634E-06      0.702302E-02      0.100647E-15      0.333868E-09      0.478465E-23      0.417169E-10      0.490051E-22
  0.2921      0.228797E-06      0.708100E-02     -0.180900E-14      0.343767E-09     -0.878228E-22      0.427966E-10      0.487293E-22
  0.2952      0.236144E-06      0.714321E-02     -0.259921E-14      0.354114E-09     -0.128852E-21      0.439088E-10      0.483246E-22
  0.2984      0.243678E-06      0.720999E-02     -0.622513E-15      0.364946E-09     -0.315096E-22      0.450550E-10      0.482256E-22
  0.3015      0.251403E-06      0.728149E-02      0.182308E-16      0.376289E-09      0.942119E-24      0.462369E-10      0.482286E-22
  0.3047      0.259324E-06      0.735795E-02     -0.609280E-15      0.388176E-09     -0.321431E-22      0.474560E-10      0.481276E-22
  0.3078      0.267442E-06      0.743975E-02     -0.181728E-14      0.400649E-09     -0.978652E-22      0.487144E-10      0.478203E-22
  0.3109      0.275764E-06      0.752692E-02     -0.311358E-16      0.413733E-09     -0.171145E-23      0.500139E-10      0.478149E-22
  0.3141      0.284292E-06      0.762018E-02     -0.354965E-14      0.427495E-09     -0.199137E-21      0.513565E-10      0.471894E-22
  0.3172      0.293030E-06      0.771929E-02     -0.997037E-15      0.441947E-09     -0.570826E-22      0.527446E-10      0.470102E-22
  0.3204      0.301983E-06      0.782540E-02     -0.158512E-14      0.457183E-09     -0.926075E-22      0.541805E-10      0.467193E-22
  0.3235      0.311154E-06      0.793792E-02     -0.864456E-15      0.473202E-09     -0.515327E-22      0.556668E-10      0.465574E-22
  0.3266      0.320548E-06      0.805856E-02     -0.148160E-14      0.490139E-09     -0.901143E-22      0.572062E-10      0.462744E-22
  0.3298      0.330169E-06      0.818625E-02     -0.158938E-14      0.507964E-09     -0.986222E-22      0.588016E-10      0.459647E-22
  0.3329      0.340020E-06      0.832343E-02      0.820088E-15      0.526869E-09      0.519112E-22      0.604564E-10      0.461277E-22
  0.3361      0.350107E-06      0.846837E-02     -0.530377E-15      0.546787E-09     -0.342454E-22      0.621738E-10      0.460201E-22
  0.3392      0.360433E-06      0.862453E-02     -0.204238E-14      0.567985E-09     -0.134505E-21      0.639577E-10      0.455977E-22
  0.3423      0.371002E-06      0.878928E-02     -0.123410E-14      0.590343E-09     -0.828901E-22      0.658119E-10      0.453373E-22
  0.3455      0.381819E-06      0.896739E-02     -0.617443E-16      0.614232E-09     -0.422925E-23      0.677410E-10      0.453241E-22
  0.3486      0.392889E-06      0.915503E-02     -0.315697E-14      0.639452E-09     -0.220505E-21      0.697494E-10      0.446315E-22
  0.3518      0.404215E-06      0.935877E-02     -0.101033E-14      0.666522E-09     -0.719549E-22      0.718429E-10      0.444055E-22
  0.3549      0.415803E-06      0.957312E-02     -0.114188E-14      0.695126E-09     -0.829147E-22      0.740261E-10      0.441451E-22
  0.3581      0.427655E-06      0.980704E-02     -0.231259E-14      0.725986E-09     -0.171194E-21      0.763063E-10      0.436074E-22
  0.3612      0.439778E-06      0.100528E-01     -0.345312E-14      0.758622E-09     -0.260584E-21      0.786890E-10      0.427889E-22
  0.3643      0.452176E-06      0.103226E-01     -0.183085E-14      0.794039E-09     -0.140832E-21      0.811829E-10      0.423466E-22
  0.3675      0.464853E-06      0.106058E-01     -0.195558E-14      0.831521E-09     -0.153323E-21      0.837945E-10      0.418651E-22
  0.3706      0.477814E-06      0.109188E-01     -0.192848E-14      0.872474E-09     -0.154096E-21      0.865348E-10      0.413811E-22
  0.3738      0.491063E-06      0.112468E-01     -0.172381E-14      0.915838E-09     -0.140372E-21      0.894113E-10      0.409402E-22
  0.3769      0.504605E-06      0.116124E-01     -0.131424E-14      0.963593E-09     -0.109055E-21      0.924378E-10      0.405977E-22
  0.3800      0.518445E-06      0.119949E-01     -0.150742E-14      0.101418E-08     -0.127454E-21      0.956231E-10      0.401974E-22
  0.3832      0.532587E-06      0.124255E-01     -0.153033E-14      0.107040E-08     -0.131831E-21      0.989850E-10      0.397833E-22
  0.3863      0.547037E-06      0.128750E-01     -0.208058E-14      0.112995E-08     -0.182598E-21      0.102534E-09      0.392098E-22
  0.3895      0.561799E-06      0.133870E-01     -0.124777E-14      0.119686E-08     -0.111557E-21      0.106293E-09      0.388594E-22
  0.3926      0.576877E-06      0.139203E-01     -0.100667E-14      0.126772E-08     -0.916777E-22      0.110275E-09      0.385715E-22
  0.3957      0.592277E-06      0.145362E-01     -0.245125E-14      0.134836E-08     -0.227376E-21      0.114510E-09      0.378573E-22
  0.3989      0.608004E-06      0.151761E-01     -0.224672E-14      0.143372E-08     -0.212253E-21      0.119013E-09      0.371907E-22
  0.4020      0.624062E-06      0.159272E-01     -0.242234E-14      0.153236E-08     -0.233053E-21      0.123826E-09      0.364587E-22
  0.4052      0.640457E-06      0.167053E-01     -0.227699E-14      0.163665E-08     -0.223081E-21      0.128966E-09      0.357581E-22
  0.4083      0.657192E-06      0.176366E-01     -0.229493E-14      0.175941E-08     -0.228939E-21      0.134492E-09      0.350390E-22
  0.4114      0.674274E-06      0.185980E-01     -0.145006E-14      0.188901E-08     -0.147283E-21      0.140425E-09      0.345764E-22
  0.4146      0.691707E-06      0.197766E-01     -0.226298E-14      0.204503E-08     -0.234008E-21      0.146848E-09      0.338414E-22
  0.4177      0.709496E-06      0.209881E-01     -0.221232E-14      0.220939E-08     -0.232889E-21      0.153787E-09      0.331100E-22
  0.4209      0.727646E-06      0.225178E-01     -0.215800E-14      0.241292E-08     -0.231243E-21      0.161366E-09      0.323837E-22
  0.4240      0.746161E-06      0.240827E-01     -0.238812E-14      0.262667E-08     -0.260469E-21      0.169616E-09      0.315656E-22
  0.4271      0.765048E-06      0.261336E-01     -0.107151E-14      0.290101E-08     -0.118946E-21      0.178727E-09      0.311920E-22
  0.4303      0.784311E-06      0.282195E-01     -0.121894E-14      0.318800E-08     -0.137706E-21      0.188740E-09      0.307595E-22
  0.4334      0.803955E-06      0.310889E-01     -0.102091E-14      0.357403E-08     -0.117366E-21      0.199965E-09      0.303909E-22
  0.4366      0.823984E-06      0.339876E-01     -0.144617E-14      0.397582E-08     -0.169170E-21      0.212453E-09      0.298596E-22
  0.4397      0.844405E-06      0.382455E-01     -0.223101E-14      0.455203E-08     -0.265538E-21      0.226750E-09      0.290256E-22
  0.4429      0.865222E-06      0.425130E-01     -0.207656E-14      0.514792E-08     -0.251451E-21      0.242918E-09      0.282358E-22
  0.4460      0.886440E-06      0.494026E-01     -0.177619E-14      0.608572E-08     -0.218802E-21      0.262032E-09      0.275486E-22
  0.4491      0.908064E-06      0.562427E-01     -0.285764E-14      0.704771E-08     -0.358088E-21      0.284168E-09      0.264239E-22
  0.4523      0.930099E-06      0.690773E-01     -0.315650E-14      0.880448E-08     -0.402322E-21      0.311821E-09      0.251603E-22
  0.4554      0.952551E-06      0.816635E-01     -0.371283E-14      0.105864E-07     -0.481312E-21      0.345071E-09      0.236486E-22
  0.4586      0.975423E-06      0.113155E+00     -0.541825E-14      0.149181E-07     -0.714332E-21      0.391926E-09      0.214050E-22
