
 # Omega; pulse ft; projected flux at t=    1000.2500000000000     
    0.000000000000         0.18717486E-09      0.00000000E+00      0.00000000E+00      0.33809311E-12      0.10339758E-24
    0.003140022642         0.20186436E-09      0.14534584E-04      0.65850427E-17      0.36387484E-12      0.16485724E-24
    0.006280045285         0.24594737E-09      0.25760608E-04     -0.13782954E-16      0.39287833E-12     -0.21020560E-24
    0.009420067927         0.31946741E-09      0.30293668E-04      0.20856033E-16      0.40008009E-12      0.27543986E-24
    0.012560090569         0.42249703E-09      0.30769875E-04      0.19058309E-16      0.40306878E-12      0.24965357E-24
    0.015700113211         0.55513782E-09      0.29440570E-04      0.17510501E-16      0.40538418E-12      0.24111218E-24
    0.018840135854         0.71752051E-09      0.27465419E-04      0.85587558E-17      0.40734188E-12      0.12693561E-24
    0.021980158496         0.90980495E-09      0.25383087E-04      0.20114176E-19      0.40915180E-12      0.32422183E-27
    0.025120181138         0.11321802E-08      0.23421487E-04     -0.56647364E-17      0.41108327E-12     -0.99424873E-25
    0.028260203780         0.13848647E-08      0.21643401E-04      0.10221934E-16      0.41302857E-12      0.19506874E-24
    0.031400226423         0.16681061E-08      0.20043641E-04      0.12176200E-16      0.41465799E-12      0.25189828E-24
    0.034540249065         0.19821816E-08      0.18633084E-04      0.34895686E-17      0.41641393E-12      0.77985211E-25
    0.037680271707         0.23273981E-08      0.17378257E-04     -0.83351761E-17      0.41800877E-12     -0.20049058E-24
    0.040820294349         0.27040919E-08      0.16269319E-04      0.15018402E-16      0.41969832E-12      0.38742852E-24
    0.043960316992         0.31126296E-08      0.15281189E-04     -0.54663725E-17      0.42135322E-12     -0.15072608E-24
    0.047100339634         0.35534072E-08      0.14400502E-04      0.33190252E-17      0.42307866E-12      0.97511096E-25
    0.050240362276         0.40268513E-08      0.13608682E-04      0.63981333E-17      0.42476766E-12      0.19970487E-24
    0.053380384919         0.45334185E-08      0.12897242E-04     -0.77391799E-17      0.42654366E-12     -0.25595381E-24
    0.056520407561         0.50735959E-08      0.12250891E-04      0.11627472E-16      0.42825339E-12      0.40646058E-24
    0.059660430203         0.56479014E-08      0.11666436E-04      0.46766614E-17      0.43009210E-12      0.17240871E-24
    0.062800452845         0.62568834E-08      0.11129666E-04     -0.14508999E-18      0.43181721E-12     -0.56293114E-26
    0.065940475488         0.69011217E-08      0.10644417E-04      0.53287188E-17      0.43382245E-12      0.21717656E-24
    0.069080498130         0.75812269E-08      0.10176982E-04      0.63732396E-17      0.43493624E-12      0.27237474E-24
    0.072220520772         0.82978416E-08      0.97459558E-05     -0.56630306E-17      0.43606528E-12     -0.25338212E-24
    0.075360543414         0.90516395E-08      0.93452250E-05      0.23401648E-17      0.43711482E-12      0.10945918E-24
    0.078500566057         0.98433265E-08      0.89726847E-05      0.15333098E-17      0.43814116E-12      0.74872366E-25
    0.081640588699         0.10673641E-07      0.86547068E-05     -0.74374409E-17      0.44063740E-12     -0.37866270E-24
    0.084780611341         0.11543353E-07      0.83484626E-05      0.52960665E-17      0.44265408E-12      0.28080924E-24
    0.087920633984         0.12453265E-07      0.80627522E-05      0.58713329E-17      0.44473191E-12      0.32385580E-24
    0.091060656626         0.13404215E-07      0.77923387E-05     -0.15191648E-17      0.44668458E-12     -0.87083933E-25
    0.094200679268         0.14397070E-07      0.75427355E-05      0.68608128E-17      0.44892264E-12      0.40833649E-24
    0.097340701910         0.15432734E-07      0.73068713E-05      0.51576731E-17      0.45113072E-12      0.31843790E-24
    0.100480724553         0.16512144E-07      0.70820122E-05     -0.25954733E-17      0.45321044E-12     -0.16609624E-24
    0.103620747195         0.17636269E-07      0.68689278E-05     -0.31949579E-18      0.45527256E-12     -0.21176182E-25
    0.106760769837         0.18806114E-07      0.66641653E-05      0.51596869E-17      0.45714680E-12      0.35394296E-24
    0.109900792479         0.20022721E-07      0.64710092E-05     -0.38120827E-17      0.45911007E-12     -0.27046254E-24
    0.113040815122         0.21287162E-07      0.62872725E-05     -0.17588728E-17      0.46107046E-12     -0.12898507E-24
    0.116180837764         0.22600547E-07      0.61130670E-05      0.73872394E-17      0.46309080E-12      0.55961477E-24
    0.119320860406         0.23964023E-07      0.59467390E-05     -0.23539551E-17      0.46509832E-12     -0.18410436E-24
    0.122460883048         0.25378770E-07      0.57886413E-05     -0.31615382E-18      0.46716723E-12     -0.25514917E-25
    0.125600905691         0.26846007E-07      0.56368529E-05      0.19116372E-17      0.46918722E-12      0.15911640E-24
    0.128740928333         0.28366986E-07      0.54923713E-05     -0.38255296E-17      0.47127999E-12     -0.32825449E-24
    0.131880950975         0.29943001E-07      0.53531409E-05     -0.84488242E-18      0.47330868E-12     -0.74701972E-25
    0.135020973618         0.31575378E-07      0.52203972E-05      0.22324344E-17      0.47541557E-12      0.20330523E-24
    0.138160996260         0.33265483E-07      0.50922592E-05     -0.18233435E-17      0.47746487E-12     -0.17096194E-24
    0.141301018902         0.35014721E-07      0.49698371E-05     -0.17382056E-17      0.47958994E-12     -0.16773707E-24
    0.144441041544         0.36824533E-07      0.48515452E-05      0.13277555E-17      0.48166963E-12      0.13182181E-24
    0.147581064187         0.38696400E-07      0.47382756E-05     -0.25799519E-17      0.48381886E-12     -0.26343537E-24
    0.150721086829         0.40631842E-07      0.46287278E-05      0.13528648E-17      0.48593332E-12      0.14202652E-24
    0.153861109471         0.42632417E-07      0.45236001E-05      0.27418544E-17      0.48811015E-12      0.29585439E-24
    0.157001132113         0.44699723E-07      0.44218399E-05     -0.68696897E-18      0.49026129E-12     -0.76166098E-25
    0.160141154756         0.46835399E-07      0.43239764E-05      0.14136475E-17      0.49246698E-12      0.16100336E-24
    0.163281177398         0.49041122E-07      0.42291898E-05      0.25041741E-17      0.49465682E-12      0.29289459E-24
    0.166421200040         0.51318613E-07      0.41378304E-05      0.36046444E-18      0.49689141E-12      0.43286376E-25
    0.169561222683         0.53669630E-07      0.40493284E-05     -0.57563611E-18      0.49912302E-12     -0.70953305E-25
    0.172701245325         0.56095974E-07      0.39638314E-05      0.56447905E-18      0.50138800E-12      0.71401378E-25
    0.175841267967         0.58599489E-07      0.38809738E-05      0.31754702E-18      0.50365863E-12      0.41210094E-25
    0.178981290609         0.61182058E-07      0.38008472E-05      0.21797240E-17      0.50596375E-12      0.29016197E-24
    0.182121313252         0.63845608E-07      0.37230721E-05      0.20189269E-17      0.50826972E-12      0.27562169E-24
    0.185261335894         0.66592107E-07      0.36478136E-05      0.11968655E-17      0.51061450E-12      0.16753512E-24
    0.188401358536         0.69423567E-07      0.35747063E-05      0.93969850E-18      0.51296272E-12      0.13484473E-24
    0.191541381178         0.72342043E-07      0.35038656E-05     -0.40651175E-18      0.51534508E-12     -0.59789346E-25
    0.194681403821         0.75349631E-07      0.34350333E-05      0.90453480E-18      0.51773814E-12      0.13633410E-24
    0.197821426463         0.78448474E-07      0.33682363E-05      0.40608445E-17      0.52015917E-12      0.62711918E-24
    0.200961449105         0.81640757E-07      0.33033187E-05      0.10331738E-19      0.52259745E-12      0.16345198E-26
    0.204101471747         0.84928709E-07      0.32402408E-05      0.57682474E-18      0.52505912E-12      0.93470551E-25
    0.207241494390         0.88314602E-07      0.31789179E-05      0.16304447E-17      0.52754274E-12      0.27057298E-24
    0.210381517032         0.91800755E-07      0.31192682E-05     -0.26063347E-17      0.53004646E-12     -0.44288544E-24
    0.213521539674         0.95389531E-07      0.30612576E-05     -0.28430988E-17      0.53257581E-12     -0.49462210E-24
    0.216661562317         0.99083337E-07      0.30047763E-05     -0.17867013E-18      0.53512278E-12     -0.31819493E-25
    0.219801584959         0.10288463E-06      0.29498266E-05      0.73273336E-18      0.53769834E-12      0.13356362E-24
    0.222941607601         0.10679590E-06      0.28962813E-05     -0.10381132E-17      0.54028974E-12     -0.19365589E-24
    0.226081630243         0.11081969E-06      0.28441680E-05      0.82917033E-18      0.54291201E-12      0.15827705E-24
    0.229221652886         0.11495860E-06      0.27933500E-05     -0.65272977E-18      0.54554895E-12     -0.12747992E-24
    0.232361675528         0.11921526E-06      0.27438713E-05     -0.75990632E-18      0.54821841E-12     -0.15182733E-24
    0.235501698170         0.12359235E-06      0.26955925E-05      0.35752292E-18      0.55090195E-12      0.73067452E-25
    0.238641720812         0.12809259E-06      0.26485673E-05     -0.21912063E-17      0.55361926E-12     -0.45801895E-24
    0.241781743455         0.13271877E-06      0.26026568E-05     -0.21624935E-17      0.55635024E-12     -0.46225987E-24
    0.244921766097         0.13747370E-06      0.25579220E-05      0.10364441E-17      0.55911618E-12      0.22654823E-24
    0.248061788739         0.14236024E-06      0.25142256E-05     -0.46971641E-18      0.56189560E-12     -0.10497530E-24
    0.251201811381         0.14738131E-06      0.24716326E-05     -0.79771069E-19      0.56471082E-12     -0.18225842E-25
    0.254341834024         0.15253987E-06      0.24300105E-05     -0.79414879E-18      0.56753975E-12     -0.18547698E-24
    0.257481856666         0.15783893E-06      0.23894238E-05      0.85320458E-18      0.57040487E-12      0.20367757E-24
    0.260621879308         0.16328153E-06      0.23497496E-05     -0.11725393E-17      0.57328466E-12     -0.28607252E-24
    0.263761901951         0.16887077E-06      0.23110459E-05      0.20543171E-18      0.57620039E-12      0.51219161E-25
    0.266901924593         0.17460981E-06      0.22731999E-05      0.62443803E-18      0.57913137E-12      0.15908485E-24
    0.270041947235         0.18050182E-06      0.22362715E-05     -0.10545007E-17      0.58209976E-12     -0.27448573E-24
    0.273181969877         0.18655005E-06      0.22001453E-05      0.45198948E-18      0.58508267E-12      0.12019716E-24
    0.276321992520         0.19275778E-06      0.21648884E-05      0.69098845E-18      0.58810453E-12      0.18771103E-24
    0.279462015162         0.19912834E-06      0.21303846E-05     -0.13890374E-17      0.59114069E-12     -0.38543113E-24
    0.282602037804         0.20566511E-06      0.20967046E-05      0.13724256E-17      0.59421708E-12      0.38895260E-24
    0.285742060446         0.21237151E-06      0.20637320E-05      0.95111157E-18      0.59730743E-12      0.27528090E-24
    0.288882083089         0.21925100E-06      0.20315426E-05      0.35252829E-18      0.60043977E-12      0.10419275E-24
    0.292022105731         0.22630710E-06      0.20000184E-05      0.63474802E-18      0.60358575E-12      0.19156067E-24
    0.295162128373         0.23354337E-06      0.19692417E-05      0.83584850E-18      0.60677611E-12      0.25754731E-24
    0.298302151016         0.24096340E-06      0.19390869E-05     -0.73920266E-18      0.60997848E-12     -0.23253095E-24
    0.301442173658         0.24857086E-06      0.19096486E-05      0.15871500E-18      0.61322833E-12      0.50966725E-25
    0.304582196300         0.25636942E-06      0.18807894E-05     -0.89570406E-18      0.61648772E-12     -0.29359510E-24
    0.307722218942         0.26436283E-06      0.18526224E-05     -0.10155071E-17      0.61979918E-12     -0.33974030E-24
    0.310862241585         0.27255487E-06      0.18249911E-05     -0.71113040E-18      0.62311651E-12     -0.24280508E-24
    0.314002264227         0.28094936E-06      0.17980343E-05      0.32565841E-19      0.62649234E-12      0.11346975E-25
    0.317142286869         0.28955016E-06      0.17715661E-05     -0.19033319E-17      0.62986801E-12     -0.67671644E-24
    0.320282309511         0.29836118E-06      0.17457640E-05      0.31062949E-18      0.63331162E-12      0.11268720E-24
    0.323422332154         0.30738639E-06      0.17203945E-05     -0.23070183E-18      0.63674451E-12     -0.85386304E-25
    0.326562354796         0.31662976E-06      0.16957012E-05     -0.10529865E-17      0.64026164E-12     -0.39758590E-24
    0.329702377438         0.32609534E-06      0.16713622E-05     -0.67437216E-18      0.64374763E-12     -0.25974350E-24
    0.332842400080         0.33578719E-06      0.16477407E-05      0.25913771E-18      0.64734665E-12      0.10180723E-24
    0.335982422723         0.34570944E-06      0.16243873E-05     -0.10171493E-17      0.65088880E-12     -0.40756972E-24
    0.339122445365         0.35586624E-06      0.16016991E-05      0.46119608E-18      0.65453629E-12      0.18846834E-24
    0.342262468007         0.36626178E-06      0.15794642E-05      0.11526267E-17      0.65821025E-12      0.48033425E-24
    0.345402490650         0.37690029E-06      0.15575920E-05     -0.40229424E-18      0.66187694E-12     -0.17094931E-24
    0.348542513292         0.38778604E-06      0.15362555E-05      0.45022589E-18      0.66561396E-12      0.19506952E-24
    0.351682535934         0.39892335E-06      0.15153757E-05      0.75130430E-18      0.66939353E-12      0.33187694E-24
    0.354822558576         0.41031655E-06      0.14948392E-05      0.30399025E-18      0.67317014E-12      0.13689577E-24
    0.357962581219         0.42197002E-06      0.14748608E-05      0.38976928E-18      0.67704503E-12      0.17892628E-24
    0.361102603861         0.43388818E-06      0.14551319E-05      0.67360298E-18      0.68088239E-12      0.31519095E-24
    0.364242626503         0.44607547E-06      0.14359927E-05     -0.74865640E-18      0.68484509E-12     -0.35704476E-24
    0.367382649145         0.45853638E-06      0.14170438E-05      0.34381966E-18      0.68874899E-12      0.16711229E-24
    0.370522671788         0.47127541E-06      0.13987045E-05      0.45776326E-18      0.69280101E-12      0.22673756E-24
    0.373662694430         0.48429711E-06      0.13805002E-05     -0.73966410E-18      0.69677273E-12     -0.37332685E-24
    0.376802717072         0.49760605E-06      0.13629283E-05      0.34634970E-18      0.70091793E-12      0.17811848E-24
    0.379942739715         0.51120685E-06      0.13454309E-05     -0.19651833E-18      0.70495675E-12     -0.10296844E-24
    0.383082762357         0.52510413E-06      0.13285967E-05     -0.54237616E-18      0.70919967E-12     -0.28951826E-24
    0.386222784999         0.53930256E-06      0.13117696E-05      0.22659070E-18      0.71330405E-12      0.12321376E-24
    0.389362807641         0.55380682E-06      0.12956463E-05      0.61252427E-19      0.71765026E-12      0.33927330E-25
    0.392502830284         0.56862162E-06      0.12794528E-05     -0.61341313E-18      0.72181748E-12     -0.34606381E-24
    0.395642852926         0.58375171E-06      0.12640163E-05     -0.30332193E-18      0.72627328E-12     -0.17428146E-24
    0.398782875568         0.59920184E-06      0.12484182E-05     -0.68508070E-19      0.73049838E-12     -0.40086756E-25
    0.401922898210         0.61497679E-06      0.12336472E-05     -0.52232371E-18      0.73507136E-12     -0.31122772E-24
    0.405062920853         0.63108138E-06      0.12186025E-05      0.36722219E-18      0.73934556E-12      0.22279956E-24
    0.408202943495         0.64752043E-06      0.12044786E-05     -0.70042453E-19      0.74404462E-12     -0.43267443E-25
    0.411342966137         0.66429877E-06      0.11899421E-05     -0.34278860E-18      0.74835516E-12     -0.21557991E-24
    0.414482988779         0.68142128E-06      0.11764513E-05     -0.59632849E-18      0.75319160E-12     -0.38178343E-24
    0.417623011422         0.69889282E-06      0.11623697E-05     -0.73228206E-18      0.75751807E-12     -0.47722929E-24
    0.420763034064         0.71671828E-06      0.11495016E-05     -0.84612507E-18      0.76250558E-12     -0.56126507E-24
    0.423903056706         0.73490258E-06      0.11358053E-05      0.16497190E-17      0.76681332E-12      0.11137706E-23
    0.427043079349         0.75345064E-06      0.11235539E-05      0.26894027E-19      0.77196848E-12      0.18478278E-25
    0.430183101991         0.77236737E-06      0.11101451E-05      0.24074257E-18      0.77619858E-12      0.16832398E-24
    0.433323124633         0.79165771E-06      0.10985064E-05      0.17893333E-18      0.78153911E-12      0.12730322E-24
    0.436463147275         0.81132662E-06      0.10852277E-05      0.27514190E-19      0.78558208E-12      0.19917160E-25
    0.439603169918         0.83137904E-06      0.10741986E-05     -0.49737844E-18      0.79112552E-12     -0.36630914E-24
    0.442743192560         0.85181993E-06      0.10607763E-05      0.39757034E-18      0.79477148E-12      0.29787388E-24
    0.445883215202         0.87265424E-06      0.10503252E-05     -0.31902393E-18      0.80051119E-12     -0.24314586E-24
    0.449023237844         0.89388696E-06      0.10361762E-05     -0.23054056E-19      0.80328554E-12     -0.17872433E-25
    0.452163260487         0.91552302E-06      0.10260928E-05      0.29594691E-18      0.80906459E-12      0.23335137E-24
    0.455303283129         0.93756741E-06      0.10096861E-05     -0.32738554E-20      0.80967483E-12     -0.26253291E-26
    0.458443305771         0.96002506E-06      0.99872003E-06     -0.33094000E-18      0.81444777E-12     -0.26987878E-24
    0.461583328413         0.98290095E-06      0.97440986E-06     -0.69102552E-19      0.80802324E-12     -0.57302856E-25
    0.464723351056         0.10062000E-05      0.95127733E-06      0.57932066E-19      0.80208338E-12      0.48846267E-25
    0.467863373698         0.10299272E-05      0.88423891E-06     -0.55398556E-18      0.75801822E-12     -0.47490689E-24
    0.471003396340         0.10540874E-05      0.60178570E-06     -0.10091447E-18      0.52446559E-12     -0.87948525E-25
    0.474143418983         0.10786856E-05      0.69330735E-06     -0.73968600E-19      0.61423351E-12     -0.65532253E-25
    0.477283441625         0.11037267E-05      0.88730986E-06     -0.50545977E-18      0.79906668E-12     -0.45519167E-24
    0.480423464267         0.11292155E-05      0.88024230E-06      0.53588351E-18      0.80570750E-12      0.49050740E-24
    0.483563486909         0.11551570E-05      0.91523801E-06      0.27176362E-18      0.85142049E-12      0.25281414E-24
    0.486703509552         0.11815559E-05      0.90387202E-06     -0.18830002E-18      0.85451423E-12     -0.17801751E-24
    0.489843532194         0.12084172E-05      0.90729868E-06      0.11272640E-19      0.87163038E-12      0.10829483E-25
    0.492983554836         0.12357457E-05      0.89606517E-06      0.24582668E-18      0.87469937E-12      0.23996518E-24
    0.496123577478         0.12635461E-05      0.89293820E-06     -0.10893575E-18      0.88561539E-12     -0.10804239E-24
    0.499263600121         0.12918231E-05      0.88152945E-06     -0.36025797E-19      0.88824449E-12     -0.36300223E-25
    0.502403622763         0.13205817E-05      0.87618352E-06     -0.26390021E-18      0.89687129E-12     -0.27013122E-24
    0.505543645405         0.13498263E-05      0.86368107E-06     -0.27305198E-18      0.89803896E-12     -0.28391420E-24
    0.508683668048         0.13795618E-05      0.85710788E-06      0.15115634E-18      0.90521427E-12      0.15964020E-24
