 
 # eight columns.
 # Omega (column 1); |pulse ft|^2 (2); cross section (Mb) (3); flux (5); flux in
 tegral domega (7)
 
  0.0000      0.138618E-10      0.000000E+00      0.000000E+00      0.146032E-07     -0.169407E-20      0.364897E-11     -0.423305E-24
  0.0031      0.285471E-10      0.206359E+01      0.466259E-13      0.146118E-07      0.330148E-21      0.730011E-11     -0.340809E-24
  0.0063      0.726175E-10      0.163756E+01      0.166094E-12      0.147478E-07      0.149584E-20      0.109852E-10      0.329641E-25
  0.0094      0.146116E-09      0.123085E+01      0.146011E-12      0.148697E-07      0.176394E-20      0.147008E-10      0.473728E-24
  0.0126      0.249115E-09      0.970134E+00     -0.718208E-14      0.149862E-07     -0.110946E-21      0.184455E-10      0.446005E-24
  0.0157      0.381716E-09      0.797537E+00     -0.297589E-14      0.151022E-07     -0.563517E-22      0.222191E-10      0.431925E-24
  0.0188      0.544048E-09      0.676627E+00      0.339650E-13      0.152179E-07      0.763901E-21      0.260217E-10      0.622804E-24
  0.0220      0.736270E-09      0.587759E+00     -0.540785E-13      0.153341E-07     -0.141086E-20      0.298533E-10      0.270266E-24
  0.0251      0.958571E-09      0.519942E+00     -0.859404E-14      0.154529E-07     -0.255418E-21      0.337146E-10      0.206443E-24
  0.0283      0.121117E-08      0.466528E+00      0.503326E-13      0.155725E-07      0.168008E-20      0.376058E-10      0.626254E-24
  0.0314      0.149430E-08      0.423394E+00      0.572996E-13      0.156929E-07      0.212379E-20      0.415271E-10      0.115693E-23
  0.0345      0.180826E-08      0.387858E+00     -0.224169E-14      0.158147E-07     -0.914035E-22      0.454788E-10      0.113410E-23
  0.0377      0.215334E-08      0.358086E+00      0.146469E-14      0.159381E-07      0.651922E-22      0.494613E-10      0.115039E-23
  0.0408      0.252987E-08      0.332774E+00      0.375442E-13      0.160629E-07      0.181225E-20      0.534750E-10      0.160322E-23
  0.0440      0.293823E-08      0.310996E+00      0.305356E-13      0.161894E-07      0.158958E-20      0.575203E-10      0.200042E-23
  0.0471      0.337880E-08      0.292050E+00      0.907087E-14      0.163173E-07      0.506803E-21      0.615976E-10      0.212706E-23
  0.0502      0.385201E-08      0.275428E+00      0.221226E-13      0.164473E-07      0.132106E-20      0.657074E-10      0.245716E-23
  0.0534      0.435831E-08      0.260713E+00      0.668344E-13      0.165787E-07      0.425000E-20      0.698500E-10      0.351913E-23
  0.0565      0.489819E-08      0.247600E+00      0.217865E-13      0.167122E-07      0.147052E-20      0.740260E-10      0.388657E-23
  0.0597      0.547216E-08      0.235832E+00     -0.338834E-14      0.168472E-07     -0.242054E-21      0.782357E-10      0.382609E-23
  0.0628      0.608077E-08      0.225211E+00      0.201082E-13      0.169839E-07      0.151643E-20      0.824795E-10      0.420501E-23
  0.0659      0.672460E-08      0.215571E+00     -0.473360E-13      0.171221E-07     -0.375974E-20      0.867579E-10      0.326554E-23
  0.0691      0.740424E-08      0.206799E+00     -0.441823E-13      0.172634E-07     -0.368829E-20      0.910716E-10      0.234393E-23
  0.0722      0.812035E-08      0.198762E+00     -0.482899E-13      0.174060E-07     -0.422886E-20      0.954210E-10      0.128724E-23
  0.0754      0.887359E-08      0.191378E+00     -0.109195E-13      0.175509E-07     -0.100141E-20      0.998065E-10      0.103701E-23
  0.0785      0.966466E-08      0.184563E+00     -0.184984E-13      0.176975E-07     -0.177379E-20      0.104229E-09      0.593790E-24
  0.0816      0.104943E-07      0.178260E+00     -0.672138E-14      0.178465E-07     -0.672911E-21      0.108688E-09      0.425646E-24
  0.0848      0.113633E-07      0.172404E+00      0.212926E-13      0.179973E-07      0.222274E-20      0.113185E-09      0.981053E-24
  0.0879      0.122724E-07      0.166955E+00      0.528519E-14      0.181506E-07      0.574580E-21      0.117720E-09      0.112463E-23
  0.0911      0.132224E-07      0.161866E+00      0.151989E-13      0.183058E-07      0.171888E-20      0.122295E-09      0.155413E-23
  0.0942      0.142143E-07      0.157105E+00      0.341716E-13      0.184635E-07      0.401596E-20      0.126908E-09      0.255762E-23
  0.0973      0.152489E-07      0.152636E+00      0.134914E-13      0.186233E-07      0.164609E-20      0.131562E-09      0.296894E-23
  0.1005      0.163272E-07      0.148438E+00      0.164268E-13      0.187857E-07      0.207891E-20      0.136256E-09      0.348841E-23
  0.1036      0.174501E-07      0.144481E+00      0.386091E-13      0.189502E-07      0.506400E-20      0.140991E-09      0.475377E-23
  0.1068      0.186186E-07      0.140748E+00      0.121981E-13      0.191175E-07      0.165684E-20      0.145768E-09      0.516778E-23
  0.1099      0.198338E-07      0.137217E+00      0.227733E-13      0.192870E-07      0.320098E-20      0.150587E-09      0.596762E-23
  0.1130      0.210967E-07      0.133874E+00      0.140846E-13      0.194593E-07      0.204727E-20      0.155450E-09      0.647918E-23
  0.1162      0.224085E-07      0.130701E+00      0.456345E-14      0.196341E-07      0.685526E-21      0.160356E-09      0.665048E-23
  0.1193      0.237702E-07      0.127689E+00      0.497942E-14      0.198117E-07      0.772587E-21      0.165306E-09      0.684353E-23
  0.1225      0.251830E-07      0.124822E+00      0.407152E-13      0.199919E-07      0.652108E-20      0.170302E-09      0.847299E-23
  0.1256      0.266482E-07      0.122091E+00      0.329255E-14      0.201750E-07      0.544078E-21      0.175343E-09      0.860894E-23
  0.1287      0.281671E-07      0.119487E+00      0.393438E-14      0.203609E-07      0.670430E-21      0.180431E-09      0.877646E-23
  0.1319      0.297408E-07      0.117000E+00     -0.603644E-14      0.205498E-07     -0.106024E-20      0.185565E-09      0.851153E-23
  0.1350      0.313707E-07      0.114622E+00     -0.125969E-13      0.207416E-07     -0.227950E-20      0.190748E-09      0.794194E-23
  0.1382      0.330582E-07      0.112346E+00     -0.209018E-13      0.209365E-07     -0.389519E-20      0.195980E-09      0.696863E-23
  0.1413      0.348046E-07      0.110166E+00      0.878740E-14      0.211345E-07      0.168579E-20      0.201261E-09      0.738987E-23
  0.1444      0.366115E-07      0.108076E+00     -0.769192E-14      0.213358E-07     -0.151850E-20      0.206592E-09      0.701043E-23
  0.1476      0.384802E-07      0.106070E+00      0.634408E-15      0.215403E-07      0.128833E-21      0.211974E-09      0.704263E-23
  0.1507      0.404124E-07      0.104143E+00      0.544047E-14      0.217481E-07      0.113613E-20      0.217409E-09      0.732652E-23
  0.1539      0.424094E-07      0.102291E+00     -0.140293E-13      0.219595E-07     -0.301176E-20      0.222896E-09      0.657395E-23
  0.1570      0.444730E-07      0.100508E+00     -0.125715E-13      0.221742E-07     -0.277354E-20      0.228437E-09      0.588091E-23
  0.1601      0.466048E-07      0.987932E-01      0.934791E-14      0.223927E-07      0.211882E-20      0.234032E-09      0.641036E-23
  0.1633      0.488064E-07      0.971401E-01      0.519640E-15      0.226147E-07      0.120975E-21      0.239683E-09      0.644058E-23
  0.1664      0.510796E-07      0.955475E-01      0.520251E-14      0.228408E-07      0.124367E-20      0.245390E-09      0.675135E-23
  0.1696      0.534260E-07      0.940103E-01      0.642795E-14      0.230704E-07      0.157743E-20      0.251155E-09      0.714551E-23
  0.1727      0.558476E-07      0.925280E-01     -0.144672E-14      0.233042E-07     -0.364373E-21      0.256978E-09      0.705446E-23
  0.1758      0.583460E-07      0.910954E-01     -0.793316E-14      0.235418E-07     -0.205017E-20      0.262861E-09      0.654217E-23
  0.1790      0.609233E-07      0.897130E-01     -0.897348E-14      0.237839E-07     -0.237897E-20      0.268804E-09      0.594773E-23
  0.1821      0.635813E-07      0.883753E-01     -0.868531E-15      0.240299E-07     -0.236160E-21      0.274808E-09      0.588872E-23
  0.1853      0.663220E-07      0.870838E-01      0.494105E-14      0.242808E-07      0.137767E-20      0.280875E-09      0.623296E-23
  0.1884      0.691474E-07      0.858325E-01     -0.718365E-14      0.245356E-07     -0.205348E-20      0.287006E-09      0.571985E-23
  0.1915      0.720595E-07      0.846244E-01      0.477943E-14      0.247957E-07      0.140042E-20      0.293202E-09      0.606978E-23
  0.1947      0.750604E-07      0.834516E-01     -0.747328E-14      0.250596E-07     -0.224414E-20      0.299464E-09      0.550902E-23
  0.1978      0.781523E-07      0.823198E-01      0.880959E-14      0.253294E-07      0.271067E-20      0.305793E-09      0.618635E-23
  0.2010      0.813373E-07      0.812191E-01      0.209267E-14      0.256028E-07      0.659677E-21      0.312190E-09      0.635119E-23
  0.2041      0.846177E-07      0.801562E-01     -0.225048E-14      0.258824E-07     -0.726678E-21      0.318658E-09      0.616961E-23
  0.2072      0.879957E-07      0.791225E-01      0.431847E-14      0.261660E-07      0.142813E-20      0.325196E-09      0.652646E-23
  0.2104      0.914737E-07      0.781236E-01      0.126920E-13      0.264560E-07      0.429803E-20      0.331807E-09      0.760044E-23
  0.2135      0.950539E-07      0.771523E-01      0.830112E-14      0.267504E-07      0.287817E-20      0.338491E-09      0.831962E-23
  0.2167      0.987388E-07      0.762135E-01     -0.947566E-14      0.270514E-07     -0.336332E-20      0.345250E-09      0.747921E-23
  0.2198      0.102531E-06      0.753008E-01     -0.346528E-14      0.273575E-07     -0.125897E-20      0.352086E-09      0.716463E-23
  0.2229      0.106432E-06      0.744184E-01     -0.113903E-14      0.276704E-07     -0.423516E-21      0.359000E-09      0.705880E-23
  0.2261      0.110446E-06      0.735605E-01     -0.360886E-14      0.279887E-07     -0.137312E-20      0.365994E-09      0.671569E-23
  0.2292      0.114575E-06      0.727310E-01     -0.687154E-14      0.283143E-07     -0.267510E-20      0.373069E-09      0.604725E-23
  0.2324      0.118821E-06      0.719241E-01     -0.838142E-14      0.286454E-07     -0.333809E-20      0.380227E-09      0.521315E-23
  0.2355      0.123187E-06      0.711443E-01      0.271158E-14      0.289843E-07      0.110470E-20      0.387469E-09      0.548918E-23
  0.2386      0.127675E-06      0.703855E-01      0.176676E-15      0.293289E-07      0.736191E-22      0.394798E-09      0.550758E-23
  0.2418      0.132290E-06      0.696525E-01      0.102004E-14      0.296819E-07      0.434683E-21      0.402215E-09      0.561619E-23
  0.2449      0.137032E-06      0.689392E-01     -0.104480E-13      0.300410E-07     -0.455280E-20      0.409721E-09      0.447856E-23
  0.2481      0.141906E-06      0.682505E-01     -0.129216E-13      0.304088E-07     -0.575718E-20      0.417320E-09      0.303999E-23
  0.2512      0.146914E-06      0.675805E-01     -0.173806E-13      0.307832E-07     -0.791695E-20      0.425012E-09      0.106174E-23
  0.2543      0.152058E-06      0.669339E-01     -0.446246E-14      0.311667E-07     -0.207788E-20      0.432799E-09      0.542530E-24
  0.2575      0.157343E-06      0.663051E-01     -0.102020E-14      0.315574E-07     -0.485555E-21      0.440685E-09      0.421202E-24
  0.2606      0.162771E-06      0.656985E-01     -0.878146E-14      0.319577E-07     -0.427156E-20      0.448670E-09     -0.646154E-24
  0.2638      0.168346E-06      0.651093E-01      0.747144E-14      0.323657E-07      0.371404E-20      0.456758E-09      0.281892E-24
  0.2669      0.174069E-06      0.645411E-01      0.115995E-13      0.327838E-07      0.589201E-20      0.464949E-09      0.175416E-23
  0.2700      0.179945E-06      0.639898E-01      0.801054E-14      0.332102E-07      0.415741E-20      0.473248E-09      0.279299E-23
  0.2732      0.185977E-06      0.634585E-01     -0.686738E-14      0.336472E-07     -0.364125E-20      0.481655E-09      0.188313E-23
  0.2763      0.192167E-06      0.629440E-01     -0.397213E-14      0.340935E-07     -0.215150E-20      0.490175E-09      0.134553E-23
  0.2795      0.198521E-06      0.624481E-01     -0.648417E-14      0.345505E-07     -0.358748E-20      0.498808E-09      0.449106E-24
  0.2826      0.205039E-06      0.619693E-01     -0.170725E-13      0.350180E-07     -0.964741E-20      0.507558E-09     -0.196154E-23
  0.2857      0.211727E-06      0.615078E-01     -0.124069E-13      0.354964E-07     -0.716008E-20      0.516428E-09     -0.375067E-23
  0.2889      0.218588E-06      0.610638E-01     -0.196055E-13      0.359866E-07     -0.115541E-19      0.525420E-09     -0.663774E-23
  0.2920      0.225624E-06      0.606355E-01     -0.249491E-14      0.364879E-07     -0.150133E-20      0.534537E-09     -0.701288E-23
  0.2952      0.232840E-06      0.602257E-01     -0.136652E-14      0.370025E-07     -0.839588E-21      0.543783E-09     -0.722267E-23
  0.2983      0.240239E-06      0.598299E-01     -0.692076E-14      0.375283E-07     -0.434104E-20      0.553161E-09     -0.830739E-23
  0.3014      0.247826E-06      0.594537E-01      0.301642E-14      0.380692E-07      0.193147E-20      0.562673E-09     -0.782477E-23
  0.3046      0.255602E-06      0.590897E-01     -0.873246E-15      0.386211E-07     -0.570755E-21      0.572324E-09     -0.796738E-23
  0.3077      0.263573E-06      0.587469E-01     -0.454070E-14      0.391904E-07     -0.302914E-20      0.582116E-09     -0.872429E-23
  0.3109      0.271743E-06      0.584140E-01      0.612699E-14      0.397703E-07      0.417147E-20      0.592054E-09     -0.768194E-23
  0.3140      0.280114E-06      0.581045E-01      0.454670E-14      0.403705E-07      0.315900E-20      0.602141E-09     -0.689259E-23
  0.3171      0.288690E-06      0.578023E-01      0.572864E-15      0.409803E-07      0.406146E-21      0.612381E-09     -0.679110E-23
  0.3203      0.297477E-06      0.575264E-01     -0.711243E-15      0.416140E-07     -0.514506E-21      0.622780E-09     -0.691966E-23
  0.3234      0.306477E-06      0.572544E-01     -0.199275E-14      0.422560E-07     -0.147073E-20      0.633338E-09     -0.728716E-23
  0.3266      0.315694E-06      0.570124E-01     -0.661369E-14      0.429262E-07     -0.497963E-20      0.644065E-09     -0.853145E-23
  0.3297      0.325133E-06      0.567704E-01      0.624650E-15      0.436027E-07      0.479765E-21      0.654960E-09     -0.841157E-23
  0.3328      0.334798E-06      0.565631E-01     -0.873191E-15      0.443129E-07     -0.684078E-21      0.666033E-09     -0.858250E-23
  0.3360      0.344692E-06      0.563508E-01     -0.137063E-14      0.450265E-07     -0.109519E-20      0.677284E-09     -0.885616E-23
  0.3391      0.354821E-06      0.561794E-01     -0.149824E-14      0.457807E-07     -0.122092E-20      0.688723E-09     -0.916124E-23
  0.3423      0.365188E-06      0.559966E-01     -0.568564E-14      0.465341E-07     -0.472486E-20      0.700351E-09     -0.103419E-22
  0.3454      0.375797E-06      0.558625E-01     -0.633918E-14      0.473369E-07     -0.537171E-20      0.712179E-09     -0.116841E-22
  0.3485      0.386652E-06      0.557091E-01     -0.361123E-14      0.481331E-07     -0.312013E-20      0.724206E-09     -0.124638E-22
  0.3517      0.397759E-06      0.556142E-01     -0.635910E-14      0.489900E-07     -0.560167E-20      0.736448E-09     -0.138635E-22
  0.3548      0.409120E-06      0.554902E-01     -0.909496E-14      0.498321E-07     -0.816758E-20      0.748899E-09     -0.159044E-22
  0.3580      0.420742E-06      0.554371E-01     -0.160116E-14      0.507494E-07     -0.146576E-20      0.761580E-09     -0.162706E-22
  0.3611      0.432627E-06      0.553423E-01     -0.452455E-14      0.516408E-07     -0.422193E-20      0.774484E-09     -0.173256E-22
  0.3642      0.444781E-06      0.553342E-01     -0.577859E-14      0.526262E-07     -0.549579E-20      0.787634E-09     -0.186988E-22
  0.3674      0.457208E-06      0.552684E-01      0.341360E-14      0.535704E-07      0.330872E-20      0.801020E-09     -0.178721E-22
  0.3705      0.469913E-06      0.553096E-01     -0.773780E-15      0.546331E-07     -0.764315E-21      0.814672E-09     -0.180630E-22
  0.3737      0.482899E-06      0.552725E-01     -0.286647E-14      0.556337E-07     -0.288521E-20      0.828573E-09     -0.187840E-22
  0.3768      0.496172E-06      0.553684E-01     -0.443601E-14      0.567849E-07     -0.454949E-20      0.842762E-09     -0.199208E-22
  0.3799      0.509736E-06      0.553591E-01     -0.264087E-14      0.578455E-07     -0.275947E-20      0.857216E-09     -0.206103E-22
  0.3831      0.523597E-06      0.555170E-01     -0.309418E-14      0.590994E-07     -0.329383E-20      0.871984E-09     -0.214334E-22
  0.3862      0.537757E-06      0.555344E-01     -0.606563E-14      0.602231E-07     -0.657774E-20      0.887032E-09     -0.230770E-22
  0.3894      0.552223E-06      0.557636E-01     -0.429983E-14      0.615975E-07     -0.474967E-20      0.902424E-09     -0.242638E-22
  0.3925      0.566999E-06      0.558056E-01     -0.692563E-14      0.627870E-07     -0.779204E-20      0.918113E-09     -0.262108E-22
  0.3956      0.582089E-06      0.561184E-01     -0.295391E-14      0.643049E-07     -0.338482E-20      0.934181E-09     -0.270566E-22
  0.3988      0.597499E-06      0.561820E-01     -0.313732E-14      0.655617E-07     -0.366110E-20      0.950563E-09     -0.279714E-22
  0.4019      0.613233E-06      0.565951E-01     -0.260755E-14      0.672533E-07     -0.309862E-20      0.967368E-09     -0.287457E-22
  0.4051      0.629296E-06      0.566751E-01     -0.482910E-14      0.685768E-07     -0.584320E-20      0.984504E-09     -0.302058E-22
  0.4082      0.645693E-06      0.572114E-01     -0.319330E-14      0.704831E-07     -0.393407E-20      0.100212E-08     -0.311888E-22
  0.4113      0.662428E-06      0.572997E-01     -0.562287E-14      0.718687E-07     -0.705254E-20      0.102007E-08     -0.329511E-22
  0.4145      0.679507E-06      0.579914E-01     -0.252653E-14      0.740463E-07     -0.322600E-20      0.103858E-08     -0.337571E-22
  0.4176      0.696935E-06      0.580752E-01     -0.533061E-14      0.754834E-07     -0.692846E-20      0.105744E-08     -0.354884E-22
  0.4208      0.714716E-06      0.589687E-01     -0.334883E-14      0.780135E-07     -0.443038E-20      0.107693E-08     -0.365954E-22
  0.4239      0.732855E-06      0.590278E-01     -0.298807E-14      0.794805E-07     -0.402341E-20      0.109679E-08     -0.376008E-22
  0.4270      0.751357E-06      0.601917E-01      0.199440E-14      0.824828E-07      0.273300E-20      0.111740E-08     -0.369179E-22
  0.4302      0.770227E-06      0.601929E-01     -0.479997E-14      0.839389E-07     -0.669355E-20      0.113838E-08     -0.385904E-22
  0.4333      0.789470E-06      0.617333E-01     -0.434174E-14      0.875983E-07     -0.616084E-20      0.116026E-08     -0.401299E-22
  0.4365      0.809092E-06      0.616224E-01     -0.275462E-14      0.889696E-07     -0.397708E-20      0.118250E-08     -0.411236E-22
  0.4396      0.829096E-06      0.637099E-01     -0.301834E-14      0.935844E-07     -0.443369E-20      0.120588E-08     -0.422315E-22
  0.4427      0.849488E-06      0.633945E-01     -0.112920E-14      0.947348E-07     -0.168745E-20      0.122955E-08     -0.426532E-22
  0.4459      0.870273E-06      0.663205E-01     -0.116447E-14      0.100817E-06     -0.177017E-20      0.125474E-08     -0.430955E-22
  0.4490      0.891456E-06      0.656362E-01     -0.370402E-14      0.101491E-06     -0.572740E-20      0.128010E-08     -0.445266E-22
  0.4522      0.913042E-06      0.699358E-01     -0.420768E-16      0.109989E-06     -0.661744E-22      0.130759E-08     -0.445432E-22
  0.4553      0.935035E-06      0.685729E-01     -0.706020E-14      0.109681E-06     -0.112927E-19      0.133499E-08     -0.473649E-22
  0.4584      0.957442E-06      0.753330E-01     -0.899090E-14      0.122536E-06     -0.146246E-19      0.136561E-08     -0.510192E-22
