
 # Omega; pulse ft; projected flux at t=    1000.2500000000000     
    0.000000000000         0.18717486E-09     -0.00000000E+00     -0.00000000E+00     -0.28315612E-13     -0.45236440E-25
    0.003140022642         0.20186436E-09     -0.57052562E-06     -0.66088277E-18     -0.14283169E-13     -0.16545270E-25
    0.006280045285         0.24594737E-09      0.66272603E-06     -0.26465025E-17      0.10107319E-13     -0.40362148E-25
    0.009420067927         0.31946741E-09      0.98370314E-06     -0.33545528E-17      0.12991495E-13     -0.44302650E-25
    0.012560090569         0.42249703E-09      0.11770369E-05     -0.17353386E-17      0.15418549E-13     -0.22732001E-25
    0.015700113211         0.55513782E-09      0.11572248E-05     -0.19526967E-17      0.15934495E-13     -0.26887806E-25
    0.018840135854         0.71752051E-09      0.11333635E-05     -0.21682518E-17      0.16809007E-13     -0.32157520E-25
    0.021980158496         0.90980495E-09      0.10551000E-05     -0.82744629E-18      0.17007233E-13     -0.13337666E-25
    0.025120181138         0.11321802E-08      0.99624948E-06     -0.22321858E-17      0.17485717E-13     -0.39178308E-25
    0.028260203780         0.13848647E-08      0.92127541E-06     -0.18979513E-17      0.17581020E-13     -0.36219267E-25
    0.031400226423         0.16681061E-08      0.87345688E-06     -0.14777183E-17      0.18069864E-13     -0.30570677E-25
    0.034540249065         0.19821816E-08      0.82010235E-06     -0.14694537E-17      0.18327726E-13     -0.32839491E-25
    0.037680271707         0.23273981E-08      0.76378938E-06     -0.13202840E-17      0.18371846E-13     -0.31757519E-25
    0.040820294349         0.27040919E-08      0.71088099E-06     -0.68108726E-18      0.18338540E-13     -0.17569954E-25
    0.043960316992         0.31126296E-08      0.67244565E-06     -0.10955658E-17      0.18541564E-13     -0.30208393E-25
    0.047100339634         0.35534072E-08      0.63297918E-06     -0.10448495E-17      0.18596573E-13     -0.30697092E-25
    0.050240362276         0.40268513E-08      0.60136560E-06     -0.12946246E-17      0.18770418E-13     -0.40409104E-25
    0.053380384919         0.45334185E-08      0.56944147E-06     -0.81745476E-18      0.18832837E-13     -0.27035249E-25
    0.056520407561         0.50735959E-08      0.54319202E-06     -0.61603881E-18      0.18988319E-13     -0.21534818E-25
    0.059660430203         0.56479014E-08      0.51682880E-06     -0.86899412E-18      0.19053290E-13     -0.32036134E-25
    0.062800452845         0.62568834E-08      0.49475398E-06     -0.11406165E-17      0.19195840E-13     -0.44254505E-25
    0.065940475488         0.69011217E-08      0.47264418E-06     -0.77762017E-18      0.19263024E-13     -0.31692585E-25
    0.069080498130         0.75812269E-08      0.45389244E-06     -0.97414623E-18      0.19398115E-13     -0.41632331E-25
    0.072220520772         0.82978416E-08      0.43514479E-06     -0.11487692E-17      0.19469771E-13     -0.51399613E-25
    0.075360543414         0.90516395E-08      0.41902054E-06     -0.45343897E-18      0.19599324E-13     -0.21209216E-25
    0.078500566057         0.98433265E-08      0.40304605E-06     -0.50985192E-18      0.19680962E-13     -0.24896352E-25
    0.081640588699         0.10673641E-07      0.38883876E-06     -0.69756804E-18      0.19796962E-13     -0.35515307E-25
    0.084780611341         0.11543353E-07      0.37487494E-06     -0.37181059E-18      0.19876704E-13     -0.19714226E-25
    0.087920633984         0.12453265E-07      0.36241194E-06     -0.67767010E-18      0.19990215E-13     -0.37379484E-25
    0.091060656626         0.13404215E-07      0.35019569E-06     -0.41558155E-18      0.20074463E-13     -0.23822613E-25
    0.094200679268         0.14397070E-07      0.33912512E-06     -0.28634656E-18      0.20183784E-13     -0.17042551E-25
    0.097340701910         0.15432734E-07      0.32833063E-06     -0.46028247E-18      0.20271335E-13     -0.28418122E-25
    0.100480724553         0.16512144E-07      0.31843676E-06     -0.54313353E-18      0.20378229E-13     -0.34757606E-25
    0.103620747195         0.17636269E-07      0.30885029E-06     -0.29700111E-18      0.20470598E-13     -0.19685235E-25
    0.106760769837         0.18806114E-07      0.29994036E-06     -0.34389595E-18      0.20575236E-13     -0.23590491E-25
    0.109900792479         0.20022721E-07      0.29138214E-06     -0.31200578E-18      0.20673201E-13     -0.22136423E-25
    0.113040815122         0.21287162E-07      0.28329203E-06     -0.18447360E-18      0.20774921E-13     -0.13528176E-25
    0.116180837764         0.22600547E-07      0.27560474E-06     -0.22951701E-18      0.20878230E-13     -0.17386889E-25
    0.119320860406         0.23964023E-07      0.26821418E-06     -0.19993691E-18      0.20977206E-13     -0.15637195E-25
    0.122460883048         0.25378770E-07      0.26128052E-06     -0.37857279E-18      0.21086416E-13     -0.30552386E-25
    0.125600905691         0.26846007E-07      0.25448770E-06     -0.31298055E-18      0.21182453E-13     -0.26051145E-25
    0.128740928333         0.28366986E-07      0.24821577E-06     -0.38341761E-18      0.21298474E-13     -0.32899641E-25
    0.131880950975         0.29943001E-07      0.24193134E-06     -0.39719627E-18      0.21390844E-13     -0.35118904E-25
    0.135020973618         0.31575378E-07      0.23625112E-06     -0.26949334E-18      0.21515118E-13     -0.24542449E-25
    0.138160996260         0.33265483E-07      0.23039121E-06     -0.43158437E-18      0.21602143E-13     -0.40466592E-25
    0.141301018902         0.35014721E-07      0.22525549E-06     -0.13598839E-18      0.21737185E-13     -0.13122898E-25
    0.144441041544         0.36824533E-07      0.21973196E-06     -0.35781398E-18      0.21815362E-13     -0.35524379E-25
    0.147581064187         0.38696400E-07      0.21512253E-06     -0.18931640E-18      0.21965868E-13     -0.19330839E-25
    0.150721086829         0.40631842E-07      0.20982667E-06     -0.21917364E-18      0.22028033E-13     -0.23009298E-25
    0.153861109471         0.42632417E-07      0.20577822E-06     -0.27438649E-18      0.22204094E-13     -0.29607133E-25
    0.157001132113         0.44699723E-07      0.20054161E-06     -0.26962884E-18      0.22234589E-13     -0.29894476E-25
    0.160141154756         0.46835399E-07      0.19718455E-06     -0.15319086E-18      0.22457773E-13     -0.17447237E-25
    0.163281177398         0.49041122E-07      0.19174429E-06     -0.24099661E-18      0.22426901E-13     -0.28187578E-25
    0.166421200040         0.51318613E-07      0.18925266E-06     -0.11496406E-18      0.22726408E-13     -0.13805460E-25
    0.169561222683         0.53669630E-07      0.18373229E-06     -0.21773872E-18      0.22646969E-13     -0.26838626E-25
    0.172701245325         0.56095974E-07      0.18105117E-06     -0.34337604E-18      0.22901298E-13     -0.43433893E-25
    0.175841267967         0.58599489E-07      0.17779871E-06     -0.19635457E-18      0.23074068E-13     -0.25482179E-25
    0.178981290609         0.61182058E-07      0.17295904E-06     -0.18555779E-18      0.23024079E-13     -0.24701207E-25
    0.182121313252         0.63845608E-07      0.17132112E-06     -0.38167780E-18      0.23388572E-13     -0.52106235E-25
    0.185261335894         0.66592107E-07      0.16686010E-06     -0.27277416E-18      0.23356783E-13     -0.38182446E-25
    0.188401358536         0.69423567E-07      0.16449508E-06     -0.18630863E-18      0.23604693E-13     -0.26734891E-25
    0.191541381178         0.72342043E-07      0.16100198E-06     -0.29744461E-18      0.23680012E-13     -0.43747859E-25
    0.194681403821         0.75349631E-07      0.15824856E-06     -0.19615159E-18      0.23851679E-13     -0.29564535E-25
    0.197821426463         0.78448474E-07      0.15526767E-06     -0.19053790E-18      0.23978100E-13     -0.29424906E-25
    0.200961449105         0.81640757E-07      0.15247137E-06     -0.23331178E-18      0.24121545E-13     -0.36910802E-25
    0.204101471747         0.84928709E-07      0.14978508E-06     -0.23397358E-18      0.24271660E-13     -0.37913838E-25
    0.207241494390         0.88314602E-07      0.14706600E-06     -0.24149921E-18      0.24405663E-13     -0.40076895E-25
    0.210381517032         0.91800755E-07      0.14458488E-06     -0.80394144E-19      0.24568808E-13     -0.13661099E-25
    0.213521539674         0.95389531E-07      0.14198141E-06      0.20509046E-19      0.24700915E-13      0.35680179E-26
    0.216661562317         0.99083337E-07      0.13966526E-06     -0.26561768E-18      0.24873087E-13     -0.47304044E-25
    0.219801584959         0.10288463E-06      0.13718837E-06     -0.18576698E-18      0.25006880E-13     -0.33861854E-25
    0.222941607601         0.10679590E-06      0.13501324E-06     -0.93202175E-20      0.25186183E-13     -0.17386494E-26
    0.226081630243         0.11081969E-06      0.13266262E-06     -0.13328756E-18      0.25323445E-13     -0.25442736E-25
    0.229221652886         0.11495860E-06      0.13061260E-06      0.14195257E-18      0.25509001E-13      0.27723728E-25
    0.232361675528         0.11921526E-06      0.12838491E-06     -0.11348017E-18      0.25650974E-13     -0.22673046E-25
    0.235501698170         0.12359235E-06      0.12644873E-06     -0.12270165E-18      0.25842502E-13     -0.25076705E-25
    0.238641720812         0.12809259E-06      0.12433855E-06     -0.69252637E-19      0.25989982E-13     -0.14475598E-25
    0.241781743455         0.13271877E-06      0.12250635E-06     -0.17422756E-18      0.26187256E-13     -0.37243307E-25
    0.244921766097         0.13747370E-06      0.12050869E-06     -0.13907964E-18      0.26341054E-13     -0.30400333E-25
    0.248061788739         0.14236024E-06      0.11877279E-06     -0.13525102E-18      0.26544120E-13     -0.30226783E-25
    0.251201811381         0.14738131E-06      0.11688218E-06     -0.17419365E-18      0.26704872E-13     -0.39799216E-25
    0.254341834024         0.15253987E-06      0.11523547E-06     -0.16573364E-18      0.26913757E-13     -0.38707827E-25
    0.257481856666         0.15783893E-06      0.11344695E-06     -0.11016164E-18      0.27082133E-13     -0.26297862E-25
    0.260621879308         0.16328153E-06      0.11188347E-06     -0.16298471E-18      0.27296984E-13     -0.39764506E-25
    0.263761901951         0.16887077E-06      0.11019275E-06     -0.10596528E-18      0.27473754E-13     -0.26419741E-25
    0.266901924593         0.17460981E-06      0.10870736E-06     -0.15616834E-18      0.27694811E-13     -0.39786200E-25
    0.270041947235         0.18050182E-06      0.10710962E-06     -0.65657786E-19      0.27880553E-13     -0.17090672E-25
    0.273181969877         0.18655005E-06      0.10569692E-06     -0.12578863E-18      0.28107888E-13     -0.33450858E-25
    0.276321992520         0.19275778E-06      0.10418793E-06     -0.23257323E-18      0.28303257E-13     -0.63179870E-25
    0.279462015162         0.19912834E-06      0.10284435E-06     -0.90473703E-19      0.28537324E-13     -0.25104709E-25
    0.282602037804         0.20566511E-06      0.10142054E-06     -0.12326211E-18      0.28743114E-13     -0.34933127E-25
    0.285742060446         0.21237151E-06      0.10014222E-06     -0.14816147E-18      0.28984235E-13     -0.42882479E-25
    0.288882083089         0.21925100E-06      0.98799045E-07     -0.50199516E-19      0.29200902E-13     -0.14836896E-25
    0.292022105731         0.22630710E-06      0.97582056E-07     -0.58907728E-19      0.29449299E-13     -0.17777769E-25
    0.295162128373         0.23354337E-06      0.96314042E-07     -0.14020329E-18      0.29676936E-13     -0.43200390E-25
    0.298302151016         0.24096340E-06      0.95152742E-07     -0.42721925E-19      0.29932194E-13     -0.13439034E-25
    0.301442173658         0.24857086E-06      0.93989331E-07     -0.39514160E-19      0.30181950E-13     -0.12688828E-25
    0.304582196300         0.25636942E-06      0.92906419E-07     -0.85381359E-19      0.30452993E-13     -0.27986418E-25
    0.307722218942         0.26436283E-06      0.91779153E-07     -0.50142009E-19      0.30704931E-13     -0.16775127E-25
    0.310862241585         0.27255487E-06      0.90729481E-07     -0.79342313E-19      0.30978254E-13     -0.27090272E-25
    0.314002264227         0.28094936E-06      0.89682347E-07     -0.85023471E-19      0.31248183E-13     -0.29624882E-25
    0.317142286869         0.28955016E-06      0.88688303E-07     -0.34392833E-19      0.31532510E-13     -0.12228133E-25
    0.320282309511         0.29836118E-06      0.87710182E-07     -0.64494848E-19      0.31818663E-13     -0.23396826E-25
    0.323422332154         0.30738639E-06      0.86767863E-07     -0.59738646E-19      0.32114123E-13     -0.22110193E-25
    0.326562354796         0.31662976E-06      0.85855539E-07     -0.57559085E-20      0.32417273E-13     -0.21733118E-26
    0.329702377438         0.32609534E-06      0.84964102E-07     -0.11001067E-18      0.32725066E-13     -0.42372086E-25
    0.332842400080         0.33578719E-06      0.84112892E-07     -0.10629875E-18      0.33045368E-13     -0.41761507E-25
    0.335982422723         0.34570944E-06      0.83275965E-07     -0.54897663E-19      0.33368516E-13     -0.21997386E-25
    0.339122445365         0.35586624E-06      0.82480956E-07     -0.62292125E-19      0.33705943E-13     -0.25455753E-25
    0.342262468007         0.36626178E-06      0.81689137E-07     -0.66682044E-19      0.34042322E-13     -0.27788414E-25
    0.345402490650         0.37690029E-06      0.80968665E-07     -0.77219761E-19      0.34406502E-13     -0.32813458E-25
    0.348542513292         0.38778604E-06      0.80211006E-07     -0.82684036E-19      0.34753050E-13     -0.35824540E-25
    0.351682535934         0.39892335E-06      0.79554758E-07     -0.79992521E-19      0.35142072E-13     -0.35335447E-25
    0.354822558576         0.41031655E-06      0.78843557E-07     -0.52555756E-19      0.35505576E-13     -0.23667405E-25
    0.357962581219         0.42197002E-06      0.78246148E-07     -0.43631146E-19      0.35919434E-13     -0.20029178E-25
    0.361102603861         0.43388818E-06      0.77580731E-07     -0.49626024E-19      0.36301420E-13     -0.23220910E-25
    0.364242626503         0.44607547E-06      0.77043136E-07     -0.93357093E-19      0.36742954E-13     -0.44523309E-25
    0.367382649145         0.45853638E-06      0.76422192E-07     -0.62854531E-19      0.37144728E-13     -0.30550216E-25
    0.370522671788         0.47127541E-06      0.75945468E-07     -0.61335791E-19      0.37617021E-13     -0.30380611E-25
    0.373662694430         0.48429711E-06      0.75368525E-07     -0.45480352E-19      0.38040367E-13     -0.22955063E-25
    0.376802717072         0.49760605E-06      0.74952918E-07     -0.62322145E-19      0.38546302E-13     -0.32050630E-25
    0.379942739715         0.51120685E-06      0.74418753E-07     -0.80430268E-19      0.38992713E-13     -0.42142527E-25
    0.383082762357         0.52510413E-06      0.74068038E-07     -0.87765486E-19      0.39537227E-13     -0.46848871E-25
    0.386222784999         0.53930256E-06      0.73576225E-07     -0.42497362E-19      0.40008718E-13     -0.23108891E-25
    0.389362807641         0.55380682E-06      0.73290366E-07     -0.86264405E-19      0.40595067E-13     -0.47781305E-25
    0.392502830284         0.56862162E-06      0.72841637E-07     -0.83421993E-19      0.41094416E-13     -0.47063442E-25
    0.395642852926         0.58375171E-06      0.72623585E-07     -0.39439210E-19      0.41727759E-13     -0.22660818E-25
    0.398782875568         0.59920184E-06      0.72217348E-07     -0.76179097E-19      0.42257200E-13     -0.44575374E-25
    0.401922898210         0.61497679E-06      0.72070286E-07     -0.67167783E-19      0.42943236E-13     -0.40022069E-25
    0.405062920853         0.63108138E-06      0.71706401E-07     -0.33477924E-19      0.43505418E-13     -0.20311591E-25
    0.408202943495         0.64752043E-06      0.71633358E-07     -0.70103750E-19      0.44250196E-13     -0.43305308E-25
    0.411342966137         0.66429877E-06      0.71311787E-07     -0.77425969E-19      0.44848016E-13     -0.48693228E-25
    0.414482988779         0.68142128E-06      0.71316014E-07     -0.39924614E-19      0.45658178E-13     -0.25560671E-25
    0.417623011422         0.69889282E-06      0.71036724E-07     -0.71279360E-19      0.46294737E-13     -0.46452863E-25
    0.420763034064         0.71671828E-06      0.71120195E-07     -0.57872839E-19      0.47176573E-13     -0.38389127E-25
    0.423903056706         0.73490258E-06      0.70882325E-07     -0.33020741E-19      0.47854604E-13     -0.22293209E-25
    0.427043079349         0.75345064E-06      0.71043682E-07     -0.35596927E-19      0.48812508E-13     -0.24457844E-25
    0.430183101991         0.77236737E-06      0.70846469E-07      0.92040798E-19      0.49534904E-13      0.64353695E-25
    0.433323124633         0.79165771E-06      0.71074964E-07     -0.26943784E-19      0.50566719E-13     -0.19169320E-25
    0.436463147275         0.81132662E-06      0.70916409E-07     -0.35815960E-19      0.51335456E-13     -0.25926703E-25
    0.439603169918         0.83137904E-06      0.71176420E-07     -0.75310709E-19      0.52419990E-13     -0.55464810E-25
    0.442743192560         0.85181993E-06      0.71053750E-07     -0.44107565E-19      0.53236004E-13     -0.33046961E-25
    0.445883215202         0.87265424E-06      0.71236962E-07     -0.57966337E-19      0.54293647E-13     -0.44179366E-25
    0.449023237844         0.89388696E-06      0.71148398E-07     -0.69274101E-19      0.55157104E-13     -0.53704073E-25
    0.452163260487         0.91552302E-06      0.70898052E-07     -0.48136594E-19      0.55902450E-13     -0.37955254E-25
    0.455303283129         0.93756741E-06      0.70867816E-07     -0.31440029E-19      0.56829432E-13     -0.25211995E-25
    0.458443305771         0.96002506E-06      0.68706658E-07     -0.42470272E-19      0.56029701E-13     -0.34634149E-25
    0.461583328413         0.98290095E-06      0.69066236E-07     -0.32505977E-19      0.57272742E-13     -0.26955377E-25
    0.464723351056         0.10062000E-05      0.54958601E-07     -0.48070890E-19      0.46339147E-13     -0.40531673E-25
    0.467863373698         0.10299272E-05      0.65309334E-07     -0.51395979E-19      0.55986752E-13     -0.44059459E-25
    0.471003396340         0.10540874E-05     -0.12949467E-06     -0.39160837E-19     -0.11285662E-12     -0.34129278E-25
    0.474143418983         0.10786856E-05     -0.10661967E-06     -0.36343201E-19     -0.94459370E-13     -0.32198147E-25
    0.477283441625         0.11037267E-05      0.77022717E-07     -0.18717877E-19      0.69362790E-13     -0.16856380E-25
    0.480423464267         0.11292155E-05      0.54159156E-07     -0.53532160E-19      0.49573211E-13     -0.48999306E-25
    0.483563486909         0.11551570E-05      0.77365455E-07     -0.26660784E-19      0.71970933E-13     -0.24801787E-25
    0.486703509552         0.11815559E-05      0.75770896E-07     -0.30910495E-19      0.71633270E-13     -0.29222563E-25
    0.489843532194         0.12084172E-05      0.83876797E-07     -0.46059507E-19      0.80579379E-13     -0.44248786E-25
    0.492983554836         0.12357457E-05      0.83602701E-07     -0.32974936E-19      0.81609275E-13     -0.32188680E-25
    0.496123577478         0.12635461E-05      0.89936746E-07     -0.47633938E-19      0.89199193E-13     -0.47243302E-25
    0.499263600121         0.12918231E-05      0.89791712E-07     -0.41903789E-19      0.90475699E-13     -0.42222991E-25
    0.502403622763         0.13205817E-05      0.96862485E-07     -0.31933257E-19      0.99149527E-13     -0.32687240E-25
    0.505543645405         0.13498263E-05      0.96425588E-07     -0.46297691E-19      0.10026147E-12     -0.48139448E-25
    0.508683668048         0.13795618E-05      0.10567361E-06     -0.35879912E-19      0.11160469E-12     -0.37893722E-25
