 
 # Omega; pulse ft; proj flux t=    1000.25000000000     
    0.000000000000         0.64285036E-11      0.00000000E+00      0.00000000E+00      0.00000000E+00      0.00000000E+00      0.00000000E+00      0.00000000E+00
    0.003140022642         0.21245158E-10      0.67102901E-06      0.77935634E-13      0.28139162E-15      0.32681798E-22      0.88357606E-18      0.10262158E-24
    0.006280045285         0.65709671E-10      0.10574147E-05     -0.10495640E-13      0.68573219E-15     -0.68064101E-23      0.30367907E-17      0.81249303E-25
    0.009420067927         0.13986570E-09      0.86599903E-06     -0.14998863E-13      0.79692464E-15     -0.13802514E-22      0.55391521E-17      0.37909096E-25
    0.012560090569         0.24378600E-09      0.67256487E-06      0.16636362E-13      0.80908258E-15      0.20013223E-22      0.80796897E-17      0.10075107E-24
    0.015700113211         0.37757252E-09      0.55095074E-06      0.23510570E-14      0.82120776E-15      0.35043174E-23      0.10658301E-16      0.11175471E-24
    0.018840135854         0.54135636E-09      0.46426776E-06     -0.45102662E-14      0.82681894E-15     -0.80323767E-23      0.13254531E-16      0.86532860E-25
    0.021980158496         0.73529789E-09      0.40148890E-06      0.46533113E-15      0.83243191E-15      0.96479997E-24      0.15868386E-16      0.89562354E-25
    0.025120181138         0.95958676E-09      0.35336130E-06      0.71251513E-14      0.83661016E-15      0.16869346E-22      0.18495361E-16      0.14253248E-24
    0.028260203780         0.12144420E-08      0.31571149E-06     -0.17587969E-14      0.84088103E-15     -0.46844637E-23      0.21135746E-16      0.12782316E-24
    0.031400226423         0.15001122E-08      0.28517950E-06      0.25663412E-14      0.84440723E-15      0.75988531E-23      0.23787204E-16      0.15168373E-24
    0.034540249065         0.18168754E-08      0.26002041E-06      0.14507834E-14      0.84771486E-15      0.47298237E-23      0.26449048E-16      0.16653549E-24
    0.037680271707         0.21650394E-08      0.23898349E-06      0.86148653E-15      0.85106426E-15      0.30679123E-23      0.29121409E-16      0.17616880E-24
    0.040820294349         0.25449417E-08      0.22119344E-06      0.98662591E-15      0.85470573E-15      0.38123863E-23      0.31805204E-16      0.18813978E-24
    0.043960316992         0.29569499E-08      0.20581752E-06     -0.94182953E-15      0.85804125E-15     -0.39264324E-23      0.34499473E-16      0.17581069E-24
    0.047100339634         0.34014614E-08      0.19246344E-06     -0.18212302E-15      0.86145468E-15     -0.81517156E-24      0.37204461E-16      0.17325103E-24
    0.050240362276         0.38789041E-08      0.18070351E-06     -0.79473170E-15      0.86470017E-15     -0.38029402E-23      0.39919639E-16      0.16130972E-24
    0.053380384919         0.43897362E-08      0.17031860E-06     -0.12704406E-14      0.86808346E-15     -0.64752083E-23      0.42645440E-16      0.14097742E-24
    0.056520407561         0.49344463E-08      0.16102293E-06      0.10035918E-15      0.87129166E-15      0.54304136E-24      0.45381316E-16      0.14268258E-24
    0.059660430203         0.55135541E-08      0.15270656E-06      0.45843854E-15      0.87467281E-15      0.26258448E-23      0.48127808E-16      0.15092779E-24
    0.062800452845         0.61276098E-08      0.14518303E-06     -0.17304971E-15      0.87798454E-15     -0.10465064E-23      0.50884700E-16      0.14764174E-24
    0.065940475488         0.67771950E-08      0.13838159E-06      0.33150336E-15      0.88149307E-15      0.21116820E-23      0.53652608E-16      0.15427247E-24
    0.069080498130         0.74629227E-08      0.13212568E-06      0.51167204E-15      0.88467428E-15      0.34260038E-23      0.56430505E-16      0.16503020E-24
    0.072220520772         0.81854373E-08      0.12642297E-06     -0.14541851E-15      0.88807561E-15     -0.10215124E-23      0.59219083E-16      0.16182262E-24
    0.075360543414         0.89454151E-08      0.12115457E-06     -0.15522367E-15      0.89133090E-15     -0.11419763E-23      0.62017882E-16      0.15823679E-24
    0.078500566057         0.97435644E-08      0.11632019E-06     -0.68958597E-16      0.89483476E-15     -0.53048873E-24      0.64827683E-16      0.15657105E-24
    0.081640588699         0.10580626E-07      0.11180982E-06     -0.39270145E-15      0.89810654E-15     -0.31543539E-23      0.67647758E-16      0.14666630E-24
    0.084780611341         0.11457373E-07      0.10764693E-06     -0.14400829E-15      0.90163925E-15     -0.12061982E-23      0.70478926E-16      0.14287881E-24
    0.087920633984         0.12374611E-07      0.10373964E-06      0.10986561E-15      0.90495739E-15      0.95839639E-24      0.73320512E-16      0.14588820E-24
    0.091060656626         0.13333179E-07      0.10011647E-06     -0.15474294E-15      0.90855480E-15     -0.14042889E-23      0.76173395E-16      0.14147870E-24
    0.094200679268         0.14333950E-07      0.96693989E-07     -0.28169229E-15      0.91191426E-15     -0.26566203E-23      0.79036827E-16      0.13313685E-24
    0.097340701910         0.15377830E-07      0.93507900E-07     -0.17346470E-15      0.91557001E-15     -0.16984563E-23      0.81911737E-16      0.12780366E-24
    0.100480724553         0.16465758E-07      0.90481779E-07     -0.28599012E-15      0.91897308E-15     -0.29046425E-23      0.84797333E-16      0.11868302E-24
    0.103620747195         0.17598710E-07      0.87655669E-07      0.12959514E-15      0.92269208E-15      0.13641606E-23      0.87694607E-16      0.12296651E-24
    0.106760769837         0.18777693E-07      0.84958260E-07      0.47035041E-16      0.92614464E-15      0.51273710E-24      0.90602723E-16      0.12457652E-24
    0.109900792479         0.20003751E-07      0.82431568E-07     -0.53886389E-16      0.92992271E-15     -0.60790033E-24      0.93522701E-16      0.12266770E-24
    0.113040815122         0.21277963E-07      0.80008480E-07      0.25244720E-16      0.93341219E-15      0.29451541E-24      0.96453636E-16      0.12359248E-24
    0.116180837764         0.22601444E-07      0.77734388E-07     -0.54472080E-17      0.93725450E-15     -0.65677757E-25      0.99396637E-16      0.12338625E-24
    0.119320860406         0.23975342E-07      0.75546268E-07     -0.11803489E-15      0.94081476E-15     -0.14699465E-23      0.10235082E-15      0.11877059E-24
    0.122460883048         0.25400844E-07      0.73487283E-07      0.11831009E-15      0.94472549E-15      0.15209510E-23      0.10531728E-15      0.12354641E-24
    0.125600905691         0.26879174E-07      0.71498592E-07      0.84267499E-16      0.94833833E-15      0.11177017E-23      0.10829508E-15      0.12705602E-24
    0.128740928333         0.28411589E-07      0.69624159E-07     -0.11228524E-17      0.95231697E-15     -0.15358338E-25      0.11128538E-15      0.12700779E-24
    0.131880950975         0.29999386E-07      0.67808361E-07      0.79166572E-16      0.95599633E-15      0.11161301E-23      0.11428723E-15      0.13051247E-24
    0.135020973618         0.31643900E-07      0.66093594E-07      0.71081077E-16      0.96004328E-15      0.10324890E-23      0.11730178E-15      0.13375451E-24
    0.138160996260         0.33346502E-07      0.64427967E-07      0.28415062E-16      0.96378891E-15      0.42506574E-24      0.12032810E-15      0.13508922E-24
    0.141301018902         0.35108601E-07      0.62852771E-07      0.41074821E-16      0.96791079E-15      0.63253795E-24      0.12336737E-15      0.13707540E-24
    0.144441041544         0.36931646E-07      0.61318860E-07      0.46147874E-16      0.97172819E-15      0.73131155E-24      0.12641861E-15      0.13937174E-24
    0.147581064187         0.38817124E-07      0.59866513E-07     -0.39141829E-16      0.97593156E-15     -0.63808203E-24      0.12948306E-15      0.13736815E-24
    0.150721086829         0.40766561E-07      0.58447900E-07     -0.49638099E-16      0.97980951E-15     -0.83212368E-24      0.13255968E-15      0.13475526E-24
    0.153861109471         0.42781523E-07      0.57106543E-07     -0.11716360E-15      0.98413783E-15     -0.20191230E-23      0.13564990E-15      0.12841517E-24
    0.157001132113         0.44863615E-07      0.55782353E-07     -0.52699880E-16      0.98794096E-15     -0.93334838E-24      0.13875206E-15      0.12548443E-24
    0.160141154756         0.47014483E-07      0.54533894E-07      0.93866568E-17      0.99228834E-15      0.17079782E-24      0.14186786E-15      0.12602074E-24
    0.163281177398         0.49235812E-07      0.53319924E-07      0.12517935E-16      0.99649973E-15      0.23394855E-24      0.14499690E-15      0.12675535E-24
    0.166421200040         0.51529331E-07      0.52156190E-07     -0.15905789E-16      0.10009085E-14     -0.30524162E-24      0.14813977E-15      0.12579688E-24
    0.169561222683         0.53896806E-07      0.51013007E-07     -0.25340931E-16      0.10049862E-14     -0.49923121E-24      0.15129545E-15      0.12422928E-24
    0.172701245325         0.56340048E-07      0.49930952E-07     -0.18128245E-16      0.10095650E-14     -0.36653899E-24      0.15446551E-15      0.12307834E-24
    0.175841267967         0.58860908E-07      0.48861615E-07     -0.29001953E-16      0.10137168E-14     -0.60169453E-24      0.15764860E-15      0.12118901E-24
    0.178981290609         0.61461278E-07      0.47850075E-07      0.10100957E-15      0.10184020E-14      0.21498054E-23      0.16084641E-15      0.12793945E-24
    0.182121313252         0.64143096E-07      0.46847346E-07      0.11500744E-15      0.10226260E-14      0.25104856E-23      0.16405748E-15      0.13582243E-24
    0.185261335894         0.66908339E-07      0.45899203E-07      0.92641001E-16      0.10274088E-14      0.20736783E-23      0.16728356E-15      0.14233382E-24
    0.188401358536         0.69759030E-07      0.44964288E-07     -0.49193284E-16      0.10318743E-14     -0.11289245E-23      0.17052367E-15      0.13878898E-24
    0.191541381178         0.72697233E-07      0.44048443E-07     -0.85896139E-16      0.10361640E-14     -0.20205592E-23      0.17377725E-15      0.13244437E-24
    0.194681403821         0.75725056E-07      0.43238349E-07     -0.15729706E-15      0.10423820E-14     -0.37920881E-23      0.17705035E-15      0.12053713E-24
    0.197821426463         0.78844653E-07      0.42311631E-07      0.16638615E-15      0.10452047E-14      0.41101603E-23      0.18033232E-15      0.13344313E-24
    0.200961449105         0.82058219E-07      0.41497129E-07      0.10503804E-15      0.10501953E-14      0.26582671E-23      0.18362996E-15      0.14179015E-24
    0.204101471747         0.85367996E-07      0.40773866E-07      0.12450306E-15      0.10569964E-14      0.32275401E-23      0.18694895E-15      0.15192470E-24
    0.207241494390         0.88776268E-07      0.39928169E-07      0.86067134E-16      0.10600888E-14      0.22850736E-23      0.19027765E-15      0.15909988E-24
    0.210381517032         0.92285368E-07      0.39200681E-07      0.60699368E-16      0.10657652E-14      0.16502590E-23      0.19362418E-15      0.16428173E-24
    0.213521539674         0.95897669E-07      0.38455191E-07      0.47166134E-16      0.10704441E-14      0.13129232E-23      0.19698540E-15      0.16840434E-24
    0.216661562317         0.99615594E-07      0.37744037E-07     -0.81030752E-16      0.10755646E-14     -0.23090748E-23      0.20036269E-15      0.16115379E-24
    0.219801584959         0.10344161E-06      0.37047147E-07     -0.57065583E-16      0.10805923E-14     -0.16644907E-23      0.20375578E-15      0.15592725E-24
    0.222941607601         0.10737822E-06      0.36372807E-07      0.21004168E-16      0.10857869E-14      0.62700824E-24      0.20716517E-15      0.15789607E-24
    0.226081630243         0.11142800E-06      0.35713425E-07     -0.45454778E-16      0.10909460E-14     -0.13885172E-23      0.21059077E-15      0.15353610E-24
    0.229221652886         0.11559354E-06      0.35074927E-07      0.51327319E-17      0.10962696E-14      0.16042394E-24      0.21403308E-15      0.15403983E-24
    0.232361675528         0.11987749E-06      0.34450060E-07      0.71384717E-17      0.11015541E-14      0.22825541E-24      0.21749199E-15      0.15475656E-24
    0.235501698170         0.12428256E-06      0.33845170E-07     -0.26174273E-16      0.11070201E-14     -0.85611764E-24      0.22096805E-15      0.15206833E-24
    0.238641720812         0.12881148E-06      0.33252512E-07      0.23700629E-16      0.11124368E-14      0.79288602E-24      0.22446113E-15      0.15455801E-24
    0.241781743455         0.13346705E-06      0.32678213E-07      0.29707649E-16      0.11180250E-14      0.10163926E-23      0.22797175E-15      0.15774951E-24
    0.244921766097         0.13825210E-06      0.32115794E-07     -0.20872722E-16      0.11235844E-14     -0.73024083E-24      0.23149983E-15      0.15545653E-24
    0.248061788739         0.14316951E-06      0.31570358E-07     -0.26175322E-16      0.11293092E-14     -0.93632233E-24      0.23504589E-15      0.15251646E-24
    0.251201811381         0.14822222E-06      0.31036463E-07      0.15589664E-16      0.11350250E-14      0.57012486E-24      0.23860990E-15      0.15430666E-24
    0.254341834024         0.15341320E-06      0.30517132E-07     -0.15698076E-16      0.11408573E-14     -0.58685936E-24      0.24219221E-15      0.15246391E-24
    0.257481856666         0.15874548E-06      0.30013182E-07     -0.21196060E-16      0.11468575E-14     -0.80993945E-24      0.24579337E-15      0.14992068E-24
    0.260621879308         0.16422213E-06      0.29506441E-07     -0.42781491E-17      0.11523392E-14     -0.16707805E-24      0.24941174E-15      0.14939606E-24
    0.263761901951         0.16984627E-06      0.28958332E-07      0.66114264E-17      0.11557400E-14      0.26386500E-24      0.25304079E-15      0.15022460E-24
    0.266901924593         0.17562106E-06      0.28489934E-07     -0.75225324E-17      0.11618739E-14     -0.30678323E-24      0.25668910E-15      0.14926129E-24
    0.270041947235         0.18154971E-06      0.28096014E-07      0.23661513E-16      0.11707164E-14      0.98593779E-24      0.26036518E-15      0.15235716E-24
    0.273181969877         0.18763548E-06      0.27665303E-07     -0.23528752E-16      0.11777173E-14     -0.10016235E-23      0.26406324E-15      0.14921204E-24
    0.276321992520         0.19388169E-06      0.27222016E-07     -0.20482069E-16      0.11838162E-14     -0.89071311E-24      0.26778045E-15      0.14641518E-24
    0.279462015162         0.20029168E-06      0.26798736E-07     -0.92663449E-17      0.11904115E-14     -0.41161505E-24      0.27151837E-15      0.14512270E-24
    0.282602037804         0.20686884E-06      0.26381062E-07     -0.16293977E-16      0.11968914E-14     -0.73924699E-24      0.27527663E-15      0.14280145E-24
    0.285742060446         0.21361663E-06      0.25976792E-07     -0.20315872E-16      0.12036191E-14     -0.94132380E-24      0.27905602E-15      0.13984567E-24
    0.288882083089         0.22053854E-06      0.25579674E-07     -0.70664152E-17      0.12103238E-14     -0.33435338E-24      0.28285647E-15      0.13879579E-24
    0.292022105731         0.22763810E-06      0.25193041E-07      0.17487847E-16      0.12171735E-14      0.84490572E-24      0.28667842E-15      0.14144881E-24
    0.295162128373         0.23491890E-06      0.24817921E-07      0.72800390E-17      0.12242367E-14      0.35911513E-24      0.29052255E-15      0.14257644E-24
    0.298302151016         0.24238456E-06      0.24445831E-07      0.75754168E-17      0.12311077E-14      0.38150284E-24      0.29438826E-15      0.14377437E-24
    0.301442173658         0.25003877E-06      0.24093835E-07      0.16602791E-17      0.12386595E-14      0.85354637E-25      0.29827768E-15      0.14404239E-24
    0.304582196300         0.25788523E-06      0.23732401E-07      0.30596391E-17      0.12453926E-14      0.16055906E-24      0.30218824E-15      0.14454655E-24
    0.307722218942         0.26592771E-06      0.23403352E-07      0.71953595E-17      0.12535033E-14      0.38538953E-24      0.30612427E-15      0.14575668E-24
    0.310862241585         0.27417002E-06      0.23066292E-07      0.11586182E-16      0.12608762E-14      0.63333725E-24      0.31008345E-15      0.14774537E-24
    0.314002264227         0.28261602E-06      0.22723636E-07      0.11368879E-16      0.12676066E-14      0.63419718E-24      0.31406376E-15      0.14973676E-24
    0.317142286869         0.29126959E-06      0.22436486E-07      0.19370084E-16      0.12771400E-14      0.11025928E-23      0.31807401E-15      0.15319893E-24
    0.320282309511         0.30013468E-06      0.22108546E-07     -0.14854566E-16      0.12840623E-14     -0.86275178E-24      0.32210599E-15      0.15048987E-24
    0.323422332154         0.30921526E-06      0.21807640E-07     -0.18105709E-16      0.12922372E-14     -0.10728750E-23      0.32616365E-15      0.14712102E-24
    0.326562354796         0.31851537E-06      0.21517626E-07     -0.59422082E-17      0.13007724E-14     -0.35921529E-24      0.33024810E-15      0.14599307E-24
    0.329702377438         0.32803906E-06      0.21224795E-07      0.30418368E-18      0.13088493E-14      0.18757807E-25      0.33435792E-15      0.14605197E-24
    0.332842400080         0.33779045E-06      0.20947823E-07     -0.71037480E-17      0.13176203E-14     -0.44682652E-24      0.33849528E-15      0.14464893E-24
    0.335982422723         0.34777368E-06      0.20672285E-07      0.58830045E-17      0.13262070E-14      0.37741747E-24      0.34265960E-15      0.14583403E-24
    0.339122445365         0.35799293E-06      0.20406906E-07     -0.10135704E-16      0.13351737E-14     -0.66315416E-24      0.34685207E-15      0.14375171E-24
    0.342262468007         0.36845245E-06      0.20147078E-07     -0.90911205E-17      0.13442403E-14     -0.60657186E-24      0.35107302E-15      0.14184706E-24
    0.345402490650         0.37915648E-06      0.19894022E-07     -0.36129260E-17      0.13535001E-14     -0.24580730E-24      0.35532304E-15      0.14107522E-24
    0.348542513292         0.39010935E-06      0.19648708E-07     -0.89404931E-17      0.13630359E-14     -0.62020426E-24      0.35960300E-15      0.13912776E-24
    0.351682535934         0.40131538E-06      0.19408246E-07     -0.97059311E-17      0.13726631E-14     -0.68645943E-24      0.36391319E-15      0.13697227E-24
    0.354822558576         0.41277896E-06      0.19176814E-07     -0.11322351E-16      0.13826920E-14     -0.81636733E-24      0.36825488E-15      0.13440885E-24
    0.357962581219         0.42450450E-06      0.18948682E-07     -0.33879707E-17      0.13927282E-14     -0.24901585E-24      0.37262808E-15      0.13362694E-24
    0.361102603861         0.43649646E-06      0.18730944E-07     -0.60774403E-17      0.14033062E-14     -0.45531660E-24      0.37703449E-15      0.13219723E-24
    0.364242626503         0.44875932E-06      0.18514945E-07     -0.22620956E-17      0.14137995E-14     -0.17273341E-24      0.38147385E-15      0.13165485E-24
    0.367382649145         0.46129760E-06      0.18310800E-07      0.86448938E-17      0.14249924E-14      0.67276733E-24      0.38594836E-15      0.13376735E-24
    0.370522671788         0.47411586E-06      0.18106845E-07     -0.21878474E-17      0.14360024E-14     -0.17351195E-24      0.39045744E-15      0.13322252E-24
    0.373662694430         0.48721866E-06      0.17916258E-07      0.60301918E-17      0.14478853E-14      0.48732419E-24      0.39500383E-15      0.13475273E-24
    0.376802717072         0.50061064E-06      0.17724197E-07     -0.53692239E-17      0.14594704E-14     -0.44212008E-24      0.39958660E-15      0.13336446E-24
    0.379942739715         0.51429644E-06      0.17547474E-07     -0.72395704E-17      0.14721519E-14     -0.60736650E-24      0.40420919E-15      0.13145732E-24
    0.383082762357         0.52828072E-06      0.17367327E-07     -0.42302455E-17      0.14843893E-14     -0.36156002E-24      0.40887021E-15      0.13032201E-24
