 
 # Omega; pulse ft; proj flux t=    1000.25000000000     
    0.000000000000         0.13861783E-10      0.00000000E+00      0.00000000E+00      0.12742451E-12     -0.71085834E-25      0.31840208E-16     -0.17762577E-28
    0.003140022642         0.28547099E-10      0.18925722E-04     -0.13691977E-16      0.13400907E-12     -0.96950019E-25      0.65325732E-16     -0.41987969E-28
    0.006280045285         0.72617464E-10      0.15936426E-04     -0.95605721E-17      0.14352309E-12     -0.86102294E-25      0.10118857E-15     -0.63502785E-28
    0.009420067927         0.14611614E-09      0.12097348E-04     -0.48977770E-17      0.14614598E-12     -0.59169202E-25      0.13770681E-15     -0.78287694E-28
    0.012560090569         0.24911526E-09      0.96047402E-05     -0.53093209E-17      0.14836987E-12     -0.82016093E-25      0.17478074E-15     -0.98781470E-28
    0.015700113211         0.38171583E-09      0.79318325E-05     -0.53826551E-17      0.15019776E-12     -0.10192635E-24      0.21231142E-15     -0.12425032E-27
    0.018840135854         0.54404780E-09      0.67505540E-05     -0.35345989E-17      0.15182559E-12     -0.79496077E-25      0.25024884E-15     -0.14411441E-27
    0.021980158496         0.73627010E-09      0.58838601E-05     -0.42946271E-17      0.15350454E-12     -0.11204290E-24      0.28860580E-15     -0.17211114E-27
    0.025120181138         0.95857070E-09      0.52164306E-05     -0.44053461E-17      0.15503414E-12     -0.13092843E-24      0.32734497E-15     -0.20482689E-27
    0.028260203780         0.12111667E-08      0.46966191E-05     -0.20798005E-17      0.15677128E-12     -0.69422915E-25      0.36651820E-15     -0.22217394E-27
    0.031400226423         0.14943044E-08      0.42655201E-05     -0.18170302E-17      0.15809962E-12     -0.67347422E-25      0.40602335E-15     -0.23900238E-27
    0.034540249065         0.18082594E-08      0.39167596E-05     -0.24796509E-17      0.15970361E-12     -0.10110633E-24      0.44592930E-15     -0.26426633E-27
    0.037680271707         0.21533368E-08      0.36179711E-05     -0.17063141E-17      0.16103325E-12     -0.75946795E-25      0.48616749E-15     -0.28324354E-27
    0.040820294349         0.25298710E-08      0.33684641E-05     -0.15032651E-17      0.16259482E-12     -0.72562187E-25      0.52679589E-15     -0.30137502E-27
    0.043960316992         0.29382263E-08      0.31502246E-05     -0.15942777E-17      0.16399042E-12     -0.82992900E-25      0.56777300E-15     -0.32211288E-27
    0.047100339634         0.33787968E-08      0.29636553E-05     -0.10276513E-17      0.16558396E-12     -0.57416452E-25      0.60914830E-15     -0.33645982E-27
    0.050240362276         0.38520063E-08      0.27971333E-05     -0.12529866E-17      0.16703210E-12     -0.74822668E-25      0.65088546E-15     -0.35515614E-27
    0.053380384919         0.43583091E-08      0.26524522E-05     -0.14576124E-17      0.16866945E-12     -0.92689579E-25      0.69303175E-15     -0.37831695E-27
    0.056520407561         0.48981894E-08      0.25210739E-05     -0.11518392E-17      0.17016428E-12     -0.77745398E-25      0.73555156E-15     -0.39774359E-27
    0.059660430203         0.54721621E-08      0.24055959E-05     -0.87408502E-18      0.17184931E-12     -0.62442285E-25      0.77849242E-15     -0.41334636E-27
    0.062800452845         0.60807727E-08      0.22992429E-05     -0.13760875E-17      0.17339373E-12     -0.10377544E-24      0.82181918E-15     -0.43927725E-27
    0.065940475488         0.67245976E-08      0.22050673E-05     -0.12018629E-17      0.17514132E-12     -0.95460058E-25      0.86558263E-15     -0.46313034E-27
    0.069080498130         0.74042442E-08      0.21174962E-05     -0.13245407E-17      0.17676670E-12     -0.11057148E-24      0.90975222E-15     -0.49075940E-27
    0.072220520772         0.81203513E-08      0.20407852E-05     -0.17233146E-17      0.17871624E-12     -0.15091461E-24      0.95440895E-15     -0.52846920E-27
    0.075360543414         0.88735891E-08      0.19617629E-05     -0.12920345E-17      0.17990961E-12     -0.11849006E-24      0.99936388E-15     -0.55807691E-27
    0.078500566057         0.96646596E-08      0.18913809E-05     -0.12446417E-17      0.18136159E-12     -0.11934677E-24      0.10446816E-14     -0.58789869E-27
    0.081640588699         0.10494297E-07      0.18281471E-05     -0.14726066E-17      0.18302520E-12     -0.14743021E-24      0.10904151E-14     -0.62473782E-27
    0.084780611341         0.11363267E-07      0.17702051E-05     -0.89669669E-18      0.18479185E-12     -0.93606235E-25      0.11365899E-14     -0.64812769E-27
    0.087920633984         0.12272369E-07      0.17135083E-05     -0.95776266E-18      0.18628435E-12     -0.10412333E-24      0.11831377E-14     -0.67414551E-27
    0.091060656626         0.13222435E-07      0.16610091E-05     -0.90516585E-18      0.18784740E-12     -0.10236732E-24      0.12300761E-14     -0.69972455E-27
    0.094200679268         0.14214328E-07      0.16126608E-05     -0.62188724E-18      0.18952559E-12     -0.73086385E-25      0.12774338E-14     -0.71798702E-27
    0.097340701910         0.15248947E-07      0.15658783E-05     -0.78161499E-18      0.19105392E-12     -0.95365395E-25      0.13251734E-14     -0.74181645E-27
    0.100480724553         0.16327224E-07      0.15260593E-05     -0.90684597E-18      0.19313170E-12     -0.11476664E-24      0.13734322E-14     -0.77049377E-27
    0.103620747195         0.17450124E-07      0.14862640E-05     -0.29306021E-18      0.19493970E-12     -0.38438036E-25      0.14221428E-14     -0.78009848E-27
    0.106760769837         0.18618647E-07      0.14518632E-05     -0.41921844E-18      0.19720352E-12     -0.56941558E-25      0.14714191E-14     -0.79432675E-27
    0.109900792479         0.19833827E-07      0.14174863E-05     -0.54589886E-18      0.19924027E-12     -0.76730923E-25      0.15212042E-14     -0.81349990E-27
    0.113040815122         0.21096733E-07      0.13870421E-05     -0.52260819E-18      0.20161467E-12     -0.75964150E-25      0.15715827E-14     -0.83248144E-27
    0.116180837764         0.22408470E-07      0.13570524E-05     -0.51472592E-18      0.20385758E-12     -0.77322568E-25      0.16225216E-14     -0.85180243E-27
    0.119320860406         0.23770176E-07      0.13292914E-05     -0.52562595E-18      0.20624753E-12     -0.81554018E-25      0.16740577E-14     -0.87218074E-27
    0.122460883048         0.25183029E-07      0.13025296E-05     -0.17104764E-18      0.20861749E-12     -0.27395562E-25      0.17261861E-14     -0.87902621E-27
    0.125600905691         0.26648238E-07      0.12767501E-05     -0.35947371E-18      0.21097655E-12     -0.59401226E-25      0.17789038E-14     -0.89386909E-27
    0.128740928333         0.28167053E-07      0.12522429E-05     -0.43356950E-18      0.21338599E-12     -0.73881557E-25      0.18322237E-14     -0.91233025E-27
    0.131880950975         0.29740759E-07      0.12284278E-05     -0.48565980E-18      0.21576060E-12     -0.85301107E-25      0.18861369E-14     -0.93364487E-27
    0.135020973618         0.31370676E-07      0.12058201E-05     -0.44606973E-18      0.21820148E-12     -0.80719403E-25      0.19406600E-14     -0.95381464E-27
    0.138160996260         0.33058166E-07      0.11839619E-05     -0.77468415E-18      0.22063965E-12     -0.14436786E-24      0.19957923E-14     -0.98988857E-27
    0.141301018902         0.34804624E-07      0.11631333E-05     -0.27338418E-18      0.22313808E-12     -0.52446628E-25      0.20515490E-14     -0.10029937E-26
    0.144441041544         0.36611487E-07      0.11430467E-05     -0.45366934E-18      0.22565411E-12     -0.89560956E-25      0.21079343E-14     -0.10253727E-26
    0.147581064187         0.38480227E-07      0.11238304E-05     -0.44642821E-18      0.22822348E-12     -0.90659051E-25      0.21649617E-14     -0.10480262E-26
    0.150721086829         0.40412359E-07      0.11053065E-05     -0.45152039E-18      0.23082107E-12     -0.94290966E-25      0.22226381E-14     -0.10715871E-26
    0.153861109471         0.42409432E-07      0.10875203E-05     -0.55100428E-18      0.23346593E-12     -0.11828812E-24      0.22809754E-14     -0.11011444E-26
    0.157001132113         0.44473040E-07      0.10703947E-05     -0.49186513E-18      0.23615139E-12     -0.10851571E-24      0.23399837E-14     -0.11282597E-26
    0.160141154756         0.46604811E-07      0.10538790E-05     -0.19874061E-18      0.23887521E-12     -0.45047113E-25      0.23996727E-14     -0.11395159E-26
    0.163281177398         0.48806419E-07      0.10380304E-05     -0.32375054E-18      0.24165925E-12     -0.75370926E-25      0.24600573E-14     -0.11583492E-26
    0.166421200040         0.51079573E-07      0.10226594E-05     -0.42758302E-18      0.24446808E-12     -0.10221429E-24      0.25211438E-14     -0.11838900E-26
    0.169561222683         0.53426027E-07      0.10079851E-05     -0.13812322E-18      0.24736202E-12     -0.33895775E-25      0.25829534E-14     -0.11923597E-26
    0.172701245325         0.55847574E-07      0.99365643E-06     -0.27889691E-18      0.25026357E-12     -0.70243330E-25      0.26454880E-14     -0.12099118E-26
    0.175841267967         0.58346049E-07      0.98006246E-06     -0.32063576E-18      0.25327769E-12     -0.82861949E-25      0.27087758E-14     -0.12306169E-26
    0.178981290609         0.60923329E-07      0.96669928E-06     -0.23917727E-18      0.25628307E-12     -0.63408640E-25      0.27728145E-14     -0.12464611E-26
    0.182121313252         0.63581331E-07      0.95409177E-06     -0.27766893E-18      0.25942483E-12     -0.75500300E-25      0.28376383E-14     -0.12653268E-26
    0.185261335894         0.66322018E-07      0.94162316E-06     -0.33814347E-18      0.26254431E-12     -0.94281500E-25      0.29032416E-14     -0.12888854E-26
    0.188401358536         0.69147392E-07      0.92992833E-06     -0.29212693E-18      0.26582376E-12     -0.83505660E-25      0.29696643E-14     -0.13097514E-26
    0.191541381178         0.72059501E-07      0.91828852E-06     -0.31271301E-18      0.26906693E-12     -0.91627772E-25      0.30368975E-14     -0.13326469E-26
    0.194681403821         0.75060434E-07      0.90743853E-06     -0.39166579E-18      0.27249363E-12     -0.11761285E-24      0.31049868E-14     -0.13620354E-26
    0.197821426463         0.78152324E-07      0.89657000E-06     -0.16497357E-18      0.27587053E-12     -0.50761622E-25      0.31739200E-14     -0.13747194E-26
    0.200961449105         0.81337348E-07      0.88650012E-06     -0.22619417E-18      0.27945288E-12     -0.71303560E-25      0.32437483E-14     -0.13925364E-26
    0.204101471747         0.84617728E-07      0.87635038E-06     -0.26361506E-18      0.28297335E-12     -0.85121247E-25      0.33144563E-14     -0.14138061E-26
    0.207241494390         0.87995729E-07      0.86700565E-06     -0.12961363E-18      0.28672089E-12     -0.42863546E-25      0.33861007E-14     -0.14245166E-26
    0.210381517032         0.91473660E-07      0.85752876E-06     -0.13043237E-18      0.29039538E-12     -0.44169900E-25      0.34586632E-14     -0.14355536E-26
    0.213521539674         0.95053876E-07      0.84886147E-06     -0.12653758E-18      0.29431846E-12     -0.43873288E-25      0.35322061E-14     -0.14465164E-26
    0.216661562317         0.98738776E-07      0.84001903E-06     -0.22712185E-18      0.29815873E-12     -0.80615274E-25      0.36067085E-14     -0.14666602E-26
    0.219801584959         0.10253081E-06      0.83198630E-06     -0.20790848E-18      0.30226806E-12     -0.75535009E-25      0.36822378E-14     -0.14855345E-26
    0.222941607601         0.10643245E-06      0.82374346E-06     -0.25413458E-18      0.30628623E-12     -0.94492915E-25      0.37587711E-14     -0.15091459E-26
    0.226081630243         0.11044626E-06      0.81630757E-06     -0.24085113E-18      0.31059330E-12     -0.91640394E-25      0.38363806E-14     -0.15320446E-26
    0.229221652886         0.11457479E-06      0.80863421E-06     -0.18182033E-18      0.31480244E-12     -0.70782911E-25      0.39150419E-14     -0.15497314E-26
    0.232361675528         0.11882069E-06      0.80176086E-06     -0.25343547E-18      0.31931916E-12     -0.10093633E-24      0.39948318E-14     -0.15749529E-26
    0.235501698170         0.12318663E-06      0.79462998E-06     -0.11453753E-18      0.32373303E-12     -0.46662700E-25      0.40757246E-14     -0.15866128E-26
    0.238641720812         0.12767532E-06      0.78829166E-06     -0.16709787E-18      0.32847328E-12     -0.69628019E-25      0.41578018E-14     -0.16040111E-26
    0.241781743455         0.13228953E-06      0.78167872E-06     -0.21882292E-18      0.33310626E-12     -0.93249670E-25      0.42410368E-14     -0.16273118E-26
    0.244921766097         0.13703207E-06      0.77585087E-06     -0.31426990E-18      0.33808478E-12     -0.13694625E-24      0.43255158E-14     -0.16615313E-26
    0.248061788739         0.14190580E-06      0.76973425E-06     -0.28032727E-18      0.34295223E-12     -0.12489877E-24      0.44112110E-14     -0.16927404E-26
    0.251201811381         0.14691362E-06      0.76439770E-06     -0.34783726E-18      0.34818593E-12     -0.15844114E-24      0.44982139E-14     -0.17323309E-26
    0.254341834024         0.15205849E-06      0.75875897E-06     -0.26030465E-18      0.35330457E-12     -0.12120690E-24      0.45864959E-14     -0.17626174E-26
    0.257481856666         0.15734340E-06      0.75389733E-06     -0.16462004E-18      0.35881174E-12     -0.78349665E-25      0.46761541E-14     -0.17821951E-26
    0.260621879308         0.16277140E-06      0.74872179E-06     -0.23442546E-18      0.36420024E-12     -0.11403142E-24      0.47671586E-14     -0.18106887E-26
    0.263761901951         0.16834557E-06      0.74432329E-06     -0.39838336E-19      0.37000175E-12     -0.19803564E-25      0.48596128E-14     -0.18156371E-26
    0.266901924593         0.17406906E-06      0.73959735E-06     -0.64792139E-19      0.37567973E-12     -0.32911277E-25      0.49534858E-14     -0.18238608E-26
    0.270041947235         0.17994505E-06      0.73565234E-06     -0.12187846E-18      0.38179815E-12     -0.63254023E-25      0.50488877E-14     -0.18396664E-26
    0.273181969877         0.18597676E-06      0.73136873E-06     -0.20518391E-18      0.38778907E-12     -0.10879339E-24      0.51457865E-14     -0.18668512E-26
    0.276321992520         0.19216747E-06      0.72786807E-06     -0.16217410E-18      0.39424813E-12     -0.87841240E-25      0.52442992E-14     -0.18888005E-26
    0.279462015162         0.19852052E-06      0.72402229E-06     -0.23605907E-18      0.40057800E-12     -0.13060381E-24      0.53443937E-14     -0.19214351E-26
    0.282602037804         0.20503926E-06      0.72090155E-06     -0.26939496E-18      0.40737111E-12     -0.15223122E-24      0.54461856E-14     -0.19594739E-26
    0.285742060446         0.21172710E-06      0.71739507E-06     -0.27294816E-18      0.41401227E-12     -0.15751975E-24      0.55496369E-14     -0.19988342E-26
    0.288882083089         0.21858752E-06      0.71484098E-06     -0.36694125E-18      0.42127602E-12     -0.21624886E-24      0.56549033E-14     -0.20528694E-26
    0.292022105731         0.22562402E-06      0.71180652E-06     -0.11114558E-18      0.42833553E-12     -0.66882783E-25      0.57619337E-14     -0.20695817E-26
    0.295162128373         0.23284014E-06      0.70970580E-06     -0.13051172E-18      0.43604179E-12     -0.80186133E-25      0.58708896E-14     -0.20896182E-26
    0.298302151016         0.24023948E-06      0.70711074E-06     -0.18721885E-18      0.44353507E-12     -0.11743299E-24      0.59817180E-14     -0.21189618E-26
    0.301442173658         0.24782569E-06      0.70546184E-06     -0.10344735E-18      0.45171903E-12     -0.66239072E-25      0.60945913E-14     -0.21355133E-26
    0.304582196300         0.25560245E-06      0.70328122E-06     -0.12979001E-18      0.45966566E-12     -0.84830946E-25      0.62094503E-14     -0.21567104E-26
    0.307722218942         0.26357350E-06      0.70212907E-06     -0.18326075E-18      0.46839513E-12     -0.12225451E-24      0.63264906E-14     -0.21872588E-26
    0.310862241585         0.27174260E-06      0.70039079E-06     -0.84128399E-19      0.47685101E-12     -0.57277613E-25      0.64456437E-14     -0.22015710E-26
    0.314002264227         0.28011357E-06      0.69971879E-06     -0.84945625E-19      0.48615800E-12     -0.59019417E-25      0.65671225E-14     -0.22163185E-26
    0.317142286869         0.28869027E-06      0.69839664E-06     -0.12613329E-18      0.49514532E-12     -0.89425272E-25      0.66908470E-14     -0.22386637E-26
    0.320282309511         0.29747662E-06      0.69824706E-06     -0.10943445E-18      0.50510485E-12     -0.79163770E-25      0.68170601E-14     -0.22584447E-26
    0.323422332154         0.30647655E-06      0.69734941E-06     -0.12698052E-18      0.51467162E-12     -0.93716676E-25      0.69456637E-14     -0.22818622E-26
    0.326562354796         0.31569405E-06      0.69777754E-06     -0.20265531E-18      0.52537548E-12     -0.15258463E-24      0.70769419E-14     -0.23199893E-26
    0.329702377438         0.32513315E-06      0.69733498E-06     -0.11076144E-18      0.53559087E-12     -0.85070760E-25      0.72107727E-14     -0.23412463E-26
    0.332842400080         0.33479793E-06      0.69837152E-06     -0.99050717E-19      0.54712073E-12     -0.77598670E-25      0.73474845E-14     -0.23606363E-26
    0.335982422723         0.34469248E-06      0.69840363E-06     -0.68192195E-19      0.55805150E-12     -0.54488200E-25      0.74869277E-14     -0.23742515E-26
    0.339122445365         0.35482098E-06      0.70009501E-06     -0.13606828E-18      0.57050870E-12     -0.11088229E-24      0.76294836E-14     -0.24019583E-26
    0.342262468007         0.36518760E-06      0.70060931E-06     -0.13226032E-18      0.58221740E-12     -0.10991041E-24      0.77749652E-14     -0.24294221E-26
    0.345402490650         0.37579657E-06      0.70304567E-06     -0.15825939E-18      0.59574914E-12     -0.13410635E-24      0.79238280E-14     -0.24629320E-26
    0.348542513292         0.38665215E-06      0.70405300E-06     -0.13930588E-18      0.60830666E-12     -0.12036124E-24      0.80758287E-14     -0.24930072E-26
    0.351682535934         0.39775867E-06      0.70730335E-06     -0.13977397E-18      0.62305603E-12     -0.12312541E-24      0.82315149E-14     -0.25237732E-26
    0.354822558576         0.40912044E-06      0.70885044E-06     -0.14195454E-18      0.63657138E-12     -0.12747992E-24      0.83905782E-14     -0.25556273E-26
    0.357962581219         0.42074186E-06      0.71300895E-06     -0.11738793E-18      0.65271803E-12     -0.10746179E-24      0.85536761E-14     -0.25824793E-26
    0.361102603861         0.43262732E-06      0.71513234E-06     -0.17373401E-18      0.66730178E-12     -0.16211407E-24      0.87204182E-14     -0.26229875E-26
    0.364242626503         0.44478129E-06      0.72032614E-06     -0.14765603E-18      0.68507395E-12     -0.14042986E-24      0.88916011E-14     -0.26580775E-26
    0.367382649145         0.45720823E-06      0.72306679E-06     -0.67921937E-19      0.70085206E-12     -0.65835176E-25      0.90667266E-14     -0.26745280E-26
    0.370522671788         0.46991265E-06      0.72945715E-06     -0.11050482E-18      0.72053433E-12     -0.10915311E-24      0.92467701E-14     -0.27018027E-26
    0.373662694430         0.48289911E-06      0.73286650E-06     -0.87477766E-19      0.73765633E-12     -0.88049499E-25      0.94310920E-14     -0.27238040E-26
    0.376802717072         0.49617218E-06      0.74065188E-06     -0.12617058E-18      0.75960016E-12     -0.12939843E-24      0.96208972E-14     -0.27561375E-26
    0.379942739715         0.50973645E-06      0.74479681E-06     -0.10245628E-18      0.77824778E-12     -0.10705789E-24      0.98153619E-14     -0.27828886E-26
    0.383082762357         0.52359657E-06      0.75423956E-06     -0.90466592E-19      0.80290846E-12     -0.96304139E-25      0.10015989E-13     -0.28069526E-26
