 
 # Omega; pulse ft; proj flux t=    1000.25000000000     
    0.000000000000         0.13861783E-10      0.00000000E+00      0.00000000E+00      0.12019247E-07     -0.67762636E-20      0.30033100E-11     -0.16932193E-23
    0.003140022642         0.28547099E-10      0.16999047E+01     -0.11039813E-11      0.12036669E-07     -0.78170604E-20      0.60109733E-11     -0.36465077E-23
    0.006280045285         0.72617464E-10      0.13455544E+01     -0.13015415E-11      0.12118032E-07     -0.11721653E-19      0.90389673E-11     -0.65754566E-23
    0.009420067927         0.14611614E-09      0.10119584E+01     -0.55664984E-12      0.12225296E-07     -0.67247910E-20      0.12093764E-10     -0.82558142E-23
    0.012560090569         0.24911526E-09      0.79811995E+00     -0.47553390E-12      0.12329012E-07     -0.73458421E-20      0.15174476E-10     -0.10091357E-22
    0.015700113211         0.38171583E-09      0.65674806E+00     -0.64941369E-12      0.12436229E-07     -0.12297345E-19      0.18281980E-10     -0.13164157E-22
    0.018840135854         0.54404780E-09      0.55773016E+00     -0.37541490E-12      0.12543817E-07     -0.84433944E-20      0.21416367E-10     -0.15273951E-22
    0.021980158496         0.73627010E-09      0.48500492E+00     -0.39139175E-12      0.12653336E-07     -0.10211054E-19      0.24578120E-10     -0.17825438E-22
    0.025120181138         0.95857070E-09      0.42946916E+00     -0.46580286E-12      0.12763974E-07     -0.13843824E-19      0.27767519E-10     -0.21284665E-22
    0.028260203780         0.12111667E-08      0.38574280E+00     -0.15375771E-12      0.12875942E-07     -0.51323714E-20      0.30984896E-10     -0.22567116E-22
    0.031400226423         0.14943044E-08      0.35048102E+00     -0.19342816E-12      0.12990425E-07     -0.71693295E-20      0.34230879E-10     -0.24358553E-22
    0.034540249065         0.18082594E-08      0.32142611E+00     -0.26285736E-12      0.13105964E-07     -0.10717857E-19      0.37505732E-10     -0.27036678E-22
    0.037680271707         0.21533368E-08      0.29710289E+00     -0.16198794E-12      0.13223833E-07     -0.72099647E-20      0.40810038E-10     -0.28838268E-22
    0.040820294349         0.25298710E-08      0.27642330E+00     -0.17000507E-12      0.13342875E-07     -0.82060970E-20      0.44144090E-10     -0.30888767E-22
    0.043960316992         0.29382263E-08      0.25864370E+00     -0.21947838E-12      0.13464148E-07     -0.11425329E-19      0.47508445E-10     -0.33743672E-22
    0.047100339634         0.33787968E-08      0.24317752E+00     -0.10886798E-12      0.13586701E-07     -0.60826209E-20      0.50903422E-10     -0.35263567E-22
    0.050240362276         0.38520063E-08      0.22961548E+00     -0.14450010E-12      0.13711594E-07     -0.86288897E-20      0.54329608E-10     -0.37419712E-22
    0.053380384919         0.43583091E-08      0.21761008E+00     -0.15023704E-12      0.13837826E-07     -0.95535742E-20      0.57787335E-10     -0.39806912E-22
    0.056520407561         0.48981894E-08      0.20692182E+00     -0.87992518E-13      0.13966549E-07     -0.59392085E-20      0.61277228E-10     -0.41290972E-22
    0.059660430203         0.54721621E-08      0.19732908E+00     -0.86045102E-13      0.14096659E-07     -0.61468308E-20      0.64799631E-10     -0.42826911E-22
    0.062800452845         0.60807727E-08      0.18868499E+00     -0.14100155E-12      0.14229377E-07     -0.10633407E-19      0.68355198E-10     -0.45483935E-22
    0.065940475488         0.67245976E-08      0.18084009E+00     -0.11542782E-12      0.14363540E-07     -0.91680563E-20      0.71944288E-10     -0.47774803E-22
    0.069080498130         0.74042442E-08      0.17370178E+00     -0.13669360E-12      0.14500470E-07     -0.11411060E-19      0.75567594E-10     -0.50626143E-22
    0.072220520772         0.81203513E-08      0.16716389E+00     -0.14260510E-12      0.14638926E-07     -0.12488256E-19      0.79225497E-10     -0.53746646E-22
    0.075360543414         0.88735891E-08      0.16116493E+00     -0.87714413E-13      0.14780134E-07     -0.80441247E-20      0.82918683E-10     -0.55756672E-22
    0.078500566057         0.96646596E-08      0.15562742E+00     -0.12093582E-12      0.14922873E-07     -0.11596348E-19      0.86647537E-10     -0.58654311E-22
    0.081640588699         0.10494297E-07      0.15051693E+00     -0.12848485E-12      0.15069023E-07     -0.12863279E-19      0.90412910E-10     -0.61868523E-22
    0.084780611341         0.11363267E-07      0.14576845E+00     -0.72934908E-13      0.15216779E-07     -0.76136806E-20      0.94215204E-10     -0.63770992E-22
    0.087920633984         0.12272369E-07      0.14135792E+00     -0.77966303E-13      0.15367750E-07     -0.84761197E-20      0.98055221E-10     -0.65888963E-22
    0.091060656626         0.13222435E-07      0.13723929E+00     -0.11224105E-12      0.15520713E-07     -0.12693603E-19      0.10193346E-09     -0.69060778E-22
    0.094200679268         0.14214328E-07      0.13338908E+00     -0.53828117E-13      0.15676355E-07     -0.63260705E-20      0.10585059E-09     -0.70641505E-22
    0.097340701910         0.15248947E-07      0.12977941E+00     -0.73455838E-13      0.15834477E-07     -0.89623985E-20      0.10980723E-09     -0.72880985E-22
    0.100480724553         0.16327224E-07      0.12638506E+00     -0.84148926E-13      0.15994766E-07     -0.10649537E-19      0.11380392E-09     -0.75542039E-22
    0.103620747195         0.17450124E-07      0.12319090E+00     -0.29734091E-13      0.16157827E-07     -0.38999498E-20      0.11784136E-09     -0.76516539E-22
    0.106760769837         0.18618647E-07      0.12017634E+00     -0.38860523E-13      0.16323299E-07     -0.52783429E-20      0.12192015E-09     -0.77835465E-22
    0.109900792479         0.19833827E-07      0.11732834E+00     -0.60120557E-13      0.16491539E-07     -0.84504771E-20      0.12604097E-09     -0.79947029E-22
    0.113040815122         0.21096733E-07      0.11463421E+00     -0.49529257E-13      0.16662752E-07     -0.71993665E-20      0.13020458E-09     -0.81745971E-22
    0.116180837764         0.22408470E-07      0.11207908E+00     -0.47956875E-13      0.16836616E-07     -0.72041227E-20      0.13441163E-09     -0.83546102E-22
    0.119320860406         0.23770176E-07      0.10965723E+00     -0.52071979E-13      0.17013977E-07     -0.80792798E-20      0.13866300E-09     -0.85564912E-22
    0.122460883048         0.25183029E-07      0.10735227E+00     -0.30584800E-13      0.17193897E-07     -0.48985636E-20      0.14295932E-09     -0.86788941E-22
    0.125600905691         0.26648238E-07      0.10516361E+00     -0.37151675E-13      0.17377758E-07     -0.61391277E-20      0.14730159E-09     -0.88322956E-22
    0.128740928333         0.28167053E-07      0.10307433E+00     -0.49447919E-13      0.17564178E-07     -0.84260753E-20      0.15169044E-09     -0.90428422E-22
    0.131880950975         0.29740759E-07      0.10108633E+00     -0.49817439E-13      0.17754765E-07     -0.87499165E-20      0.15612692E-09     -0.92614808E-22
    0.135020973618         0.31370676E-07      0.99183879E-01     -0.56975915E-13      0.17948009E-07     -0.10310186E-19      0.16061167E-09     -0.95191066E-22
    0.138160996260         0.33058166E-07      0.97370046E-01     -0.62683136E-13      0.18145595E-07     -0.11681445E-19      0.16514581E-09     -0.98109968E-22
    0.141301018902         0.34804624E-07      0.95630482E-01     -0.36678119E-13      0.18345964E-07     -0.70364119E-20      0.16973001E-09     -0.99868192E-22
    0.144441041544         0.36611487E-07      0.93969272E-01     -0.45407765E-13      0.18550907E-07     -0.89641563E-20      0.17436541E-09     -0.10210811E-21
    0.147581064187         0.38480227E-07      0.92372872E-01     -0.41718202E-13      0.18758754E-07     -0.84719838E-20      0.17905276E-09     -0.10422505E-21
    0.150721086829         0.40412359E-07      0.90846417E-01     -0.40551988E-13      0.18971450E-07     -0.84684683E-20      0.18379325E-09     -0.10634111E-21
    0.153861109471         0.42409432E-07      0.89376781E-01     -0.48989720E-13      0.19187167E-07     -0.10516981E-19      0.18858765E-09     -0.10896904E-21
    0.157001132113         0.44473040E-07      0.87970064E-01     -0.50625341E-13      0.19408031E-07     -0.11169006E-19      0.19343723E-09     -0.11175990E-21
    0.160141154756         0.46604811E-07      0.86613407E-01     -0.28587479E-13      0.19632041E-07     -0.64797193E-20      0.19834279E-09     -0.11337902E-21
    0.163281177398         0.48806419E-07      0.85313779E-01     -0.34317582E-13      0.19861523E-07     -0.79893239E-20      0.20330569E-09     -0.11537535E-21
    0.166421200040         0.51079573E-07      0.84058358E-01     -0.39966046E-13      0.20094262E-07     -0.95539361E-20      0.20832674E-09     -0.11776264E-21
    0.169561222683         0.53426027E-07      0.82855119E-01     -0.27349946E-13      0.20332849E-07     -0.67117435E-20      0.21340741E-09     -0.11943974E-21
    0.172701245325         0.55847574E-07      0.81690931E-01     -0.29195525E-13      0.20574781E-07     -0.73532221E-20      0.21854854E-09     -0.12127712E-21
    0.175841267967         0.58346049E-07      0.80574923E-01     -0.30553139E-13      0.20822990E-07     -0.78958525E-20      0.22375168E-09     -0.12325010E-21
    0.178981290609         0.60923329E-07      0.79493520E-01     -0.31499209E-13      0.21074644E-07     -0.83508019E-20      0.22901771E-09     -0.12533676E-21
    0.182121313252         0.63581331E-07      0.78456814E-01     -0.26445309E-13      0.21333006E-07     -0.71906811E-20      0.23434830E-09     -0.12713353E-21
    0.185261335894         0.66322018E-07      0.77450912E-01     -0.34898875E-13      0.21594941E-07     -0.97305391E-20      0.23974433E-09     -0.12956495E-21
    0.188401358536         0.69147392E-07      0.76486851E-01     -0.33734951E-13      0.21864074E-07     -0.96432716E-20      0.24520762E-09     -0.13197456E-21
    0.191541381178         0.72059501E-07      0.75550089E-01     -0.31491166E-13      0.22136867E-07     -0.92271997E-20      0.25073907E-09     -0.13428021E-21
    0.194681403821         0.75060434E-07      0.74652943E-01     -0.31065192E-13      0.22417443E-07     -0.93285294E-20      0.25634063E-09     -0.13661117E-21
    0.197821426463         0.78152324E-07      0.73779830E-01     -0.25206933E-13      0.22701720E-07     -0.77560590E-20      0.26201323E-09     -0.13854922E-21
    0.200961449105         0.81337348E-07      0.72944620E-01     -0.18247578E-13      0.22994452E-07     -0.57522140E-20      0.26775897E-09     -0.13998656E-21
    0.204101471747         0.84617728E-07      0.72130423E-01     -0.29544380E-13      0.23290898E-07     -0.95398740E-20      0.27357878E-09     -0.14237033E-21
    0.207241494390         0.87995729E-07      0.71352853E-01     -0.21571070E-13      0.23596564E-07     -0.71336056E-20      0.27947497E-09     -0.14415284E-21
    0.210381517032         0.91473660E-07      0.70593453E-01     -0.15251840E-13      0.23905919E-07     -0.51649157E-20      0.28544847E-09     -0.14544343E-21
    0.213521539674         0.95053876E-07      0.69869816E-01     -0.14363234E-13      0.24225362E-07     -0.49800409E-20      0.29150178E-09     -0.14668781E-21
    0.216661562317         0.98738776E-07      0.69161633E-01     -0.25412518E-13      0.24548426E-07     -0.90199910E-20      0.29763582E-09     -0.14894168E-21
    0.219801584959         0.10253081E-06      0.68488729E-01     -0.24069157E-13      0.24882568E-07     -0.87445398E-20      0.30385335E-09     -0.15112673E-21
    0.222941607601         0.10643245E-06      0.67828648E-01     -0.25592560E-13      0.25220207E-07     -0.95158858E-20      0.31015525E-09     -0.15350451E-21
    0.226081630243         0.11044626E-06      0.67203734E-01     -0.25014191E-13      0.25570055E-07     -0.95175401E-20      0.31654457E-09     -0.15588271E-21
    0.229221652886         0.11457479E-06      0.66589050E-01     -0.21548476E-13      0.25923211E-07     -0.83888522E-20      0.32302214E-09     -0.15797887E-21
    0.232361675528         0.11882069E-06      0.66009771E-01     -0.27923180E-13      0.26289865E-07     -0.11121030E-19      0.32959132E-09     -0.16075774E-21
    0.235501698170         0.12318663E-06      0.65438135E-01     -0.18989171E-13      0.26659560E-07     -0.77362067E-20      0.33625288E-09     -0.16269082E-21
    0.238641720812         0.12767532E-06      0.64902513E-01     -0.15740033E-13      0.27044231E-07     -0.65587151E-20      0.34301056E-09     -0.16432968E-21
    0.241781743455         0.13228953E-06      0.64371891E-01     -0.20580415E-13      0.27431577E-07     -0.87701824E-20      0.34986502E-09     -0.16652113E-21
    0.244921766097         0.13703207E-06      0.63878256E-01     -0.27808386E-13      0.27835590E-07     -0.12117782E-19      0.35682044E-09     -0.16954906E-21
    0.248061788739         0.14190580E-06      0.63386899E-01     -0.30117015E-13      0.28241796E-07     -0.13418524E-19      0.36387736E-09     -0.17290202E-21
    0.251201811381         0.14691362E-06      0.62933910E-01     -0.33172311E-13      0.28666625E-07     -0.15110108E-19      0.37104044E-09     -0.17667766E-21
    0.254341834024         0.15205849E-06      0.62480324E-01     -0.23328446E-13      0.29093012E-07     -0.10862536E-19      0.37831006E-09     -0.17939193E-21
    0.257481856666         0.15734340E-06      0.62066905E-01     -0.21735234E-13      0.29540275E-07     -0.10344721E-19      0.38569143E-09     -0.18197682E-21
    0.260621879308         0.16277140E-06      0.61649848E-01     -0.23093000E-13      0.29988295E-07     -0.11233113E-19      0.39318476E-09     -0.18478370E-21
    0.263761901951         0.16834557E-06      0.61275211E-01     -0.58224011E-14      0.30459796E-07     -0.28943050E-20      0.40079591E-09     -0.18550691E-21
    0.266901924593         0.17406906E-06      0.60893641E-01     -0.98587158E-14      0.30931028E-07     -0.50077514E-20      0.40852480E-09     -0.18675822E-21
    0.270041947235         0.17994505E-06      0.60557241E-01     -0.74383558E-14      0.31428763E-07     -0.38604519E-20      0.41637806E-09     -0.18772285E-21
    0.273181969877         0.18597676E-06      0.60210343E-01     -0.17104493E-13      0.31924954E-07     -0.90692082E-20      0.42435531E-09     -0.18998902E-21
    0.276321992520         0.19216747E-06      0.59911930E-01     -0.17175922E-13      0.32451164E-07     -0.93033003E-20      0.43246405E-09     -0.19231369E-21
    0.279462015162         0.19852052E-06      0.59599067E-01     -0.22925597E-13      0.32974226E-07     -0.12683988E-19      0.44070349E-09     -0.19548310E-21
    0.282602037804         0.20503926E-06      0.59338651E-01     -0.21548815E-13      0.33531420E-07     -0.12176926E-19      0.44908215E-09     -0.19852581E-21
    0.285742060446         0.21172710E-06      0.59059379E-01     -0.27135762E-13      0.34083462E-07     -0.15660183E-19      0.45759876E-09     -0.20243890E-21
    0.288882083089         0.21858752E-06      0.58837264E-01     -0.25885173E-13      0.34674465E-07     -0.15254865E-19      0.46626304E-09     -0.20625071E-21
    0.292022105731         0.22562402E-06      0.58591346E-01     -0.10460751E-13      0.35257833E-07     -0.62948445E-20      0.47507310E-09     -0.20782363E-21
    0.295162128373         0.23284014E-06      0.58408131E-01     -0.12782030E-13      0.35885835E-07     -0.78532527E-20      0.48404007E-09     -0.20978597E-21
    0.298302151016         0.24023948E-06      0.58195505E-01     -0.15087726E-13      0.36503120E-07     -0.94637734E-20      0.49316129E-09     -0.21215073E-21
    0.301442173658         0.24782569E-06      0.58052119E-01     -0.13640437E-13      0.37171744E-07     -0.87342001E-20      0.50244958E-09     -0.21433318E-21
    0.304582196300         0.25560245E-06      0.57872918E-01     -0.14157968E-13      0.37825827E-07     -0.92536695E-20      0.51190131E-09     -0.21664545E-21
    0.307722218942         0.26357350E-06      0.57770674E-01     -0.15232812E-13      0.38539214E-07     -0.10161914E-19      0.52153130E-09     -0.21918465E-21
    0.310862241585         0.27174260E-06      0.57625237E-01     -0.98666012E-14      0.39233315E-07     -0.67175338E-20      0.53133473E-09     -0.22086320E-21
    0.314002264227         0.28011357E-06      0.57565851E-01     -0.96720016E-14      0.39996209E-07     -0.67200153E-20      0.54132878E-09     -0.22254236E-21
    0.317142286869         0.28869027E-06      0.57454727E-01     -0.12403491E-13      0.40733929E-07     -0.87937571E-20      0.55150718E-09     -0.22473970E-21
    0.320282309511         0.29747662E-06      0.57440402E-01     -0.12590839E-13      0.41551805E-07     -0.91080857E-20      0.56188994E-09     -0.22701559E-21
    0.323422332154         0.30647655E-06      0.57364362E-01     -0.13089596E-13      0.42337182E-07     -0.96606424E-20      0.57246894E-09     -0.22942954E-21
    0.326562354796         0.31569405E-06      0.57397900E-01     -0.17843787E-13      0.43216423E-07     -0.13435068E-19      0.58326765E-09     -0.23278663E-21
    0.329702377438         0.32513315E-06      0.57357981E-01     -0.85964741E-14      0.44054022E-07     -0.66025556E-20      0.59427565E-09     -0.23443644E-21
    0.332842400080         0.33479793E-06      0.57442835E-01     -0.11357817E-13      0.45002073E-07     -0.88979818E-20      0.60552055E-09     -0.23665983E-21
    0.335982422723         0.34469248E-06      0.57440346E-01     -0.96772343E-14      0.45897058E-07     -0.77324844E-20      0.61698908E-09     -0.23859198E-21
    0.339122445365         0.35482098E-06      0.57580823E-01     -0.14584494E-13      0.46922718E-07     -0.11884931E-19      0.62871389E-09     -0.24156173E-21
    0.342262468007         0.36518760E-06      0.57617364E-01     -0.13738303E-13      0.47880939E-07     -0.11416747E-19      0.64067815E-09     -0.24441449E-21
    0.345402490650         0.37579657E-06      0.57818784E-01     -0.16694267E-13      0.48994670E-07     -0.14146443E-19      0.65292069E-09     -0.24794933E-21
    0.348542513292         0.38665215E-06      0.57896350E-01     -0.11513420E-13      0.50022846E-07     -0.99476740E-20      0.66542015E-09     -0.25043501E-21
    0.351682535934         0.39775867E-06      0.58165267E-01     -0.13446894E-13      0.51237168E-07     -0.11845226E-19      0.67822304E-09     -0.25339484E-21
    0.354822558576         0.40912044E-06      0.58286287E-01     -0.14710003E-13      0.52343033E-07     -0.13210074E-19      0.69130226E-09     -0.25669570E-21
    0.357962581219         0.42074186E-06      0.58630888E-01     -0.11860476E-13      0.53673152E-07     -0.10857573E-19      0.70471385E-09     -0.25940874E-21
    0.361102603861         0.43262732E-06      0.58798287E-01     -0.14481389E-13      0.54865651E-07     -0.13512822E-19      0.71842340E-09     -0.26278526E-21
    0.364242626503         0.44478129E-06      0.59228822E-01     -0.14923089E-13      0.56330210E-07     -0.14192765E-19      0.73249892E-09     -0.26633168E-21
    0.367382649145         0.45720823E-06      0.59446138E-01     -0.92935212E-14      0.57619778E-07     -0.90079969E-20      0.74689666E-09     -0.26858255E-21
    0.370522671788         0.46991265E-06      0.59975536E-01     -0.93741254E-14      0.59241907E-07     -0.92594598E-20      0.76169974E-09     -0.27089626E-21
    0.373662694430         0.48289911E-06      0.60247064E-01     -0.94508089E-14      0.60640824E-07     -0.95125770E-20      0.77685237E-09     -0.27327321E-21
    0.376802717072         0.49617218E-06      0.60891872E-01     -0.12599870E-13      0.62449685E-07     -0.12922216E-19      0.79245699E-09     -0.27650215E-21
    0.379942739715         0.50973645E-06      0.61222871E-01     -0.11684406E-13      0.63972566E-07     -0.12209186E-19      0.80844214E-09     -0.27955292E-21
    0.383082762357         0.52359657E-06      0.62004449E-01     -0.10048687E-13      0.66005417E-07     -0.10697100E-19      0.82493524E-09     -0.28222586E-21
