 
 # Omega; pulse ft; proj flux t=    1000.25000000000     
    0.000000000000         0.32818054E-12      0.00000000E+00      0.00000000E+00      0.00000000E+00      0.00000000E+00      0.00000000E+00      0.00000000E+00
    0.003140807452         0.15084240E-10      0.75094468E-06      0.13769567E-14      0.22352841E-15      0.40986901E-24      0.70205970E-18      0.12873196E-26
    0.006281614903         0.59367197E-10      0.10895307E-05      0.10440261E-14      0.63820086E-15      0.61154620E-24      0.27065257E-17      0.32080685E-26
    0.009422422355         0.13322140E-09      0.19035348E-06     -0.11774511E-15      0.16680725E-15     -0.10318035E-24      0.32304352E-17      0.28839989E-26
    0.012563229807         0.23672078E-09      0.13357989E-06     -0.12668334E-16      0.15599793E-15     -0.14794397E-25      0.37203946E-17      0.28375325E-26
    0.015704037259         0.36996889E-09      0.99776864E-07      0.39075791E-16      0.14568888E-15      0.57056397E-25      0.41779754E-17      0.30167357E-26
    0.018844844710         0.53309892E-09      0.85843231E-07      0.11667020E-17      0.15050952E-15      0.20455865E-26      0.46506968E-17      0.30231605E-26
    0.021985652162         0.72627381E-09      0.76095879E-07      0.25344773E-16      0.15579906E-15      0.51891009E-25      0.51400316E-17      0.31861402E-26
    0.025126459614         0.94968623E-09      0.68145990E-07     -0.60510885E-17      0.15963636E-15     -0.14175064E-25      0.56414187E-17      0.31416190E-26
    0.028267267066         0.12035587E-08      0.63159058E-07     -0.29703556E-16      0.16667167E-15     -0.78385294E-25      0.61649023E-17      0.28954259E-26
    0.031408074517         0.14881438E-08      0.68761875E-07      0.43165828E-16      0.20192681E-15      0.12676120E-24      0.67991156E-17      0.32935584E-26
    0.034548881969         0.18037240E-08      0.70655665E-07      0.10110365E-16      0.22862608E-15      0.32714901E-25      0.75171860E-17      0.33963096E-26
    0.037689689421         0.21506121E-08      0.58019324E-07      0.15924704E-16      0.20518937E-15      0.56318822E-25      0.81616464E-17      0.35731962E-26
    0.040830496872         0.25291509E-08      0.48788680E-07     -0.11028768E-16      0.18730606E-15     -0.42340868E-25      0.87499386E-17      0.34402117E-26
    0.043971304324         0.29397140E-08      0.46051684E-07      0.12489493E-16      0.19082002E-15      0.51751534E-25      0.93492675E-17      0.36027533E-26
    0.047112111776         0.33827052E-08      0.43639725E-07      0.66247873E-17      0.19420315E-15      0.29481271E-25      0.99592222E-17      0.36953483E-26
    0.050252919228         0.38585594E-08      0.41536718E-07      0.22263354E-16      0.19766908E-15      0.10594907E-24      0.10580063E-16      0.40281139E-26
    0.053393726679         0.43677419E-08      0.39665437E-07     -0.34642567E-18      0.20110444E-15     -0.17563840E-26      0.11211693E-16      0.40225975E-26
    0.056534534131         0.49107496E-08      0.37950040E-07     -0.19369758E-16      0.20430965E-15     -0.10427996E-24      0.11853390E-16      0.36950742E-26
    0.059675341583         0.54881104E-08      0.36408467E-07      0.24396472E-16      0.20752623E-15      0.13905853E-24      0.12505190E-16      0.41318303E-26
    0.062816149035         0.61003835E-08      0.34961726E-07      0.79505676E-17      0.21043664E-15      0.47854925E-25      0.13166131E-16      0.42821334E-26
    0.065956956486         0.67481601E-08      0.33649118E-07      0.61419694E-17      0.21337382E-15      0.38947097E-25      0.13836297E-16      0.44044587E-26
    0.069097763938         0.74320630E-08      0.32253010E-07      0.32284176E-16      0.21500983E-15      0.21521759E-24      0.14511602E-16      0.50804157E-26
    0.072238571390         0.81527474E-08      0.31001359E-07      0.32387695E-17      0.21684941E-15      0.22654660E-25      0.15192684E-16      0.51515696E-26
    0.075379378841         0.89109006E-08      0.30523344E-07      0.15600686E-16      0.22363709E-15      0.11430242E-24      0.15895085E-16      0.55105715E-26
    0.078520186293         0.97072426E-08      0.30030117E-07      0.44776348E-17      0.23009875E-15      0.34308830E-25      0.16617781E-16      0.56183289E-26
    0.081660993745         0.10542526E-07      0.28978066E-07     -0.37246213E-18      0.23186868E-15     -0.29802646E-26      0.17346036E-16      0.56089685E-26
    0.084801801197         0.11417538E-07      0.28025158E-07      0.46454494E-17      0.23386117E-15      0.38764821E-25      0.18080549E-16      0.57307213E-26
    0.087942608648         0.12333096E-07      0.27221819E-07      0.38397410E-17      0.23660972E-15      0.33374700E-25      0.18823694E-16      0.58355448E-26
    0.091083416100         0.13290054E-07      0.26472397E-07      0.63199528E-17      0.23939957E-15      0.57153647E-25      0.19575602E-16      0.60150535E-26
    0.094224223552         0.14289299E-07      0.25765244E-07      0.16458547E-17      0.24217276E-15      0.15469722E-25      0.20336220E-16      0.60636409E-26
    0.097365031004         0.15331753E-07      0.25100581E-07     -0.47716654E-18      0.24497132E-15     -0.46569487E-26      0.21105628E-16      0.60490143E-26
    0.100505838455         0.16418370E-07      0.24452416E-07      0.11852138E-16      0.24757295E-15      0.11999914E-24      0.21883207E-16      0.64259085E-26
    0.103646645907         0.17550142E-07      0.23841183E-07      0.47954962E-18      0.25020493E-15      0.50327065E-26      0.22669053E-16      0.64417152E-26
    0.106787453359         0.18728094E-07      0.23289535E-07      0.17469704E-17      0.25314937E-15      0.18988977E-25      0.23464146E-16      0.65013560E-26
    0.109928260810         0.19953287E-07      0.22770289E-07      0.46193952E-17      0.25616296E-15      0.51967628E-25      0.24268705E-16      0.66645763E-26
    0.113069068262         0.21226819E-07      0.22268100E-07      0.88563198E-18      0.25909972E-15      0.10304741E-25      0.25082487E-16      0.66969415E-26
    0.116209875714         0.22549823E-07      0.21792172E-07      0.14272184E-17      0.26208568E-15      0.17164581E-25      0.25905648E-16      0.67508521E-26
    0.119350683166         0.23923468E-07      0.21334433E-07      0.32713719E-17      0.26504707E-15      0.40641696E-25      0.26738109E-16      0.68784999E-26
    0.122491490617         0.25348961E-07      0.20899451E-07      0.10696423E-18      0.26805986E-15      0.13719411E-26      0.27580034E-16      0.68828089E-26
    0.125632298069         0.26827544E-07      0.20482988E-07     -0.29330179E-19      0.27109131E-15     -0.38818344E-27      0.28431479E-16      0.68815897E-26
    0.128773105521         0.28360500E-07      0.20086503E-07      0.29006631E-18      0.27417996E-15      0.39593936E-26      0.29292626E-16      0.68940254E-26
    0.131913912973         0.29949146E-07      0.19707213E-07     -0.22305522E-18      0.27730758E-15     -0.31386935E-26      0.30163595E-16      0.68841673E-26
    0.135054720424         0.31594841E-07      0.19345365E-07     -0.31645969E-18      0.28049557E-15     -0.45884655E-26      0.31044578E-16      0.68697558E-26
    0.138195527876         0.33298978E-07      0.18998401E-07     -0.15629520E-17      0.28372437E-15     -0.23341309E-25      0.31935702E-16      0.67964453E-26
    0.141336335328         0.35062992E-07      0.18666261E-07     -0.96544065E-18      0.28700876E-15     -0.14844426E-25      0.32837141E-16      0.67498218E-26
    0.144477142779         0.36888357E-07      0.18347695E-07      0.19353024E-17      0.29034500E-15      0.30625394E-25      0.33749059E-16      0.68460103E-26
    0.147617950231         0.38776586E-07      0.18041694E-07     -0.11886359E-17      0.29373140E-15     -0.19351825E-25      0.34671612E-16      0.67852299E-26
    0.150758757683         0.40729231E-07      0.17748179E-07     -0.40819587E-19      0.29718038E-15     -0.68349437E-27      0.35604999E-16      0.67830832E-26
    0.153899565135         0.42747886E-07      0.17466227E-07     -0.12595977E-18      0.30069002E-15     -0.21684619E-26      0.36549408E-16      0.67762725E-26
    0.157040372586         0.44834184E-07      0.17193993E-07      0.45289935E-18      0.30424074E-15      0.80138706E-26      0.37504970E-16      0.68014425E-26
    0.160181180038         0.46989799E-07      0.16934023E-07      0.20624677E-18      0.30788953E-15      0.37499194E-26      0.38471992E-16      0.68132203E-26
    0.163321987490         0.49216447E-07      0.16682365E-07     -0.56843140E-19      0.31157737E-15     -0.10616622E-26      0.39450596E-16      0.68098858E-26
    0.166462794942         0.51515886E-07      0.16440195E-07      0.42811597E-18      0.31533605E-15      0.82116058E-26      0.40441006E-16      0.68356769E-26
    0.169603602393         0.53889915E-07      0.16206309E-07      0.46172449E-18      0.31915320E-15      0.90928078E-26      0.41443405E-16      0.68642356E-26
    0.172744409845         0.56340375E-07      0.15982152E-07      0.45628751E-18      0.32306779E-15      0.92235262E-26      0.42458098E-16      0.68932049E-26
    0.175885217297         0.58869149E-07      0.15764141E-07      0.20700058E-18      0.32701782E-15      0.42941050E-26      0.43485198E-16      0.69066919E-26
    0.179026024748         0.61478167E-07      0.15555978E-07      0.13818839E-17      0.33108899E-15      0.29411621E-25      0.44525085E-16      0.69990681E-26
    0.182166832200         0.64169396E-07      0.15355849E-07     -0.27479753E-18      0.33525491E-15     -0.59994874E-26      0.45578056E-16      0.69802249E-26
    0.185307639652         0.66944851E-07      0.15160369E-07     -0.86662447E-19      0.33945039E-15     -0.19404278E-26      0.46644205E-16      0.69741304E-26
    0.188448447104         0.69806589E-07      0.14973042E-07      0.65881167E-18      0.34376098E-15      0.15125433E-25      0.47723892E-16      0.70216365E-26
    0.191589254555         0.72756711E-07      0.14793067E-07      0.25491618E-17      0.34817920E-15      0.59998721E-25      0.48817455E-16      0.72100809E-26
    0.194730062007         0.75797365E-07      0.14618355E-07      0.65054043E-18      0.35266494E-15      0.15694160E-25      0.49925108E-16      0.72593732E-26
    0.197870869459         0.78930738E-07      0.14450517E-07      0.56497919E-18      0.35726492E-15      0.13968167E-25      0.51047208E-16      0.73032446E-26
    0.201011676911         0.82159069E-07      0.14288308E-07      0.63969797E-18      0.36195759E-15      0.16205106E-25      0.52184048E-16      0.73541417E-26
    0.204152484362         0.85484636E-07      0.14132523E-07      0.64208183E-18      0.36677165E-15      0.16663509E-25      0.53336007E-16      0.74064785E-26
    0.207293291814         0.88909765E-07      0.13981833E-07      0.99826678E-18      0.37168154E-15      0.26537103E-25      0.54503387E-16      0.74898265E-26
    0.210434099266         0.92436830E-07      0.13837437E-07      0.59874067E-18      0.37672745E-15      0.16300854E-25      0.55686615E-16      0.75410243E-26
    0.213574906717         0.96068246E-07      0.13697669E-07      0.42015176E-18      0.38187301E-15      0.11713279E-25      0.56886005E-16      0.75778135E-26
    0.216715714169         0.99806478E-07      0.13563791E-07      0.34446752E-18      0.38716145E-15      0.98323941E-26      0.58102004E-16      0.76086951E-26
    0.219856521621         0.10365403E-06      0.13434565E-07      0.35321167E-18      0.39256641E-15      0.10321067E-25      0.59334980E-16      0.76411116E-26
    0.222997329073         0.10761347E-06      0.13311070E-07      0.29522745E-18      0.39812793E-15      0.88301157E-26      0.60585423E-16      0.76688453E-26
    0.226138136524         0.11168740E-06      0.13191793E-07     -0.31472927E-18      0.40380980E-15     -0.96340783E-26      0.61853712E-16      0.76385865E-26
    0.229278943976         0.11587846E-06      0.13078122E-07      0.86686473E-19      0.40966284E-15      0.27153920E-26      0.63140384E-16      0.76471150E-26
    0.232419751428         0.12018935E-06      0.12968523E-07      0.38249086E-18      0.41564842E-15      0.12259046E-25      0.64445856E-16      0.76856183E-26
    0.235560558880         0.12462281E-06      0.12864272E-07      0.29261520E-18      0.42181582E-15      0.95947690E-26      0.65770698E-16      0.77157537E-26
    0.238701366331         0.12918164E-06      0.12764189E-07      0.94479827E-19      0.42813605E-15      0.31690396E-26      0.67115391E-16      0.77257070E-26
    0.241842173783         0.13386868E-06      0.12669311E-07     -0.51308146E-18      0.43465294E-15     -0.17602564E-25      0.68480552E-16      0.76704207E-26
    0.244982981235         0.13868680E-06      0.12578626E-07      0.16364980E-18      0.44134186E-15      0.57419232E-26      0.69866722E-16      0.76884550E-26
    0.248123788686         0.14363896E-06      0.12492912E-07      0.21323783E-18      0.44823957E-15      0.76508690E-26      0.71274556E-16      0.77124849E-26
    0.251264596138         0.14872811E-06      0.12411226E-07      0.58008046E-19      0.45532250E-15      0.21281031E-26      0.72704636E-16      0.77191689E-26
    0.254405403590         0.15395730E-06      0.12334706E-07      0.24729430E-18      0.46264240E-15      0.92753592E-26      0.74157707E-16      0.77483010E-26
    0.257546211042         0.15932959E-06      0.12261967E-07      0.17194671E-18      0.47015831E-15      0.65929204E-26      0.75634384E-16      0.77690081E-26
    0.260687018493         0.16484812E-06      0.12194251E-07      0.70360822E-19      0.47792792E-15      0.27576439E-26      0.77135463E-16      0.77776693E-26
    0.263827825945         0.17051605E-06      0.12130339E-07      0.11678116E-18      0.48591499E-15      0.46779991E-26      0.78661629E-16      0.77923620E-26
    0.266968633397         0.17633661E-06      0.12071924E-07     -0.14027671E-18      0.49419847E-15     -0.57426255E-26      0.80213811E-16      0.77743255E-26
    0.270109440849         0.18231305E-06      0.12016920E-07      0.33205478E-18      0.50270573E-15      0.13890901E-25      0.81792713E-16      0.78179542E-26
    0.273250248300         0.18844869E-06      0.11967215E-07      0.25368470E-18      0.51152673E-15      0.10843500E-25      0.83399320E-16      0.78520115E-26
    0.276391055752         0.19474689E-06      0.11921607E-07      0.36614554E-19      0.52062381E-15      0.15989797E-26      0.85034499E-16      0.78570336E-26
    0.279531863204         0.20121105E-06      0.11880914E-07      0.10456500E-18      0.53004539E-15      0.46649771E-26      0.86699269E-16      0.78716854E-26
    0.282672670655         0.20784464E-06      0.11844310E-07      0.26327873E-18      0.53976842E-15      0.11998127E-25      0.88394578E-16      0.79093692E-26
    0.285813478107         0.21465116E-06      0.11812801E-07      0.19759676E-18      0.54985235E-15      0.91975685E-26      0.90121559E-16      0.79382570E-26
    0.288954285559         0.22163414E-06      0.11784452E-07      0.87651226E-19      0.56022125E-15      0.41668531E-26      0.91881106E-16      0.79513443E-26
    0.292095093011         0.22879719E-06      0.11760865E-07     -0.36242604E-19      0.57096353E-15     -0.17594968E-26      0.93674392E-16      0.79458181E-26
    0.295235900462         0.23614394E-06      0.11733797E-07     -0.13831436E-19      0.58168636E-15     -0.68567386E-27      0.95501357E-16      0.79436645E-26
    0.298376707914         0.24367808E-06      0.11722439E-07     -0.10279616E-18      0.59335173E-15     -0.52032069E-26      0.97364960E-16      0.79273222E-26
    0.301517515366         0.25140334E-06      0.11757898E-07      0.22383780E-18      0.60761833E-15      0.11567369E-25      0.99273373E-16      0.79636531E-26
    0.304658322818         0.25932350E-06      0.11784949E-07      0.13943197E-18      0.62172627E-15      0.73558670E-26      0.10122610E-15      0.79867565E-26
    0.307799130269         0.26744238E-06      0.11775248E-07      0.40441176E-19      0.63412605E-15      0.21778567E-26      0.10321776E-15      0.79935967E-26
    0.310939937721         0.27576385E-06      0.11775477E-07      0.26689971E-19      0.64726483E-15      0.14670726E-26      0.10525070E-15      0.79982045E-26
    0.314080745173         0.28429181E-06      0.11790640E-07      0.15464981E-18      0.66145926E-15      0.86759114E-26      0.10732821E-15      0.80254538E-26
    0.317221552624         0.29303021E-06      0.11812919E-07      0.26564567E-18      0.67631592E-15      0.15208807E-25      0.10945239E-15      0.80732218E-26
    0.320362360076         0.30198307E-06      0.11842912E-07      0.19070954E-18      0.69189831E-15      0.11141822E-25      0.11162551E-15      0.81082161E-26
    0.323503167528         0.31115440E-06      0.11879641E-07      0.41361577E-19      0.70817960E-15      0.24656826E-26      0.11384977E-15      0.81159603E-26
    0.326643974980         0.32054830E-06      0.11924348E-07      0.90572165E-19      0.72526405E-15      0.55087905E-26      0.11612768E-15      0.81332624E-26
    0.329784782431         0.33016890E-06      0.11976204E-07     -0.35926207E-19      0.74313448E-15     -0.22292542E-26      0.11846172E-15      0.81262607E-26
    0.332925589883         0.34002034E-06      0.12036759E-07      0.22380326E-19      0.76192104E-15      0.14166638E-26      0.12085477E-15      0.81307102E-26
    0.336066397335         0.35010685E-06      0.12104895E-07      0.86916820E-19      0.78159042E-15      0.56120563E-26      0.12330960E-15      0.81483366E-26
    0.339207204787         0.36043265E-06      0.12182977E-07      0.58941773E-20      0.80233396E-15      0.38817265E-27      0.12582957E-15      0.81495558E-26
    0.342348012238         0.37100205E-06      0.12269041E-07     -0.31702860E-19      0.82406561E-15     -0.21293626E-26      0.12841780E-15      0.81428678E-26
    0.345488819690         0.38181936E-06      0.12366667E-07      0.29221136E-18      0.84706996E-15      0.20015374E-25      0.13107829E-15      0.82057323E-26
    0.348629627142         0.39288894E-06      0.12472863E-07      0.41420349E-19      0.87119290E-15      0.28930900E-26      0.13381454E-15      0.82148189E-26
    0.351770434593         0.40421519E-06      0.12592821E-07      0.10086030E-18      0.89684829E-15      0.71831715E-26      0.13663136E-15      0.82373799E-26
    0.354911242045         0.41580254E-06      0.12721899E-07      0.62902619E-19      0.92376607E-15      0.45675024E-26      0.13953274E-15      0.82517255E-26
    0.358052049497         0.42765547E-06      0.12867279E-07      0.10165180E-18      0.95252689E-15      0.75249844E-26      0.14252444E-15      0.82753600E-26
    0.361192856949         0.43977848E-06      0.13022458E-07     -0.30160321E-19      0.98272148E-15     -0.22760063E-26      0.14561098E-15      0.82682115E-26
    0.364333664400         0.45217610E-06      0.13197476E-07      0.15499032E-19      0.10151772E-14      0.11922177E-26      0.14879945E-15      0.82719561E-26
    0.367474471852         0.46485292E-06      0.13383178E-07      0.23023982E-19      0.10492774E-14      0.18051425E-26      0.15209503E-15      0.82776257E-26
    0.370615279304         0.47781353E-06      0.13593488E-07      0.74460123E-19      0.10861973E-14      0.59497888E-26      0.15550657E-15      0.82963128E-26
    0.373756086755         0.49106257E-06      0.13814755E-07      0.48177538E-20      0.11249531E-14      0.39231584E-27      0.15903983E-15      0.82975450E-26
    0.376896894207         0.50460471E-06      0.14065380E-07      0.63085831E-19      0.11671398E-14      0.52348379E-26      0.16270559E-15      0.83139866E-26
    0.380037701659         0.51844464E-06      0.14329287E-07      0.90500866E-19      0.12115545E-14      0.76519323E-26      0.16651085E-15      0.83380199E-26
    0.383178509111         0.53258708E-06      0.14631776E-07      0.13322936E-18      0.12604604E-14      0.11477098E-25      0.17046971E-15      0.83740672E-26
