
 # Omega; pulse ft; projected flux at t=    1000.2500000000000     
    0.000000000000         0.18717486E-09      0.00000000E+00     -0.00000000E+00      0.11804396E-10     -0.33087225E-23
    0.003140022642         0.20186436E-09      0.45244937E-03     -0.24961616E-16      0.11327118E-10     -0.62491668E-24
    0.006280045285         0.24594737E-09      0.70968286E-03     -0.48002811E-15      0.10823464E-10     -0.73209700E-23
    0.009420067927         0.31946741E-09      0.81284318E-03     -0.59020815E-15      0.10734995E-10     -0.77947157E-23
    0.012560090569         0.42249703E-09      0.82103210E-03     -0.38003607E-15      0.10755078E-10     -0.49782677E-23
    0.015700113211         0.55513782E-09      0.78290225E-03     -0.73486929E-15      0.10780232E-10     -0.10118839E-22
    0.018840135854         0.71752051E-09      0.72927858E-03     -0.13238280E-15      0.10815990E-10     -0.19633801E-23
    0.021980158496         0.90980495E-09      0.67328174E-03     -0.40202511E-16      0.10852676E-10     -0.64802715E-24
    0.025120181138         0.11321802E-08      0.62029748E-03     -0.12819200E-14      0.10887179E-10     -0.22499676E-22
    0.028260203780         0.13848647E-08      0.57218963E-03     -0.52651077E-15      0.10919294E-10     -0.10047589E-22
    0.031400226423         0.16681061E-08      0.53007738E-03      0.17765380E-15      0.10966112E-10      0.36752588E-23
    0.034540249065         0.19821816E-08      0.49253933E-03     -0.43635979E-15      0.11007316E-10     -0.97518102E-23
    0.037680271707         0.23273981E-08      0.45953325E-03     -0.63430142E-16      0.11053406E-10     -0.15257201E-23
    0.040820294349         0.27040919E-08      0.43015825E-03     -0.16253502E-15      0.11096758E-10     -0.41929030E-23
    0.043960316992         0.31126296E-08      0.40410021E-03     -0.40096604E-15      0.11142387E-10     -0.11055968E-22
    0.047100339634         0.35534072E-08      0.38074600E-03     -0.24188216E-15      0.11186104E-10     -0.71063620E-23
    0.050240362276         0.40268513E-08      0.35986014E-03      0.86559043E-16      0.11232311E-10      0.27017666E-23
    0.053380384919         0.45334185E-08      0.34095771E-03     -0.26110733E-15      0.11276314E-10     -0.86354647E-23
    0.056520407561         0.50735959E-08      0.32392726E-03      0.50803511E-16      0.11323499E-10      0.17759342E-23
    0.059660430203         0.56479014E-08      0.30833904E-03      0.27095252E-16      0.11367155E-10      0.99888723E-24
    0.062800452845         0.62568834E-08      0.29424217E-03     -0.13583286E-15      0.11416231E-10     -0.52701462E-23
    0.065940475488         0.69011217E-08      0.28109007E-03      0.38038873E-16      0.11456070E-10      0.15503073E-23
    0.069080498130         0.75812269E-08      0.26961715E-03     -0.15162461E-15      0.11522696E-10     -0.64800190E-23
    0.072220520772         0.82978416E-08      0.25847397E-03     -0.17292794E-15      0.11564953E-10     -0.77373497E-23
    0.075360543414         0.90516395E-08      0.24817720E-03     -0.12581369E-15      0.11608274E-10     -0.58848266E-23
    0.078500566057         0.98433265E-08      0.23932578E-03     -0.21368114E-15      0.11686410E-10     -0.10434169E-22
    0.081640588699         0.10673641E-07      0.23026558E-03     -0.10527980E-15      0.11723520E-10     -0.53601142E-23
    0.084780611341         0.11543353E-07      0.22200673E-03      0.26566029E-17      0.11771291E-10      0.14085900E-24
    0.087920633984         0.12453265E-07      0.21422387E-03     -0.31091052E-16      0.11816336E-10     -0.17149457E-23
    0.091060656626         0.13404215E-07      0.20700847E-03     -0.17561057E-15      0.11866462E-10     -0.10066622E-22
    0.094200679268         0.14397070E-07      0.20010900E-03      0.75640876E-16      0.11909931E-10      0.45019345E-23
    0.097340701910         0.15432734E-07      0.19366766E-03     -0.11430218E-16      0.11957160E-10     -0.70570865E-24
    0.100480724553         0.16512144E-07      0.18764217E-03     -0.93459523E-16      0.12008083E-10     -0.59809036E-23
    0.103620747195         0.17636269E-07      0.18188134E-03     -0.64371807E-16      0.12055096E-10     -0.42665637E-23
    0.106760769837         0.18806114E-07      0.17650638E-03     -0.84183732E-16      0.12107942E-10     -0.57748152E-23
    0.109900792479         0.20022721E-07      0.17137806E-03     -0.99391941E-16      0.12159061E-10     -0.70517349E-23
    0.113040815122         0.21287162E-07      0.16651524E-03      0.80607034E-16      0.12211218E-10      0.59112314E-23
    0.116180837764         0.22600547E-07      0.16188321E-03     -0.17321268E-16      0.12263341E-10     -0.13121597E-23
    0.119320860406         0.23964023E-07      0.15747730E-03     -0.44024952E-16      0.12316402E-10     -0.34432201E-23
    0.122460883048         0.25378770E-07      0.15326657E-03     -0.71904467E-17      0.12369244E-10     -0.58029870E-24
    0.125600905691         0.26846007E-07      0.14925995E-03     -0.89509477E-16      0.12423751E-10     -0.74503810E-23
    0.128740928333         0.28366986E-07      0.14541578E-03     -0.81652485E-16      0.12477588E-10     -0.70062965E-23
    0.131880950975         0.29943001E-07      0.14175299E-03     -0.28101744E-16      0.12533375E-10     -0.24846720E-23
    0.135020973618         0.31575378E-07      0.13822958E-03     -0.43837346E-16      0.12588409E-10     -0.39922168E-23
    0.138160996260         0.33265483E-07      0.13486358E-03     -0.70063776E-16      0.12645197E-10     -0.65693812E-23
    0.141301018902         0.35014721E-07      0.13162100E-03     -0.10316305E-15      0.12701444E-10     -0.99552479E-23
    0.144441041544         0.36824533E-07      0.12851423E-03     -0.63181023E-16      0.12759111E-10     -0.62727190E-23
    0.147581064187         0.38696400E-07      0.12551841E-03     -0.70003514E-16      0.12816513E-10     -0.71479633E-23
    0.150721086829         0.40631842E-07      0.12264036E-03     -0.19578878E-16      0.12875036E-10     -0.20554307E-23
    0.153861109471         0.42632417E-07      0.11986251E-03     -0.38724716E-16      0.12933527E-10     -0.41785142E-23
    0.157001132113         0.44699723E-07      0.11718749E-03      0.27012014E-17      0.12992892E-10      0.29948946E-24
    0.160141154756         0.46835399E-07      0.11460319E-03     -0.64400973E-16      0.13052404E-10     -0.73347656E-23
    0.163281177398         0.49041122E-07      0.11210937E-03     -0.49161690E-16      0.13112598E-10     -0.57500766E-23
    0.166421200040         0.51318613E-07      0.10969772E-03     -0.29009530E-17      0.13173052E-10     -0.34836098E-24
    0.169561222683         0.53669630E-07      0.10736670E-03     -0.98663507E-17      0.13234093E-10     -0.12161332E-23
    0.172701245325         0.56095974E-07      0.10511003E-03     -0.36533778E-16      0.13295447E-10     -0.46211850E-23
    0.175841267967         0.58599489E-07      0.10292492E-03      0.90395375E-17      0.13357221E-10      0.11731182E-23
    0.178981290609         0.61182058E-07      0.10080972E-03      0.18145498E-16      0.13419656E-10      0.24155047E-23
    0.182121313252         0.63845608E-07      0.98755959E-04      0.12822317E-16      0.13482055E-10      0.17504887E-23
    0.185261335894         0.66592107E-07      0.96768584E-04     -0.18782678E-16      0.13545495E-10     -0.26291661E-23
    0.188401358536         0.69423567E-07      0.94835563E-04     -0.26725136E-16      0.13608701E-10     -0.38350000E-23
    0.191541381178         0.72342043E-07      0.92964085E-04     -0.27227792E-16      0.13673065E-10     -0.40046366E-23
    0.194681403821         0.75349631E-07      0.91141774E-04     -0.32245202E-16      0.13737151E-10     -0.48600900E-23
    0.197821426463         0.78448474E-07      0.89376089E-04      0.18673894E-16      0.13802414E-10      0.28838230E-23
    0.200961449105         0.81640757E-07      0.87655460E-04     -0.36086885E-16      0.13867424E-10     -0.57090810E-23
    0.204101471747         0.84928709E-07      0.85987069E-04      0.71607742E-16      0.13933624E-10      0.11603551E-22
    0.207241494390         0.88314602E-07      0.84360008E-04     -0.71997859E-16      0.13999578E-10     -0.11948075E-22
    0.210381517032         0.91800755E-07      0.82781320E-04     -0.47541376E-16      0.14066743E-10     -0.80785415E-23
    0.213521539674         0.95389531E-07      0.81240683E-04     -0.39627521E-16      0.14133676E-10     -0.68941142E-23
    0.216661562317         0.99083337E-07      0.79744899E-04     -0.60701070E-17      0.14201827E-10     -0.10810297E-23
    0.219801584959         0.10288463E-06      0.78284414E-04     -0.23806425E-16      0.14269788E-10     -0.43394670E-23
    0.222941607601         0.10679590E-06      0.76865490E-04     -0.30823904E-16      0.14338951E-10     -0.57500766E-23
    0.226081630243         0.11081969E-06      0.75479504E-04      0.98283794E-17      0.14407985E-10      0.18761006E-23
    0.229221652886         0.11495860E-06      0.74132077E-04     -0.17650847E-16      0.14478199E-10     -0.34472590E-23
    0.232361675528         0.11921526E-06      0.72815527E-04     -0.35238326E-16      0.14548355E-10     -0.70405268E-23
    0.235501698170         0.12359235E-06      0.71534752E-04     -0.31769824E-16      0.14619656E-10     -0.64928427E-23
    0.238641720812         0.12809259E-06      0.70283069E-04      0.17472648E-16      0.14690984E-10      0.36522367E-23
    0.241781743455         0.13271877E-06      0.69064596E-04      0.27003299E-16      0.14763416E-10      0.57722909E-23
    0.244921766097         0.13747370E-06      0.67873632E-04      0.94385768E-17      0.14835967E-10      0.20631048E-23
    0.248061788739         0.14236024E-06      0.66713497E-04      0.22066562E-17      0.14909569E-10      0.49315797E-24
    0.251201811381         0.14738131E-06      0.65579483E-04     -0.23438994E-16      0.14983394E-10     -0.53552675E-23
    0.254341834024         0.15253987E-06      0.64474090E-04      0.46605915E-17      0.15058210E-10      0.10885018E-23
    0.257481856666         0.15783893E-06      0.63393585E-04     -0.92091318E-17      0.15133360E-10     -0.21984102E-23
    0.260621879308         0.16328153E-06      0.62339634E-04     -0.23949704E-16      0.15209431E-10     -0.58431748E-23
    0.263761901951         0.16887077E-06      0.61309474E-04      0.34181245E-18      0.15285955E-10      0.85222221E-25
    0.266901924593         0.17460981E-06      0.60303982E-04      0.33868282E-16      0.15363334E-10      0.86284470E-23
    0.270041947235         0.18050182E-06      0.59321227E-04      0.60871753E-17      0.15441270E-10      0.15844871E-23
    0.273181969877         0.18655005E-06      0.58361436E-04     -0.61238570E-17      0.15520005E-10     -0.16285118E-23
    0.276321992520         0.19275778E-06      0.57423410E-04     -0.54461338E-17      0.15599403E-10     -0.14794739E-23
    0.279462015162         0.19912834E-06      0.56506756E-04      0.39577355E-17      0.15679536E-10      0.10981954E-23
    0.282602037804         0.20566511E-06      0.55610983E-04      0.99190884E-18      0.15760444E-10      0.28111216E-24
    0.285742060446         0.21237151E-06      0.54735099E-04     -0.77002969E-17      0.15842019E-10     -0.22287025E-23
    0.288882083089         0.21925100E-06      0.53879285E-04     -0.40450006E-18      0.15924483E-10     -0.11955345E-24
    0.292022105731         0.22630710E-06      0.53042011E-04     -0.17882856E-16      0.16007554E-10     -0.53968688E-23
    0.295162128373         0.23354337E-06      0.52224036E-04      0.10587442E-16      0.16091624E-10      0.32622743E-23
    0.298302151016         0.24096340E-06      0.51423340E-04     -0.19258189E-16      0.16176238E-10     -0.60580479E-23
    0.301442173658         0.24857086E-06      0.50641199E-04     -0.12263269E-16      0.16261954E-10     -0.39379936E-23
    0.304582196300         0.25636942E-06      0.49875142E-04     -0.12450290E-16      0.16348142E-10     -0.40809731E-23
    0.307722218942         0.26436283E-06      0.49126999E-04     -0.42931916E-16      0.16435553E-10     -0.14362974E-22
    0.310862241585         0.27255487E-06      0.48393831E-04     -0.11739474E-16      0.16523366E-10     -0.40082717E-23
    0.314002264227         0.28094936E-06      0.47678010E-04     -0.13645921E-16      0.16612536E-10     -0.47546729E-23
    0.317142286869         0.28955016E-06      0.46976022E-04     -0.18082842E-16      0.16701998E-10     -0.64292290E-23
    0.320282309511         0.29836118E-06      0.46290977E-04     -0.14057376E-16      0.16792999E-10     -0.50996008E-23
    0.323422332154         0.30738639E-06      0.45618538E-04      0.74806732E-17      0.16884124E-10      0.27687125E-23
    0.326562354796         0.31662976E-06      0.44962887E-04     -0.26788512E-16      0.16977055E-10     -0.10114787E-22
    0.329702377438         0.32609534E-06      0.44318339E-04     -0.63610345E-17      0.17069804E-10     -0.24500379E-23
    0.332842400080         0.33578719E-06      0.43690958E-04     -0.11875228E-16      0.17164834E-10     -0.46654117E-23
    0.335982422723         0.34570944E-06      0.43072829E-04     -0.11721833E-16      0.17259198E-10     -0.46969157E-23
    0.339122445365         0.35586624E-06      0.42471455E-04     -0.10713883E-17      0.17356012E-10     -0.43782411E-24
    0.342262468007         0.36626178E-06      0.41880883E-04     -0.19568244E-17      0.17453024E-10     -0.81546761E-24
    0.345402490650         0.37690029E-06      0.41302693E-04      0.61163932E-17      0.17551002E-10      0.25990758E-23
    0.348542513292         0.38778604E-06      0.40736835E-04      0.41800073E-17      0.17650063E-10      0.18110732E-23
    0.351682535934         0.39892335E-06      0.40183563E-04      0.12629821E-16      0.17750461E-10      0.55790263E-23
    0.354822558576         0.41031655E-06      0.39640130E-04     -0.16000549E-17      0.17851118E-10     -0.72055186E-24
    0.357962581219         0.42197002E-06      0.39110310E-04     -0.49640593E-17      0.17953857E-10     -0.22787857E-23
    0.361102603861         0.43388818E-06      0.38588766E-04     -0.17798742E-17      0.18056378E-10     -0.83283517E-24
    0.364242626503         0.44607547E-06      0.38081063E-04     -0.13198880E-16      0.18161394E-10     -0.62947314E-23
    0.367382649145         0.45853638E-06      0.37580532E-04     -0.97092179E-17      0.18265881E-10     -0.47191300E-23
    0.370522671788         0.47127541E-06      0.37093926E-04     -0.38072530E-17      0.18373222E-10     -0.18857941E-23
    0.373662694430         0.48429711E-06      0.36613477E-04     -0.67859643E-17      0.18479731E-10     -0.34250447E-23
    0.376802717072         0.49760605E-06      0.36147082E-04     -0.19822041E-16      0.18589488E-10     -0.10193951E-22
    0.379942739715         0.51120685E-06      0.35685747E-04     -0.13910742E-16      0.18698030E-10     -0.72887214E-23
    0.383082762357         0.52510413E-06      0.35238711E-04     -0.11745478E-16      0.18810285E-10     -0.62696898E-23
    0.386222784999         0.53930256E-06      0.34795562E-04     -0.58285015E-17      0.18920865E-10     -0.31693781E-23
    0.389362807641         0.55380682E-06      0.34367161E-04     -0.10725008E-16      0.19035752E-10     -0.59405139E-23
    0.392502830284         0.56862162E-06      0.33941277E-04     -0.11450498E-16      0.19148347E-10     -0.64599252E-23
    0.395642852926         0.58375171E-06      0.33530839E-04     -0.10909748E-16      0.19266011E-10     -0.62684781E-23
    0.398782875568         0.59920184E-06      0.33121289E-04     -0.13486254E-16      0.19380564E-10     -0.78913354E-23
    0.401922898210         0.61497679E-06      0.32728187E-04     -0.18456426E-16      0.19501161E-10     -0.10997302E-22
    0.405062920853         0.63108138E-06      0.32334072E-04     -0.28505695E-17      0.19617598E-10     -0.17294860E-23
    0.408202943495         0.64752043E-06      0.31957800E-04     -0.92426615E-17      0.19741346E-10     -0.57094849E-23
    0.411342966137         0.66429877E-06      0.31578094E-04     -0.48089949E-17      0.19859478E-10     -0.30243791E-23
    0.414482988779         0.68142128E-06      0.31218232E-04     -0.27994161E-16      0.19986642E-10     -0.17922516E-22
    0.417623011422         0.69889282E-06      0.30851778E-04     -0.51765854E-16      0.20106149E-10     -0.33735883E-22
    0.420763034064         0.71671828E-06      0.30507908E-04     -0.22995239E-16      0.20236988E-10     -0.15253566E-22
    0.423903056706         0.73490258E-06      0.30153319E-04      0.11384748E-16      0.20357333E-10      0.76861558E-23
    0.427043079349         0.75345064E-06      0.29825098E-04      0.18518374E-16      0.20492151E-10      0.12723556E-22
    0.430183101991         0.77236737E-06      0.29480648E-04      0.12050126E-17      0.20612475E-10      0.84252869E-24
    0.433323124633         0.79165771E-06      0.29167864E-04     -0.79660283E-17      0.20751656E-10     -0.56674797E-23
    0.436463147275         0.81132662E-06      0.28831071E-04     -0.23941878E-16      0.20870433E-10     -0.17331211E-22
    0.439603169918         0.83137904E-06      0.28534061E-04     -0.10618418E-16      0.21014757E-10     -0.78202495E-23
    0.442743192560         0.85181993E-06      0.28200804E-04     -0.25850967E-16      0.21129049E-10     -0.19368466E-22
    0.445883215202         0.87265424E-06      0.27919214E-04     -0.58685565E-17      0.21278784E-10     -0.44727530E-23
    0.449023237844         0.89388696E-06      0.27581264E-04     -0.10830457E-16      0.21382106E-10     -0.83962063E-23
    0.452163260487         0.91552302E-06      0.27311736E-04      0.32373595E-18      0.21535048E-10      0.25526277E-24
    0.455303283129         0.93756741E-06      0.26949644E-04     -0.14541962E-16      0.21611121E-10     -0.11661308E-22
    0.458443305771         0.96002506E-06      0.26675378E-04     -0.28339930E-17      0.21753546E-10     -0.23110974E-23
    0.461583328413         0.98290095E-06      0.26228102E-04      0.52213523E-18      0.21749489E-10      0.43297735E-24
    0.464723351056         0.10062000E-05      0.25779556E-04     -0.80849811E-17      0.21736409E-10     -0.68169699E-23
    0.467863373698         0.10299272E-05      0.25037537E-04     -0.88764901E-17      0.21463554E-10     -0.76094154E-23
    0.471003396340         0.10540874E-05      0.20136286E-04     -0.11794595E-16      0.17549086E-10     -0.10279173E-22
    0.474143418983         0.10786856E-05      0.22011673E-04     -0.11766592E-16      0.19501174E-10     -0.10424576E-22
    0.477283441625         0.11037267E-05      0.25288997E-04     -0.11291442E-16      0.22774000E-10     -0.10168505E-22
    0.480423464267         0.11292155E-05      0.24341648E-04     -0.16079539E-17      0.22280511E-10     -0.14717999E-23
    0.483563486909         0.11551570E-05      0.24788143E-04     -0.18356730E-17      0.23059721E-10     -0.17076756E-23
    0.486703509552         0.11815559E-05      0.24399268E-04     -0.38655441E-17      0.23066896E-10     -0.36544581E-23
    0.489843532194         0.12084172E-05      0.24367356E-04      0.96025022E-18      0.23409411E-10      0.92250025E-24
    0.492983554836         0.12357457E-05      0.24057000E-04     -0.70587891E-17      0.23483384E-10     -0.68904791E-23
    0.496123577478         0.12635461E-05      0.23931942E-04     -0.28579854E-17      0.23735681E-10     -0.28345476E-23
    0.499263600121         0.12918231E-05      0.23635415E-04     -0.11317411E-16      0.23815458E-10     -0.11403622E-22
    0.502403622763         0.13205817E-05      0.23483285E-04     -0.19259462E-16      0.24037754E-10     -0.19714202E-22
    0.505543645405         0.13498263E-05      0.23167244E-04     -0.79281457E-17      0.24088854E-10     -0.82435334E-23
    0.508683668048         0.13795618E-05      0.23003335E-04     -0.11430899E-16      0.24294430E-10     -0.12072475E-22
