 
 # Omega; pulse ft; proj flux t=    1000.25000000000     
    0.000000000000         0.13861783E-10      0.00000000E+00      0.00000000E+00      0.16645029E-11      0.12407709E-23      0.41591776E-15      0.31003771E-27
    0.003140022642         0.28547099E-10      0.23718559E-03     -0.10568793E-15      0.16794614E-11     -0.74835408E-24      0.83557328E-15      0.12304269E-27
    0.006280045285         0.72617464E-10      0.18834917E-03     -0.21509574E-15      0.16962683E-11     -0.19371473E-23      0.12594284E-14     -0.36100213E-27
    0.009420067927         0.14611614E-09      0.14106245E-03      0.26980563E-15      0.17041512E-11      0.32594754E-23      0.16852533E-14      0.45345950E-27
    0.012560090569         0.24911526E-09      0.11074986E-03      0.12838315E-15      0.17108159E-11      0.19832074E-23      0.21127436E-14      0.94901357E-27
    0.015700113211         0.38171583E-09      0.90678438E-04      0.56474824E-16      0.17170935E-11      0.10694114E-23      0.25418024E-14      0.12162328E-26
    0.018840135854         0.54404780E-09      0.76622084E-04     -0.76657038E-16      0.17232946E-11     -0.17240808E-23      0.29724108E-14      0.78542802E-27
    0.021980158496         0.73627010E-09      0.66289681E-04      0.58044294E-16      0.17294373E-11      0.15143226E-23      0.34045540E-14      0.11638195E-26
    0.025120181138         0.95857070E-09      0.58397785E-04     -0.12860840E-15      0.17356026E-11     -0.38222867E-23      0.38382378E-14      0.20872536E-27
    0.028260203780         0.12111667E-08      0.52180799E-04     -0.51820317E-16      0.17417744E-11     -0.17297416E-23      0.42734638E-14     -0.22349393E-27
    0.031400226423         0.14943044E-08      0.47160367E-04     -0.39302576E-16      0.17479782E-11     -0.14567326E-23      0.47102400E-14     -0.58749509E-27
    0.034540249065         0.18082594E-08      0.43022321E-04     -0.92685381E-16      0.17542103E-11     -0.37791928E-23      0.51485734E-14     -0.15318211E-26
    0.037680271707         0.21533368E-08      0.39553025E-04     -0.95823271E-17      0.17604762E-11     -0.42650238E-24      0.55884725E-14     -0.16383934E-26
    0.040820294349         0.25298710E-08      0.36602561E-04      0.16835667E-17      0.17667954E-11      0.81265295E-25      0.60299506E-14     -0.16180873E-26
    0.043960316992         0.29382263E-08      0.34061538E-04     -0.45328852E-16      0.17731327E-11     -0.23596723E-23      0.64730122E-14     -0.22077105E-26
    0.047100339634         0.33787968E-08      0.31850509E-04     -0.21515052E-16      0.17795367E-11     -0.12020789E-23      0.69176741E-14     -0.25080801E-26
    0.050240362276         0.38520063E-08      0.29907665E-04     -0.35578906E-16      0.17859499E-11     -0.21246107E-23      0.73639384E-14     -0.30389673E-26
    0.053380384919         0.43583091E-08      0.28187511E-04     -0.61798457E-16      0.17924440E-11     -0.39297642E-23      0.78118255E-14     -0.40209174E-26
    0.056520407561         0.48981894E-08      0.26652201E-04      0.71485699E-17      0.17989368E-11      0.48250519E-24      0.82613349E-14     -0.39003514E-26
    0.059660430203         0.54721621E-08      0.25274234E-04     -0.16482778E-16      0.18055234E-11     -0.11774853E-23      0.87124902E-14     -0.41945756E-26
    0.062800452845         0.60807727E-08      0.24028882E-04     -0.59569544E-17      0.18120997E-11     -0.44923420E-24      0.91652887E-14     -0.43068280E-26
    0.065940475488         0.67245976E-08      0.22898868E-04      0.14069334E-16      0.18187825E-11      0.11174814E-23      0.96197571E-14     -0.40275973E-26
    0.069080498130         0.74042442E-08      0.21867050E-04      0.41170889E-18      0.18254419E-11      0.34369092E-25      0.10075889E-13     -0.40190093E-26
    0.072220520772         0.81203513E-08      0.20922365E-04     -0.17720034E-16      0.18322195E-11     -0.15517841E-23      0.10533715E-13     -0.44067614E-26
    0.075360543414         0.88735891E-08      0.20052387E-04     -0.12709289E-16      0.18389669E-11     -0.11655451E-23      0.10993227E-13     -0.46980021E-26
    0.078500566057         0.96646596E-08      0.19249901E-04     -0.19362870E-16      0.18458433E-11     -0.18566756E-23      0.11454458E-13     -0.51619390E-26
    0.081640588699         0.10494297E-07      0.18505492E-04     -0.24307173E-16      0.18526799E-11     -0.24335160E-23      0.11917396E-13     -0.57700140E-26
    0.084780611341         0.11363267E-07      0.17814487E-04     -0.10950672E-16      0.18596557E-11     -0.11431415E-23      0.12382078E-13     -0.60556565E-26
    0.087920633984         0.12272369E-07      0.17169491E-04     -0.49026489E-17      0.18665841E-11     -0.53299229E-24      0.12848491E-13     -0.61888380E-26
    0.091060656626         0.13222435E-07      0.16567534E-04     -0.21776100E-16      0.18736612E-11     -0.24627102E-23      0.13316672E-13     -0.68042079E-26
    0.094200679268         0.14214328E-07      0.16002612E-04     -0.20894681E-16      0.18806835E-11     -0.24556167E-23      0.13786608E-13     -0.74178053E-26
    0.097340701910         0.15248947E-07      0.15472933E-04     -0.23064373E-16      0.18878634E-11     -0.28141004E-23      0.14258338E-13     -0.81209788E-26
    0.100480724553         0.16327224E-07      0.14973485E-04     -0.29692268E-16      0.18949818E-11     -0.37577295E-23      0.14731846E-13     -0.90599416E-26
    0.103620747195         0.17450124E-07      0.14503302E-04     -0.14959146E-17      0.19022660E-11     -0.19620548E-24      0.15207175E-13     -0.91089685E-26
    0.106760769837         0.18618647E-07      0.14058104E-04      0.33416673E-17      0.19094827E-11      0.45389163E-24      0.15684307E-13     -0.89955523E-26
    0.109900792479         0.19833827E-07      0.13637509E-04     -0.45575606E-17      0.19168728E-11     -0.64060554E-24      0.16163286E-13     -0.91556236E-26
    0.113040815122         0.21096733E-07      0.13237789E-04     -0.63856582E-17      0.19241899E-11     -0.92819267E-24      0.16644093E-13     -0.93875558E-26
    0.116180837764         0.22408470E-07      0.12858982E-04     -0.38818751E-17      0.19316873E-11     -0.58313860E-24      0.17126774E-13     -0.95332676E-26
    0.119320860406         0.23770176E-07      0.12497794E-04     -0.42885530E-17      0.19391077E-11     -0.66539471E-24      0.17611308E-13     -0.96995332E-26
    0.122460883048         0.25183029E-07      0.12154555E-04      0.61432149E-17      0.19467141E-11      0.98391781E-24      0.18097744E-13     -0.94536767E-26
    0.125600905691         0.26648238E-07      0.11826320E-04      0.33896891E-17      0.19542400E-11      0.56012911E-24      0.18586059E-13     -0.93137144E-26
    0.128740928333         0.28167053E-07      0.11513627E-04      0.89909285E-17      0.19619569E-11      0.15320815E-23      0.19076303E-13     -0.89308854E-26
    0.131880950975         0.29740759E-07      0.11213817E-04      0.56581082E-17      0.19695907E-11      0.99378804E-24      0.19568455E-13     -0.86825626E-26
    0.135020973618         0.31370676E-07      0.10927573E-04      0.22067557E-17      0.19774198E-11      0.39932770E-24      0.20062563E-13     -0.85827805E-26
    0.138160996260         0.33058166E-07      0.10652477E-04      0.12901559E-16      0.19851642E-11      0.24042966E-23      0.20558606E-13     -0.79820068E-26
    0.141301018902         0.34804624E-07      0.10389304E-04      0.25614326E-17      0.19931072E-11      0.49139092E-24      0.21056634E-13     -0.78592204E-26
    0.144441041544         0.36611487E-07      0.10135848E-04      0.48744319E-18      0.20009645E-11      0.96228409E-25      0.21556625E-13     -0.78351754E-26
    0.147581064187         0.38480227E-07      0.98929427E-05      0.84043052E-17      0.20090235E-11      0.17067163E-23      0.22058630E-13     -0.74087095E-26
    0.150721086829         0.40412359E-07      0.96585590E-05     -0.11538686E-16      0.20169961E-11     -0.24096230E-23      0.22562627E-13     -0.80108142E-26
    0.153861109471         0.42409432E-07      0.94335697E-05     -0.96869277E-17      0.20251733E-11     -0.20795636E-23      0.23068667E-13     -0.85304453E-26
    0.157001132113         0.44473040E-07      0.92160959E-05     -0.15997130E-17      0.20332630E-11     -0.35293006E-24      0.23576729E-13     -0.86186337E-26
    0.160141154756         0.46604811E-07      0.90070226E-05      0.53556948E-17      0.20415574E-11      0.12139370E-23      0.24086863E-13     -0.83153011E-26
    0.163281177398         0.48806419E-07      0.88046597E-05     -0.32374511E-17      0.20497738E-11     -0.75369664E-24      0.24599050E-13     -0.85036311E-26
    0.166421200040         0.51079573E-07      0.86098156E-05      0.13445587E-16      0.20581878E-11      0.32141854E-23      0.25113340E-13     -0.77004863E-26
    0.169561222683         0.53426027E-07      0.84209680E-05      0.64383782E-17      0.20665261E-11      0.15799937E-23      0.25629714E-13     -0.73056853E-26
    0.172701245325         0.55847574E-07      0.82389166E-05     -0.99271816E-17      0.20750640E-11     -0.25002726E-23      0.26148220E-13     -0.79304411E-26
    0.175841267967         0.58346049E-07      0.80622560E-05      0.43721726E-17      0.20835301E-11      0.11299013E-23      0.26668843E-13     -0.76481069E-26
    0.178981290609         0.60923329E-07      0.78917405E-05      0.15902367E-16      0.20921910E-11      0.42158999E-23      0.27191629E-13     -0.65946587E-26
    0.182121313252         0.63581331E-07      0.77261183E-05      0.11234411E-16      0.21007905E-11      0.30547219E-23      0.27716564E-13     -0.58313598E-26
    0.185261335894         0.66322018E-07      0.75660462E-05      0.18546817E-16      0.21095726E-11      0.51712420E-23      0.28243694E-13     -0.45391954E-26
    0.188401358536         0.69147392E-07      0.74104808E-05      0.92174525E-17      0.21183158E-11      0.26348459E-23      0.28773008E-13     -0.38808131E-26
    0.191541381178         0.72059501E-07      0.72598711E-05     -0.29896734E-17      0.21272086E-11     -0.87600164E-24      0.29304544E-13     -0.40997041E-26
    0.194681403821         0.75060434E-07      0.71135368E-05      0.25969376E-16      0.21361155E-11      0.77983129E-23      0.29838306E-13     -0.21511002E-26
    0.197821426463         0.78152324E-07      0.69715889E-05      0.25279608E-16      0.21451263E-11      0.77784210E-23      0.30374320E-13     -0.20746677E-27
    0.200961449105         0.81337348E-07      0.68334953E-05      0.32103577E-16      0.21541339E-11      0.10120063E-22      0.30912584E-13      0.23212846E-26
    0.204101471747         0.84617728E-07      0.66997765E-05      0.76650847E-17      0.21633564E-11      0.24750542E-23      0.31453153E-13      0.29397389E-26
    0.207241494390         0.87995729E-07      0.65692165E-05      0.14670004E-16      0.21724560E-11      0.48514062E-23      0.31995996E-13      0.41519844E-26
    0.210381517032         0.91473660E-07      0.64428219E-05     -0.17511744E-17      0.21818110E-11     -0.59302145E-24      0.32541176E-13      0.40038031E-26
    0.213521539674         0.95053876E-07      0.63194156E-05      0.58909139E-17      0.21910768E-11      0.20425060E-23      0.33088671E-13      0.45141744E-26
    0.216661562317         0.98738776E-07      0.61997424E-05     -0.97425923E-17      0.22005541E-11     -0.34580633E-23      0.33638535E-13      0.36500907E-26
    0.219801584959         0.10253081E-06      0.60829188E-05     -0.14966492E-17      0.22099788E-11     -0.54374604E-24      0.34190753E-13      0.35142221E-26
    0.222941607601         0.10643245E-06      0.59694954E-05     -0.37852185E-17      0.22195918E-11     -0.14074288E-23      0.34745374E-13      0.31625407E-26
    0.226081630243         0.11044626E-06      0.58587543E-05     -0.45189318E-17      0.22291718E-11     -0.17193886E-23      0.35302389E-13      0.27329084E-26
    0.229221652886         0.11457479E-06      0.57511404E-05     -0.27210800E-17      0.22389271E-11     -0.10593203E-23      0.35861841E-13      0.24682106E-26
    0.232361675528         0.11882069E-06      0.56460451E-05     -0.11263094E-17      0.22486635E-11     -0.44857787E-24      0.36423725E-13      0.23561222E-26
    0.235501698170         0.12318663E-06      0.55438393E-05      0.35157475E-18      0.22585655E-11      0.14323190E-24      0.36988085E-13      0.23919123E-26
    0.238641720812         0.12767532E-06      0.54440000E-05     -0.24552316E-17      0.22684606E-11     -0.10230706E-23      0.37554916E-13      0.21362725E-26
    0.241781743455         0.13228953E-06      0.53468374E-05     -0.20012760E-17      0.22785129E-11     -0.85282806E-24      0.38124260E-13      0.19231720E-26
    0.244921766097         0.13703207E-06      0.52519034E-05     -0.17150737E-17      0.22885695E-11     -0.74736051E-24      0.38696116E-13      0.17364253E-26
    0.248061788739         0.14190580E-06      0.51594545E-05     -0.27043770E-17      0.22987757E-11     -0.12049251E-23      0.39270523E-13      0.14353445E-26
    0.251201811381         0.14691362E-06      0.50691077E-05      0.48764274E-17      0.23089969E-11      0.22212304E-23      0.39847484E-13      0.19903746E-26
    0.254341834024         0.15205849E-06      0.49810721E-05     -0.39178791E-17      0.23193604E-11     -0.18243008E-23      0.40427034E-13      0.15345273E-26
    0.257481856666         0.15734340E-06      0.48950231E-05     -0.14532707E-17      0.23297493E-11     -0.69167324E-24      0.41009180E-13      0.13616954E-26
    0.260621879308         0.16277140E-06      0.48111274E-05     -0.11797949E-17      0.23402735E-11     -0.57388684E-24      0.41593956E-13      0.12182954E-26
    0.263761901951         0.16834557E-06      0.47290467E-05      0.96587017E-18      0.23508005E-11      0.48013230E-24      0.42181363E-13      0.13382685E-26
    0.266901924593         0.17406906E-06      0.46490399E-05      0.47331185E-18      0.23614877E-11      0.24041956E-24      0.42771440E-13      0.13983434E-26
    0.270041947235         0.17994505E-06      0.45708970E-05      0.24827553E-17      0.23722619E-11      0.12885317E-23      0.43364209E-13      0.17203153E-26
    0.273181969877         0.18597676E-06      0.44945531E-05     -0.37896954E-17      0.23831188E-11     -0.20093865E-23      0.43959691E-13      0.12182197E-26
    0.276321992520         0.19216747E-06      0.44199133E-05     -0.17382770E-17      0.23940362E-11     -0.94153389E-24      0.44557901E-13      0.98295390E-27
    0.279462015162         0.19852052E-06      0.43470180E-05     -0.28484500E-17      0.24050638E-11     -0.15759548E-23      0.45158866E-13      0.58916211E-27
    0.282602037804         0.20503926E-06      0.42757518E-05     -0.51862494E-17      0.24161659E-11     -0.29306751E-23      0.45762606E-13     -0.14314051E-27
    0.285742060446         0.21172710E-06      0.42061099E-05     -0.22456110E-17      0.24273670E-11     -0.12959533E-23      0.46369144E-13     -0.46696692E-27
    0.288882083089         0.21858752E-06      0.41380316E-05     -0.46585026E-17      0.24386591E-11     -0.27453874E-23      0.46978504E-13     -0.11529708E-26
    0.292022105731         0.22562402E-06      0.40714615E-05      0.10083016E-17      0.24500360E-11      0.60675394E-24      0.47590707E-13     -0.10013581E-26
    0.295162128373         0.23284014E-06      0.40064021E-05      0.29022783E-17      0.24615252E-11      0.17831538E-23      0.48205781E-13     -0.55579242E-27
    0.298302151016         0.24023948E-06      0.39427358E-05      0.10117545E-18      0.24730803E-11      0.63462282E-25      0.48823742E-13     -0.53993478E-27
    0.301442173658         0.24782569E-06      0.38805344E-05     -0.53915626E-18      0.24847711E-11     -0.34523078E-24      0.49444624E-13     -0.62619934E-27
    0.304582196300         0.25560245E-06      0.38196226E-05      0.12691265E-18      0.24965111E-11      0.82950302E-25      0.50068440E-13     -0.60547213E-27
    0.307722218942         0.26357350E-06      0.37601162E-05     -0.14805410E-17      0.25083994E-11     -0.98767910E-24      0.50695227E-13     -0.85226851E-27
    0.310862241585         0.27174260E-06      0.37018503E-05      0.17881641E-17      0.25203516E-11      0.12174459E-23      0.51325000E-13     -0.54805914E-27
    0.314002264227         0.28011357E-06      0.36448495E-05      0.13945180E-17      0.25324070E-11      0.96889790E-24      0.51957785E-13     -0.30595572E-27
    0.317142286869         0.28869027E-06      0.35891195E-05      0.13293043E-17      0.25445938E-11      0.94244266E-24      0.52593616E-13     -0.70462803E-28
    0.320282309511         0.29747662E-06      0.35345475E-05     -0.17534637E-17      0.25568558E-11     -0.12684378E-23      0.53232510E-13     -0.38741379E-27
    0.323422332154         0.30647655E-06      0.34811342E-05     -0.48100391E-17      0.25692155E-11     -0.35500003E-23      0.53874493E-13     -0.12744703E-26
    0.326562354796         0.31569405E-06      0.34289186E-05     -0.35973371E-17      0.25817250E-11     -0.27085318E-23      0.54519602E-13     -0.19512649E-26
    0.329702377438         0.32513315E-06      0.33777216E-05      0.10115773E-17      0.25942723E-11      0.77694595E-24      0.55167846E-13     -0.17571255E-26
    0.332842400080         0.33479793E-06      0.33277165E-05     -0.30381568E-17      0.26070117E-11     -0.23801637E-23      0.55819273E-13     -0.23518690E-26
    0.335982422723         0.34469248E-06      0.32786496E-05     -0.12718468E-17      0.26197678E-11     -0.10162548E-23      0.56473888E-13     -0.26058058E-26
    0.339122445365         0.35482098E-06      0.32307389E-05     -0.21104910E-17      0.26327350E-11     -0.17198430E-23      0.57131742E-13     -0.30355516E-26
    0.342262468007         0.36518760E-06      0.31837042E-05     -0.43469719E-17      0.26457085E-11     -0.36124023E-23      0.57792839E-13     -0.39382009E-26
    0.345402490650         0.37579657E-06      0.31377875E-05     -0.20418663E-17      0.26589086E-11     -0.17302433E-23      0.58457234E-13     -0.43705456E-26
    0.348542513292         0.38665215E-06      0.30926893E-05     -0.21030279E-17      0.26721050E-11     -0.18170307E-23      0.59124926E-13     -0.48245762E-26
    0.351682535934         0.39775867E-06      0.30486742E-05     -0.36096216E-17      0.26855448E-11     -0.31796774E-23      0.59795977E-13     -0.56190983E-26
    0.354822558576         0.40912044E-06      0.30054218E-05     -0.30138214E-17      0.26989692E-11     -0.27065123E-23      0.60470382E-13     -0.62953883E-26
    0.357962581219         0.42074186E-06      0.29632216E-05     -0.28160969E-17      0.27126562E-11     -0.25779722E-23      0.61148207E-13     -0.69395592E-26
    0.361102603861         0.43262732E-06      0.29217294E-05     -0.31459329E-17      0.27263138E-11     -0.29355218E-23      0.61829445E-13     -0.76730729E-26
    0.364242626503         0.44478129E-06      0.28812629E-05     -0.18242142E-17      0.27402562E-11     -0.17349386E-23      0.62514167E-13     -0.81065908E-26
    0.367382649145         0.45720823E-06      0.28414500E-05      0.68671996E-18      0.27541523E-11      0.66562190E-24      0.63202361E-13     -0.79402685E-26
    0.370522671788         0.46991265E-06      0.28026415E-05      0.93453749E-18      0.27683592E-11      0.92310610E-24      0.63894105E-13     -0.77096073E-26
    0.373662694430         0.48289911E-06      0.27644311E-05     -0.73312788E-18      0.27824987E-11     -0.73791942E-24      0.64589382E-13     -0.78939950E-26
    0.376802717072         0.49617218E-06      0.27272096E-05     -0.21353989E-17      0.27969805E-11     -0.21900293E-23      0.65288277E-13     -0.84412287E-26
    0.379942739715         0.50973645E-06      0.26905289E-05     -0.23018238E-17      0.28113683E-11     -0.24052053E-23      0.65990768E-13     -0.90422295E-26
    0.383082762357         0.52359657E-06      0.26548281E-05     -0.30716431E-17      0.28261365E-11     -0.32698474E-23      0.66696949E-13     -0.98592828E-26
