 
 # Omega; pulse ft; projected flux at t=    1000.25000000000     
    0.000000000000         0.18717486E-09      0.00000000E+00      0.00000000E+00      0.60575824E-13     -0.96935228E-26
    0.003140022642         0.20186436E-09      0.25073079E-05     -0.48902632E-18      0.62770718E-13     -0.12242825E-25
    0.006280045285         0.24594737E-09      0.44322419E-05     -0.97659416E-18      0.67596688E-13     -0.14894162E-25
    0.009420067927         0.31946741E-09      0.52196675E-05     -0.80767428E-18      0.68934704E-13     -0.10666731E-25
    0.012560090569         0.42249703E-09      0.53464989E-05     -0.14881894E-17      0.70036254E-13     -0.19494479E-25
    0.015700113211         0.55513782E-09      0.51504543E-05     -0.11557641E-17      0.70919574E-13     -0.15914381E-25
    0.018840135854         0.71752051E-09      0.48350166E-05     -0.14438612E-17      0.71708527E-13     -0.21414024E-25
    0.021980158496         0.90980495E-09      0.44987262E-05     -0.13665221E-17      0.72515289E-13     -0.22027067E-25
    0.025120181138         0.11321802E-08      0.41717988E-05     -0.19757878E-17      0.73221513E-13     -0.34678128E-25
    0.028260203780         0.13848647E-08      0.38791625E-05      0.13605256E-18      0.74027411E-13      0.25963385E-26
    0.031400226423         0.16681061E-08      0.36075641E-05     -0.20615944E-18      0.74632412E-13     -0.42649765E-26
    0.034540249065         0.19821816E-08      0.33720195E-05     -0.69845732E-18      0.75358214E-13     -0.15609191E-25
    0.037680271707         0.23273981E-08      0.31585532E-05     -0.54605387E-18      0.75974418E-13     -0.13134534E-25
    0.040820294349         0.27040919E-08      0.29726525E-05     -0.49491641E-18      0.76685281E-13     -0.12767319E-25
    0.043960316992         0.31126296E-08      0.28045164E-05     -0.42984442E-18      0.77329848E-13     -0.11852241E-25
    0.047100339634         0.35534072E-08      0.26567765E-05     -0.12840044E-18      0.78054602E-13     -0.37723328E-26
    0.050240362276         0.40268513E-08      0.25220303E-05     -0.25140795E-18      0.78720107E-13     -0.78471939E-26
    0.053380384919         0.45334185E-08      0.24026873E-05     -0.61565670E-18      0.79462809E-13     -0.20361289E-25
    0.056520407561         0.50735959E-08      0.22926731E-05      0.16223172E-18      0.80144785E-13      0.56711210E-26
    0.059660430203         0.56479014E-08      0.21946379E-05     -0.27534129E-18      0.80907007E-13     -0.10150668E-25
    0.062800452845         0.62568834E-08      0.21031880E-05     -0.36256231E-18      0.81601084E-13     -0.14066968E-25
    0.065940475488         0.69011217E-08      0.20214696E-05     -0.69411699E-18      0.82386751E-13     -0.28289341E-25
    0.069080498130         0.75812269E-08      0.19436124E-05     -0.80505352E-18      0.83064650E-13     -0.34405774E-25
    0.072220520772         0.82978416E-08      0.18738640E-05     -0.76442979E-18      0.83842675E-13     -0.34203037E-25
    0.075360543414         0.90516395E-08      0.18064605E-05     -0.35183594E-18      0.84495630E-13     -0.16456822E-25
    0.078500566057         0.98433265E-08      0.17452604E-05     -0.72771311E-18      0.85222032E-13     -0.35534634E-25
    0.081640588699         0.10673641E-07      0.16875065E-05     -0.74288881E-18      0.85916080E-13     -0.37822725E-25
    0.084780611341         0.11543353E-07      0.16338871E-05     -0.20524102E-18      0.86632333E-13     -0.10882336E-25
    0.087920633984         0.12453265E-07      0.15836725E-05     -0.25413992E-19      0.87353509E-13     -0.14018058E-26
    0.091060656626         0.13404215E-07      0.15355405E-05     -0.37702513E-18      0.88022648E-13     -0.21612422E-25
    0.094200679268         0.14397070E-07      0.14935630E-05     -0.16826373E-18      0.88892716E-13     -0.10014589E-25
    0.097340701910         0.15432734E-07      0.14518542E-05     -0.33034979E-18      0.89638371E-13     -0.20395999E-25
    0.100480724553         0.16512144E-07      0.14161876E-05     -0.38113834E-18      0.90628340E-13     -0.24390790E-25
    0.103620747195         0.17636269E-07      0.13803639E-05      0.36907929E-19      0.91490525E-13      0.24462577E-26
    0.106760769837         0.18806114E-07      0.13488876E-05     -0.34775413E-19      0.92530664E-13     -0.23855154E-26
    0.109900792479         0.20022721E-07      0.13175930E-05     -0.14799045E-19      0.93481589E-13     -0.10499739E-26
    0.113040815122         0.21287162E-07      0.12891461E-05     -0.15544017E-18      0.94538164E-13     -0.11399040E-25
    0.116180837764         0.22600547E-07      0.12613315E-05     -0.23721774E-18      0.95551216E-13     -0.17970251E-25
    0.119320860406         0.23964023E-07      0.12351206E-05     -0.26241687E-18      0.96599585E-13     -0.20523794E-25
    0.122460883048         0.25378770E-07      0.12098324E-05      0.10656409E-18      0.97638463E-13      0.86001616E-26
    0.125600905691         0.26846007E-07      0.11856403E-05     -0.18661076E-19      0.98687561E-13     -0.15532671E-26
    0.128740928333         0.28366986E-07      0.11623845E-05     -0.65503755E-19      0.99739896E-13     -0.56206339E-26
    0.131880950975         0.29943001E-07      0.11401596E-05     -0.19794460E-18      0.10080949E-12     -0.17501668E-25
    0.135020973618         0.31575378E-07      0.11187440E-05     -0.34215010E-18      0.10188273E-12     -0.31159217E-25
    0.138160996260         0.33265483E-07      0.10983196E-05     -0.50804079E-18      0.10298160E-12     -0.47635366E-25
    0.141301018902         0.35014721E-07      0.10785710E-05     -0.91671232E-19      0.10408225E-12     -0.88462862E-26
    0.144441041544         0.36824533E-07      0.10597414E-05     -0.17588565E-18      0.10521293E-12     -0.17462225E-25
    0.147581064187         0.38696400E-07      0.10414718E-05     -0.95860512E-19      0.10634326E-12     -0.97881861E-26
    0.150721086829         0.40631842E-07      0.10240616E-05     -0.12209147E-18      0.10750808E-12     -0.12817412E-25
    0.153861109471         0.42632417E-07      0.10071035E-05     -0.34419397E-18      0.10866952E-12     -0.37139571E-25
    0.157001132113         0.44699723E-07      0.99097594E-06     -0.38075293E-18      0.10987217E-12     -0.42215102E-25
    0.160141154756         0.46835399E-07      0.97519265E-06     -0.38649228E-19      0.11106679E-12     -0.44018439E-26
    0.163281177398         0.49041122E-07      0.96023492E-06     -0.48763168E-19      0.11231152E-12     -0.57034643E-26
    0.166421200040         0.51318613E-07      0.94551708E-06     -0.77463855E-19      0.11354243E-12     -0.93022478E-26
    0.169561222683         0.53669630E-07      0.93162986E-06     -0.88357557E-19      0.11483334E-12     -0.10891014E-25
    0.172701245325         0.56095974E-07      0.91788735E-06     -0.10688132E-18      0.11610426E-12     -0.13519498E-25
    0.175841267967         0.58599489E-07      0.90497428E-06     -0.10328788E-18      0.11744426E-12     -0.13404325E-25
    0.178981290609         0.61182058E-07      0.89213417E-06     -0.10253160E-18      0.11875972E-12     -0.13648871E-25
    0.182121313252         0.63845608E-07      0.88011462E-06     -0.62822770E-19      0.12015228E-12     -0.85764958E-26
    0.185261335894         0.66592107E-07      0.86810152E-06     -0.86247176E-19      0.12151532E-12     -0.12072727E-25
    0.188401358536         0.69423567E-07      0.85690765E-06     -0.18482159E-18      0.12296442E-12     -0.26521504E-25
    0.191541381178         0.72342043E-07      0.84565856E-06     -0.13296161E-18      0.12437862E-12     -0.19555862E-25
    0.194681403821         0.75349631E-07      0.83522507E-06     -0.13404935E-18      0.12588753E-12     -0.20204306E-25
    0.197821426463         0.78448474E-07      0.82468718E-06     -0.56292212E-20      0.12735704E-12     -0.86932472E-27
    0.200961449105         0.81640757E-07      0.81495361E-06     -0.81008403E-19      0.12892873E-12     -0.12815834E-25
    0.204101471747         0.84928709E-07      0.80507919E-06     -0.10459841E-18      0.13045764E-12     -0.16949465E-25
    0.207241494390         0.88314602E-07      0.79599142E-06      0.51547974E-19      0.13209511E-12      0.85544077E-26
    0.210381517032         0.91800755E-07      0.78673571E-06     -0.41066355E-19      0.13368728E-12     -0.69782636E-26
    0.213521539674         0.95389531E-07      0.77824808E-06      0.95149639E-19      0.13539406E-12      0.16553457E-25
    0.216661562317         0.99083337E-07      0.76957292E-06     -0.10411203E-18      0.13705380E-12     -0.18541387E-25
    0.219801584959         0.10288463E-06      0.76164463E-06     -0.56606457E-20      0.13883360E-12     -0.10318301E-26
    0.222941607601         0.10679590E-06      0.75351559E-06     -0.87248061E-19      0.14056533E-12     -0.16275778E-25
    0.226081630243         0.11081969E-06      0.74611028E-06     -0.11987925E-18      0.14242205E-12     -0.22883277E-25
    0.229221652886         0.11495860E-06      0.73849613E-06     -0.14993397E-18      0.14423033E-12     -0.29282517E-25
    0.232361675528         0.11921526E-06      0.73158200E-06     -0.10246638E-18      0.14616820E-12     -0.20472518E-25
    0.235501698170         0.12359235E-06      0.72445449E-06     -0.51939329E-19      0.14805776E-12     -0.10614912E-25
    0.238641720812         0.12809259E-06      0.71800298E-06     -0.24395044E-19      0.15008125E-12     -0.50991969E-26
    0.241781743455         0.13271877E-06      0.71133720E-06     -0.88701558E-19      0.15205717E-12     -0.18961061E-25
    0.244921766097         0.13747370E-06      0.70532363E-06     -0.18677244E-18      0.15417118E-12     -0.40825130E-25
    0.248061788739         0.14236024E-06      0.69909670E-06     -0.16736859E-18      0.15623871E-12     -0.37404629E-25
    0.251201811381         0.14738131E-06      0.69349993E-06     -0.20857041E-18      0.15844868E-12     -0.47653510E-25
    0.254341834024         0.15253987E-06      0.68769164E-06     -0.98316106E-19      0.16061344E-12     -0.22962163E-25
    0.257481856666         0.15783893E-06      0.68249324E-06     -0.52832910E-19      0.16292525E-12     -0.12612308E-25
    0.260621879308         0.16328153E-06      0.67708553E-06     -0.12894570E-18      0.16519324E-12     -0.31459773E-25
    0.263761901951         0.16887077E-06      0.67227014E-06      0.69506590E-19      0.16761342E-12      0.17329696E-25
    0.266901924593         0.17460981E-06      0.66724665E-06      0.11725553E-18      0.16999098E-12      0.29872585E-25
    0.270041947235         0.18050182E-06      0.66280091E-06      0.40391736E-19      0.17252657E-12      0.10513938E-25
    0.273181969877         0.18655005E-06      0.65814801E-06     -0.43238729E-19      0.17502071E-12     -0.11498437E-25
    0.276321992520         0.19275778E-06      0.65405852E-06     -0.70297574E-19      0.17767880E-12     -0.19096745E-25
    0.279462015162         0.19912834E-06      0.64976449E-06     -0.12538500E-18      0.18029713E-12     -0.34791921E-25
    0.282602037804         0.20566511E-06      0.64599390E-06     -0.17661918E-18      0.18307805E-12     -0.50054802E-25
    0.285742060446         0.21237151E-06      0.64200373E-06     -0.17447948E-18      0.18581560E-12     -0.50499720E-25
    0.288882083089         0.21925100E-06      0.63864418E-06     -0.23220746E-18      0.18875674E-12     -0.68630899E-25
    0.292022105731         0.22630710E-06      0.63502328E-06     -0.30217134E-19      0.19164374E-12     -0.91192321E-26
    0.295162128373         0.23354337E-06      0.63200437E-06     -0.24383182E-19      0.19473747E-12     -0.75131113E-26
    0.298302151016         0.24096340E-06      0.62872818E-06     -0.59062385E-19      0.19777900E-12     -0.18579252E-25
    0.301442173658         0.24857086E-06      0.62603638E-06     -0.32426914E-20      0.20103345E-12     -0.10412964E-26
    0.304582196300         0.25636942E-06      0.62307733E-06     -0.19080064E-19      0.20423314E-12     -0.62540893E-26
    0.307722218942         0.26436283E-06      0.62073253E-06     -0.71814015E-19      0.20766753E-12     -0.24025548E-25
    0.310862241585         0.27255487E-06      0.61809987E-06      0.77630288E-21      0.21104116E-12      0.26505726E-27
    0.314002264227         0.28094936E-06      0.61608438E-06      0.54336777E-22      0.21466340E-12      0.18932662E-28
    0.317142286869         0.28955016E-06      0.61375027E-06     -0.56054483E-19      0.21821465E-12     -0.19929782E-25
    0.320282309511         0.29836118E-06      0.61208438E-06     -0.59304208E-19      0.22204613E-12     -0.21513815E-25
    0.323422332154         0.30738639E-06      0.61005394E-06     -0.54819394E-19      0.22579037E-12     -0.20289502E-25
    0.326562354796         0.31662976E-06      0.60875364E-06     -0.13107175E-18      0.22985276E-12     -0.49489978E-25
    0.329702377438         0.32609534E-06      0.60703076E-06     -0.47450842E-19      0.23380605E-12     -0.18276329E-25
    0.332842400080         0.33578719E-06      0.60610338E-06     -0.32448436E-19      0.23811937E-12     -0.12747992E-25
    0.335982422723         0.34570944E-06      0.60467771E-06     -0.32475949E-19      0.24229318E-12     -0.13013049E-25
    0.339122445365         0.35586624E-06      0.60414917E-06     -0.72938289E-19      0.24688629E-12     -0.29806320E-25
    0.342262468007         0.36626178E-06      0.60301144E-06     -0.70827666E-19      0.25129301E-12     -0.29516020E-25
    0.345402490650         0.37690029E-06      0.60288077E-06     -0.98197339E-19      0.25618576E-12     -0.41727586E-25
    0.348542513292         0.38778604E-06      0.60205949E-06     -0.44702143E-19      0.26085452E-12     -0.19368113E-25
    0.351682535934         0.39892335E-06      0.60233981E-06     -0.72990296E-19      0.26607420E-12     -0.32242323E-25
    0.354822558576         0.41031655E-06      0.60182309E-06     -0.11775909E-18      0.27101866E-12     -0.53030385E-25
    0.357962581219         0.42197002E-06      0.60255061E-06     -0.93812979E-19      0.27660501E-12     -0.43065495E-25
    0.361102603861         0.43388818E-06      0.60233380E-06     -0.94180874E-19      0.28184282E-12     -0.44068926E-25
    0.364242626503         0.44607547E-06      0.60353936E-06     -0.97472480E-19      0.28783640E-12     -0.46485995E-25
    0.367382649145         0.45853638E-06      0.60362134E-06      0.10569079E-19      0.29338796E-12      0.51370622E-26
    0.370522671788         0.47127541E-06      0.60534056E-06     -0.21201237E-19      0.29983499E-12     -0.10501316E-25
    0.373662694430         0.48429711E-06      0.60571952E-06     -0.65906577E-19      0.30572169E-12     -0.33264687E-25
    0.376802717072         0.49760605E-06      0.60799395E-06     -0.72769760E-19      0.31267520E-12     -0.37423561E-25
    0.379942739715         0.51120685E-06      0.60866664E-06     -0.99005923E-20      0.31891912E-12     -0.51875493E-26
    0.383082762357         0.52510413E-06      0.61154691E-06     -0.41284714E-19      0.32644133E-12     -0.22037618E-25
    0.386222784999         0.53930256E-06      0.61250582E-06     -0.92613901E-19      0.33306374E-12     -0.50360880E-25
    0.389362807641         0.55380682E-06      0.61605144E-06     -0.63417227E-19      0.34122697E-12     -0.35126398E-25
    0.392502830284         0.56862162E-06      0.61728493E-06     -0.12676340E-18      0.34824813E-12     -0.71514974E-25
    0.395642852926         0.58375171E-06      0.62156889E-06     -0.47712575E-19      0.35713848E-12     -0.27414494E-25
    0.398782875568         0.59920184E-06      0.62305562E-06     -0.18270257E-19      0.36457426E-12     -0.10690643E-25
    0.401922898210         0.61497679E-06      0.62816171E-06     -0.35819993E-19      0.37429151E-12     -0.21343421E-25
    0.405062920853         0.63108138E-06      0.62987673E-06     -0.49803417E-19      0.38215627E-12     -0.30216528E-25
    0.408202943495         0.64752043E-06      0.63590769E-06     -0.41007935E-19      0.39282033E-12     -0.25331901E-25
    0.411342966137         0.66429877E-06      0.63779993E-06     -0.65547281E-19      0.40111267E-12     -0.41222715E-25
    0.414482988779         0.68142128E-06      0.64488029E-06     -0.36984668E-19      0.41286743E-12     -0.23678449E-25
    0.417623011422         0.69889282E-06      0.64687571E-06     -0.55429549E-19      0.42156985E-12     -0.36123519E-25
    0.420763034064         0.71671828E-06      0.65515151E-06     -0.60470124E-19      0.43458546E-12     -0.40111999E-25
    0.423903056706         0.73490258E-06      0.65714099E-06     -0.37783393E-19      0.44365392E-12     -0.25508606E-25
    0.427043079349         0.75345064E-06      0.66677590E-06     -0.36666993E-19      0.45812665E-12     -0.25193062E-25
    0.430183101991         0.77236737E-06      0.66859663E-06     -0.62333840E-19      0.46747382E-12     -0.43582987E-25
    0.433323124633         0.79165771E-06      0.67975489E-06     -0.38000714E-19      0.48361578E-12     -0.27035841E-25
    0.436463147275         0.81132662E-06      0.68117961E-06     -0.45682622E-19      0.49309696E-12     -0.33069049E-25
    0.439603169918         0.83137904E-06      0.69395474E-06     -0.56812402E-19      0.51108360E-12     -0.41841182E-25
    0.442743192560         0.85181993E-06      0.69472318E-06     -0.17654818E-19      0.52051139E-12     -0.13227620E-25
    0.445883215202         0.87265424E-06      0.70886086E-06     -0.24344123E-19      0.54026225E-12     -0.18554008E-25
    0.449023237844         0.89388696E-06      0.70896950E-06     -0.39237482E-19      0.54962171E-12     -0.30418477E-25
    0.452163260487         0.91552302E-06      0.72267145E-06     -0.22570594E-19      0.56981967E-12     -0.17796702E-25
    0.455303283129         0.93756741E-06      0.72436234E-06     -0.83546271E-19      0.58087158E-12     -0.66996379E-25
    0.458443305771         0.96002506E-06      0.72748075E-06     -0.10982837E-18      0.59325442E-12     -0.89564112E-25
    0.461583328413         0.98290095E-06      0.75311978E-06     -0.53638192E-19      0.62451984E-12     -0.44479133E-25
    0.464723351056         0.10062000E-05      0.65875798E-06     -0.76254766E-19      0.55544141E-12     -0.64295319E-25
    0.467863373698         0.10299272E-05      0.11128478E-05     -0.11613879E-18      0.95399433E-12     -0.99560557E-25
    0.471003396340         0.10540874E-05     -0.13784272E-05      0.44316628E-19     -0.12013207E-11      0.38622630E-25
    0.474143418983         0.10786856E-05     -0.21864748E-06      0.22352992E-19     -0.19371006E-12      0.19803564E-25
    0.477283441625         0.11037267E-05      0.19914766E-05     -0.91942549E-20      0.17934238E-11     -0.82798841E-26
    0.480423464267         0.11292155E-05      0.89409827E-06     -0.36514321E-19      0.81839020E-12     -0.33422459E-25
    0.483563486909         0.11551570E-05      0.11678046E-05     -0.88570789E-19      0.10863762E-11     -0.82394944E-25
    0.486703509552         0.11815559E-05      0.10085277E-05     -0.10616575E-18      0.95345500E-12     -0.10036835E-24
    0.489843532194         0.12084172E-05      0.11123351E-05     -0.24542297E-19      0.10686062E-11     -0.23577475E-25
    0.492983554836         0.12357457E-05      0.10598921E-05     -0.20688128E-19      0.10346200E-11     -0.20194839E-25
    0.496123577478         0.12635461E-05      0.11445233E-05     -0.65921400E-19      0.11351373E-11     -0.65380792E-25
    0.499263600121         0.12918231E-05      0.11151844E-05     -0.36376535E-19      0.11236793E-11     -0.36653633E-25
    0.502403622763         0.13205817E-05      0.12097144E-05     -0.39704639E-19      0.12382773E-11     -0.40642114E-25
    0.505543645405         0.13498263E-05      0.11779624E-05     -0.52585631E-19      0.12248226E-11     -0.54677527E-25
    0.508683668048         0.13795618E-05      0.12991674E-05     -0.17352863E-18      0.13720850E-11     -0.18326817E-24
