 
 # eight columns.
 # Omega (column 1); |pulse ft|^2 (2); cross section (Mb) (3); flux (5); flux in
 tegral domega (7)
 
  0.0000      0.642850E-11      0.000000E+00      0.000000E+00      0.000000E+00      0.000000E+00      0.000000E+00      0.000000E+00
  0.0031      0.212452E-10      0.482859E-01     -0.797640E-10      0.202484E-10     -0.334485E-19      0.635804E-13     -0.105029E-21
  0.0063      0.657097E-10      0.823503E-01     -0.679952E-10      0.534041E-10     -0.440948E-19      0.231270E-12     -0.243488E-21
  0.0094      0.139866E-09      0.695444E-01     -0.556243E-11      0.639973E-10     -0.511875E-20      0.432223E-12     -0.259561E-21
  0.0126      0.243786E-09      0.546013E-01     -0.938118E-11      0.656843E-10     -0.112854E-19      0.638474E-12     -0.294997E-21
  0.0157      0.377573E-09      0.452114E-01     -0.136928E-10      0.673889E-10     -0.204096E-19      0.850076E-12     -0.359084E-21
  0.0188      0.541356E-09      0.384662E-01     -0.328434E-11      0.685048E-10     -0.584911E-20      0.106518E-11     -0.377450E-21
  0.0220      0.735298E-09      0.335870E-01     -0.338722E-11      0.696380E-10     -0.702294E-20      0.128385E-11     -0.399502E-21
  0.0251      0.959587E-09      0.298289E-01     -0.681517E-11      0.706223E-10     -0.161355E-19      0.150560E-11     -0.450168E-21
  0.0283      0.121444E-08      0.268915E-01      0.119438E-11      0.716240E-10      0.318117E-20      0.173050E-11     -0.440179E-21
  0.0314      0.150011E-08      0.245279E-01     -0.621535E-12      0.726262E-10     -0.184035E-20      0.195855E-11     -0.445958E-21
  0.0345      0.181688E-08      0.225895E-01     -0.134619E-11      0.736460E-10     -0.438882E-20      0.218980E-11     -0.459739E-21
  0.0377      0.216504E-08      0.209666E-01     -0.172600E-12      0.746658E-10     -0.614660E-21      0.242425E-11     -0.461669E-21
  0.0408      0.254494E-08      0.195919E-01     -0.332137E-12      0.757044E-10     -0.128340E-20      0.266197E-11     -0.465699E-21
  0.0440      0.295695E-08      0.184090E-01     -0.150540E-11      0.767461E-10     -0.627594E-20      0.290295E-11     -0.485405E-21
  0.0471      0.340146E-08      0.173835E-01      0.512522E-12      0.778076E-10      0.229402E-20      0.314727E-11     -0.478202E-21
  0.0502      0.387890E-08      0.164844E-01     -0.100633E-13      0.788809E-10     -0.481548E-22      0.339496E-11     -0.478353E-21
  0.0534      0.438974E-08      0.156913E-01     -0.108826E-11      0.799755E-10     -0.554665E-20      0.364608E-11     -0.495770E-21
  0.0565      0.493445E-08      0.149859E-01      0.160843E-12      0.810886E-10      0.870316E-21      0.390070E-11     -0.493037E-21
  0.0597      0.551355E-08      0.143553E-01      0.624780E-13      0.822242E-10      0.357861E-21      0.415889E-11     -0.491913E-21
  0.0628      0.612761E-08      0.137878E-01     -0.556418E-12      0.833806E-10     -0.336490E-20      0.442071E-11     -0.502479E-21
  0.0659      0.677720E-08      0.132749E-01     -0.434166E-12      0.845616E-10     -0.276565E-20      0.468623E-11     -0.511163E-21
  0.0691      0.746292E-08      0.128094E-01     -0.860720E-12      0.857680E-10     -0.576312E-20      0.495554E-11     -0.529260E-21
  0.0722      0.818544E-08      0.123835E-01     -0.643646E-12      0.869896E-10     -0.452138E-20      0.522869E-11     -0.543457E-21
  0.0754      0.894542E-08      0.119929E-01     -0.187897E-12      0.882316E-10     -0.138235E-20      0.550574E-11     -0.547797E-21
  0.0785      0.974356E-08      0.116366E-01     -0.543135E-12      0.895189E-10     -0.417826E-20      0.578683E-11     -0.560917E-21
  0.0816      0.105806E-07      0.113113E-01     -0.469018E-12      0.908575E-10     -0.376736E-20      0.607213E-11     -0.572747E-21
  0.0848      0.114574E-07      0.110099E-01     -0.336799E-13      0.922177E-10     -0.282099E-21      0.636169E-11     -0.573633E-21
  0.0879      0.123746E-07      0.107323E-01     -0.389421E-12      0.936215E-10     -0.339706E-20      0.665567E-11     -0.584300E-21
  0.0911      0.133332E-07      0.104745E-01     -0.378073E-12      0.950556E-10     -0.343101E-20      0.695415E-11     -0.595073E-21
  0.0942      0.143340E-07      0.102337E-01      0.557445E-13      0.965135E-10      0.525722E-21      0.725720E-11     -0.593422E-21
  0.0973      0.153778E-07      0.100093E-01     -0.118362E-12      0.980045E-10     -0.115893E-20      0.756494E-11     -0.597061E-21
  0.1005      0.164658E-07      0.979647E-02     -0.254216E-12      0.994973E-10     -0.258193E-20      0.787736E-11     -0.605169E-21
  0.1036      0.175987E-07      0.959719E-02      0.127407E-12      0.101023E-09      0.134112E-20      0.819457E-11     -0.600957E-21
  0.1068      0.187777E-07      0.940822E-02      0.854462E-14      0.102561E-09      0.931464E-22      0.851662E-11     -0.600665E-21
  0.1099      0.200038E-07      0.923104E-02     -0.954850E-13      0.104137E-09     -0.107718E-20      0.884361E-11     -0.604047E-21
  0.1130      0.212780E-07      0.906393E-02      0.145472E-13      0.105744E-09      0.169714E-21      0.917565E-11     -0.603514E-21
  0.1162      0.226014E-07      0.890686E-02     -0.110554E-12      0.107391E-09     -0.133297E-20      0.951286E-11     -0.607700E-21
  0.1193      0.239753E-07      0.875907E-02     -0.208753E-12      0.109081E-09     -0.259970E-20      0.985537E-11     -0.615863E-21
  0.1225      0.254008E-07      0.861990E-02      0.325549E-13      0.110814E-09      0.418514E-21      0.102033E-10     -0.614549E-21
  0.1256      0.268792E-07      0.848920E-02     -0.157163E-13      0.112598E-09     -0.208457E-21      0.105569E-10     -0.615204E-21
  0.1287      0.284116E-07      0.836593E-02     -0.451103E-13      0.114429E-09     -0.617017E-21      0.109162E-10     -0.617141E-21
  0.1319      0.299994E-07      0.824981E-02     -0.121808E-13      0.116310E-09     -0.171731E-21      0.112814E-10     -0.617680E-21
  0.1350      0.316439E-07      0.814019E-02     -0.192024E-12      0.118240E-09     -0.278924E-20      0.116527E-10     -0.626438E-21
  0.1382      0.333465E-07      0.803660E-02     -0.271072E-12      0.120221E-09     -0.405501E-20      0.120302E-10     -0.639171E-21
  0.1413      0.351086E-07      0.793878E-02     -0.161175E-13      0.122254E-09     -0.248204E-21      0.124141E-10     -0.639951E-21
  0.1444      0.369316E-07      0.784623E-02     -0.431597E-13      0.124340E-09     -0.683957E-21      0.128045E-10     -0.642098E-21
  0.1476      0.388171E-07      0.775885E-02     -0.667527E-13      0.126483E-09     -0.108819E-20      0.132017E-10     -0.645515E-21
  0.1507      0.407666E-07      0.767619E-02     -0.695996E-13      0.128682E-09     -0.116676E-20      0.136057E-10     -0.649179E-21
  0.1539      0.427815E-07      0.759820E-02     -0.336376E-13      0.130943E-09     -0.579689E-21      0.140169E-10     -0.650999E-21
  0.1570      0.448636E-07      0.752444E-02     -0.158355E-12      0.133263E-09     -0.280457E-20      0.144353E-10     -0.659806E-21
  0.1601      0.470145E-07      0.745495E-02     -0.734189E-14      0.135649E-09     -0.133592E-21      0.148613E-10     -0.660225E-21
  0.1633      0.492358E-07      0.738928E-02     -0.506556E-14      0.138099E-09     -0.946707E-22      0.152949E-10     -0.660522E-21
  0.1664      0.515293E-07      0.732753E-02     -0.923767E-13      0.140620E-09     -0.177276E-20      0.157365E-10     -0.666089E-21
  0.1696      0.538968E-07      0.726927E-02      0.239428E-13      0.143209E-09      0.471687E-21      0.161861E-10     -0.664608E-21
  0.1727      0.563400E-07      0.721461E-02     -0.461215E-13      0.145874E-09     -0.932540E-21      0.166442E-10     -0.667536E-21
  0.1758      0.588609E-07      0.716321E-02     -0.691821E-13      0.148613E-09     -0.143530E-20      0.171108E-10     -0.672043E-21
  0.1790      0.614613E-07      0.711516E-02      0.938157E-14      0.151433E-09      0.199670E-21      0.175863E-10     -0.671416E-21
  0.1821      0.641431E-07      0.707008E-02     -0.478741E-13      0.154332E-09     -0.104504E-20      0.180710E-10     -0.674697E-21
  0.1853      0.669083E-07      0.702825E-02     -0.761065E-13      0.157321E-09     -0.170357E-20      0.185649E-10     -0.680047E-21
  0.1884      0.697590E-07      0.698917E-02     -0.178964E-13      0.160393E-09     -0.410700E-21      0.190686E-10     -0.681336E-21
  0.1915      0.726972E-07      0.695320E-02     -0.472481E-13      0.163562E-09     -0.111143E-20      0.195822E-10     -0.684826E-21
  0.1947      0.757251E-07      0.691985E-02     -0.628390E-13      0.166822E-09     -0.151491E-20      0.201060E-10     -0.689583E-21
  0.1978      0.788447E-07      0.688946E-02      0.472427E-14      0.170187E-09      0.116701E-21      0.206404E-10     -0.689216E-21
  0.2010      0.820582E-07      0.686159E-02     -0.281896E-13      0.173651E-09     -0.713413E-21      0.211857E-10     -0.691457E-21
  0.2041      0.853680E-07      0.683660E-02     -0.424764E-13      0.177228E-09     -0.110113E-20      0.217422E-10     -0.694914E-21
  0.2072      0.887763E-07      0.681404E-02      0.238505E-13      0.180912E-09      0.633228E-21      0.223102E-10     -0.692926E-21
  0.2104      0.922854E-07      0.679431E-02      0.253873E-14      0.184720E-09      0.690216E-22      0.228902E-10     -0.692709E-21
  0.2135      0.958977E-07      0.677695E-02     -0.620490E-14      0.188644E-09     -0.172721E-21      0.234826E-10     -0.693251E-21
  0.2167      0.996156E-07      0.676237E-02     -0.226895E-13      0.192702E-09     -0.646565E-21      0.240877E-10     -0.695282E-21
  0.2198      0.103442E-06      0.675015E-02     -0.343064E-13      0.196888E-09     -0.100065E-20      0.247059E-10     -0.698424E-21
  0.2229      0.107378E-06      0.674069E-02     -0.379785E-13      0.201221E-09     -0.113372E-20      0.253378E-10     -0.701984E-21
  0.2261      0.111428E-06      0.673359E-02     -0.303822E-13      0.205693E-09     -0.928091E-21      0.259836E-10     -0.704898E-21
  0.2292      0.115594E-06      0.672927E-02     -0.437744E-13      0.210324E-09     -0.136817E-20      0.266441E-10     -0.709194E-21
  0.2324      0.119877E-06      0.672732E-02     -0.397203E-13      0.215109E-09     -0.127007E-20      0.273195E-10     -0.713182E-21
  0.2355      0.124283E-06      0.672818E-02     -0.798930E-14      0.220068E-09     -0.261317E-21      0.280105E-10     -0.714003E-21
  0.2386      0.128811E-06      0.673147E-02     -0.124528E-13      0.225196E-09     -0.416598E-21      0.287176E-10     -0.715311E-21
  0.2418      0.133467E-06      0.673761E-02     -0.160769E-13      0.230515E-09     -0.550041E-21      0.294415E-10     -0.717038E-21
  0.2449      0.138252E-06      0.674625E-02     -0.459418E-13      0.236020E-09     -0.160729E-20      0.301826E-10     -0.722085E-21
  0.2481      0.143170E-06      0.675782E-02     -0.548908E-13      0.241735E-09     -0.196351E-20      0.309416E-10     -0.728250E-21
  0.2512      0.148222E-06      0.677200E-02     -0.517924E-13      0.247657E-09     -0.189408E-20      0.317193E-10     -0.734198E-21
  0.2543      0.153413E-06      0.678919E-02     -0.127209E-13      0.253808E-09     -0.475561E-21      0.325162E-10     -0.735691E-21
  0.2575      0.158745E-06      0.680914E-02     -0.153405E-13      0.260190E-09     -0.586188E-21      0.333332E-10     -0.737532E-21
  0.2606      0.164222E-06      0.683222E-02     -0.221400E-13      0.266824E-09     -0.864652E-21      0.341711E-10     -0.740247E-21
  0.2638      0.169846E-06      0.685824E-02      0.308944E-13      0.273715E-09      0.123301E-20      0.350305E-10     -0.736375E-21
  0.2669      0.175621E-06      0.688750E-02      0.155711E-13      0.280885E-09      0.635017E-21      0.359125E-10     -0.734381E-21
  0.2700      0.181550E-06      0.691992E-02      0.388535E-14      0.288342E-09      0.161896E-21      0.368179E-10     -0.733873E-21
  0.2732      0.187635E-06      0.695575E-02     -0.170573E-13      0.296108E-09     -0.726131E-21      0.377477E-10     -0.736153E-21
  0.2763      0.193882E-06      0.699501E-02     -0.166971E-13      0.304195E-09     -0.726115E-21      0.387029E-10     -0.738433E-21
  0.2795      0.200292E-06      0.703786E-02     -0.132530E-13      0.312625E-09     -0.588705E-21      0.396845E-10     -0.740281E-21
  0.2826      0.206869E-06      0.708446E-02     -0.261553E-13      0.321417E-09     -0.118665E-20      0.406938E-10     -0.744007E-21
  0.2857      0.213617E-06      0.713487E-02     -0.428297E-13      0.330590E-09     -0.198449E-20      0.417319E-10     -0.750239E-21
  0.2889      0.220539E-06      0.718942E-02     -0.329369E-13      0.340173E-09     -0.155844E-20      0.428000E-10     -0.755132E-21
  0.2920      0.227638E-06      0.724802E-02     -0.910777E-14      0.350180E-09     -0.440032E-21      0.438996E-10     -0.756514E-21
  0.2952      0.234919E-06      0.731124E-02     -0.123794E-13      0.360654E-09     -0.610658E-21      0.450320E-10     -0.758431E-21
  0.2983      0.242385E-06      0.737878E-02     -0.179572E-13      0.371600E-09     -0.904336E-21      0.461989E-10     -0.761271E-21
  0.3014      0.250039E-06      0.745152E-02      0.277734E-14      0.383081E-09      0.142783E-21      0.474018E-10     -0.760823E-21
  0.3046      0.257885E-06      0.752889E-02     -0.118903E-13      0.395089E-09     -0.623963E-21      0.486424E-10     -0.762782E-21
  0.3077      0.265928E-06      0.761214E-02     -0.146230E-13      0.407713E-09     -0.783218E-21      0.499226E-10     -0.765241E-21
  0.3109      0.274170E-06      0.770040E-02      0.108799E-14      0.420928E-09      0.594728E-22      0.512443E-10     -0.765055E-21
  0.3140      0.282616E-06      0.779536E-02     -0.397381E-14      0.434854E-09     -0.221674E-21      0.526098E-10     -0.765751E-21
  0.3171      0.291270E-06      0.789573E-02     -0.226668E-14      0.449445E-09     -0.129025E-21      0.540210E-10     -0.766156E-21
  0.3203      0.300135E-06      0.800383E-02     -0.798545E-14      0.464862E-09     -0.463794E-21      0.554807E-10     -0.767612E-21
  0.3234      0.309215E-06      0.811779E-02     -0.118498E-13      0.481029E-09     -0.702171E-21      0.569911E-10     -0.769817E-21
  0.3266      0.318515E-06      0.824075E-02     -0.133882E-13      0.498165E-09     -0.809334E-21      0.585554E-10     -0.772358E-21
  0.3297      0.328039E-06      0.837007E-02      0.386174E-14      0.516149E-09      0.238138E-21      0.601761E-10     -0.771610E-21
  0.3328      0.337790E-06      0.850992E-02     -0.222878E-14      0.535275E-09     -0.140191E-21      0.618569E-10     -0.772051E-21
  0.3360      0.347774E-06      0.865673E-02     -0.353037E-14      0.555363E-09     -0.226487E-21      0.636007E-10     -0.772762E-21
  0.3391      0.357993E-06      0.881598E-02     -0.622609E-14      0.576808E-09     -0.407358E-21      0.654119E-10     -0.774041E-21
  0.3423      0.368452E-06      0.898282E-02     -0.152247E-13      0.599346E-09     -0.101581E-20      0.672939E-10     -0.777231E-21
  0.3454      0.379156E-06      0.916451E-02     -0.145085E-13      0.623512E-09     -0.987094E-21      0.692517E-10     -0.780330E-21
  0.3485      0.390109E-06      0.935451E-02     -0.501798E-14      0.648925E-09     -0.348099E-21      0.712894E-10     -0.781423E-21
  0.3517      0.401315E-06      0.956238E-02     -0.160987E-13      0.676307E-09     -0.113859E-20      0.734130E-10     -0.784998E-21
  0.3548      0.412779E-06      0.977937E-02     -0.159102E-13      0.705115E-09     -0.114716E-20      0.756271E-10     -0.788600E-21
  0.3580      0.424505E-06      0.100181E-01     -0.106704E-13      0.736329E-09     -0.784271E-21      0.779392E-10     -0.791063E-21
  0.3611      0.436496E-06      0.102668E-01     -0.133811E-13      0.769181E-09     -0.100250E-20      0.803544E-10     -0.794211E-21
  0.3642      0.448759E-06      0.105422E-01     -0.137639E-13      0.805005E-09     -0.105101E-20      0.828821E-10     -0.797511E-21
  0.3674      0.461298E-06      0.108287E-01     -0.671169E-15      0.842713E-09     -0.522321E-22      0.855283E-10     -0.797675E-21
  0.3705      0.474116E-06      0.111482E-01     -0.312246E-14      0.884135E-09     -0.247633E-21      0.883045E-10     -0.798453E-21
  0.3737      0.487219E-06      0.114799E-01     -0.749932E-14      0.927734E-09     -0.606050E-21      0.912176E-10     -0.800356E-21
  0.3768      0.500611E-06      0.118533E-01     -0.695874E-14      0.976037E-09     -0.573006E-21      0.942824E-10     -0.802155E-21
  0.3799      0.514296E-06      0.122398E-01     -0.203331E-14      0.102686E-08     -0.170585E-21      0.975067E-10     -0.802691E-21
  0.3831      0.528281E-06      0.126796E-01     -0.977629E-14      0.108373E-08     -0.835582E-21      0.100910E-09     -0.805314E-21
  0.3862      0.542568E-06      0.131336E-01     -0.341833E-14      0.114351E-08     -0.297627E-21      0.104500E-09     -0.806249E-21
  0.3894      0.557164E-06      0.136567E-01     -0.112384E-13      0.121120E-08     -0.996721E-21      0.108303E-09     -0.809379E-21
  0.3925      0.572072E-06      0.141949E-01     -0.131499E-13      0.128228E-08     -0.118788E-20      0.112330E-09     -0.813109E-21
  0.3956      0.587297E-06      0.148242E-01     -0.227020E-14      0.136385E-08     -0.208863E-21      0.116612E-09     -0.813764E-21
  0.3988      0.602845E-06      0.154694E-01     -0.626079E-14      0.144939E-08     -0.586599E-21      0.121164E-09     -0.815606E-21
  0.4019      0.618720E-06      0.162371E-01     -0.871916E-14      0.154918E-08     -0.831896E-21      0.126028E-09     -0.818219E-21
  0.4051      0.634927E-06      0.170208E-01     -0.210856E-14      0.165358E-08     -0.204847E-21      0.131220E-09     -0.818862E-21
  0.4082      0.651471E-06      0.179729E-01     -0.561591E-14      0.177779E-08     -0.555497E-21      0.136803E-09     -0.820606E-21
  0.4113      0.668356E-06      0.189400E-01     -0.717640E-14      0.190733E-08     -0.722692E-21      0.142792E-09     -0.822875E-21
  0.4145      0.685588E-06      0.201452E-01     -0.195707E-14      0.206524E-08     -0.200634E-21      0.149277E-09     -0.823505E-21
  0.4176      0.703172E-06      0.213621E-01     -0.421544E-14      0.222927E-08     -0.439908E-21      0.156276E-09     -0.824887E-21
  0.4208      0.721112E-06      0.229268E-01     -0.563929E-14      0.243529E-08     -0.599007E-21      0.163923E-09     -0.826768E-21
  0.4239      0.739413E-06      0.244955E-01     -0.123480E-14      0.264820E-08     -0.133493E-21      0.172239E-09     -0.827187E-21
  0.4270      0.758081E-06      0.265939E-01     -0.465701E-14      0.292596E-08     -0.512381E-21      0.181426E-09     -0.828796E-21
  0.4302      0.777120E-06      0.286799E-01     -0.786510E-14      0.321111E-08     -0.880606E-21      0.191509E-09     -0.831561E-21
  0.4333      0.796536E-06      0.316165E-01     -0.567832E-14      0.360205E-08     -0.646928E-21      0.202820E-09     -0.833592E-21
  0.4365      0.816333E-06      0.345059E-01     -0.555010E-14      0.399996E-08     -0.643373E-21      0.215380E-09     -0.835612E-21
  0.4396      0.836516E-06      0.388647E-01     -0.659038E-14      0.458365E-08     -0.777261E-21      0.229773E-09     -0.838053E-21
  0.4427      0.857091E-06      0.430985E-01     -0.166781E-14      0.517107E-08     -0.200108E-21      0.246010E-09     -0.838681E-21
  0.4459      0.878062E-06      0.501525E-01     -0.523784E-14      0.612124E-08     -0.639292E-21      0.265231E-09     -0.840689E-21
  0.4490      0.899435E-06      0.568890E-01     -0.452162E-14      0.706271E-08     -0.561355E-21      0.287408E-09     -0.842451E-21
  0.4522      0.921214E-06      0.700263E-01     -0.306938E-14      0.884238E-08     -0.387577E-21      0.315173E-09     -0.843668E-21
  0.4553      0.943404E-06      0.822548E-01     -0.106450E-13      0.105633E-07     -0.136705E-20      0.348342E-09     -0.847961E-21
  0.4584      0.966011E-06      0.114411E+00     -0.134595E-13      0.149419E-07     -0.175779E-20      0.395260E-09     -0.853480E-21
