 
 # Omega; pulse ft; proj flux t=    1000.25000000000     
    0.000000000000         0.64285036E-11      0.00000000E+00      0.00000000E+00      0.00000000E+00      0.00000000E+00      0.00000000E+00      0.00000000E+00
    0.003140022642         0.21245158E-10     -0.18497891E-05      0.13086194E-13     -0.77569693E-15      0.54876100E-23     -0.24357059E-17      0.17231220E-25
    0.006280045285         0.65709671E-10     -0.88655353E-06     -0.64288920E-14     -0.57492892E-15     -0.41691289E-23     -0.42409958E-17      0.41400603E-26
    0.009420067927         0.13986570E-09     -0.10096550E-06     -0.30227628E-14     -0.92912226E-16     -0.27816592E-23     -0.45327422E-17     -0.45944125E-26
    0.012560090569         0.24378600E-09     -0.41034896E-07     -0.42977080E-15     -0.49364189E-16     -0.51700599E-24     -0.46877469E-17     -0.62178230E-26
    0.015700113211         0.37757252E-09     -0.41262782E-08     -0.25314969E-15     -0.61503351E-17     -0.37732682E-24     -0.47070591E-17     -0.74026378E-26
    0.018840135854         0.54135636E-09      0.62380121E-08     -0.95510962E-15      0.11109336E-16     -0.17009640E-23     -0.46721755E-17     -0.12743703E-25
    0.021980158496         0.73529789E-09      0.12905531E-07      0.12017370E-14      0.26757841E-16      0.24916360E-23     -0.45881553E-17     -0.49199095E-26
    0.025120181138         0.95958676E-09      0.38600269E-07     -0.88967773E-15      0.91389118E-16     -0.21063808E-23     -0.43011914E-17     -0.11533993E-25
    0.028260203780         0.12144420E-08      0.59711443E-07      0.84308046E-15      0.15903831E-15      0.22455007E-23     -0.38018075E-17     -0.44830697E-26
    0.031400226423         0.15001122E-08      0.54303419E-07     -0.14257170E-15      0.16079066E-15     -0.42215019E-24     -0.32969212E-17     -0.58086308E-26
    0.034540249065         0.18168754E-08      0.49746234E-07     -0.62921155E-15      0.16218197E-15     -0.20513466E-23     -0.27876662E-17     -0.12249906E-25
    0.037680271707         0.21650394E-08      0.45824181E-07      0.20478956E-15      0.16318836E-15      0.72929339E-24     -0.22752510E-17     -0.99599079E-26
    0.040820294349         0.25449417E-08      0.42553222E-07      0.37092624E-15      0.16442840E-15      0.14332830E-23     -0.17589421E-17     -0.54593669E-26
    0.043960316992         0.29569499E-08      0.40922092E-07     -0.14543590E-15      0.17060182E-15     -0.60631378E-24     -0.12232486E-17     -0.73632059E-26
    0.047100339634         0.34014614E-08      0.39452259E-07     -0.18712824E-15      0.17658591E-15     -0.83757464E-24     -0.66876480E-18     -0.99932092E-26
    0.050240362276         0.38789041E-08      0.39329828E-07     -0.90370823E-16      0.18820060E-15     -0.43244133E-24     -0.77810661E-19     -0.11351085E-25
    0.053380384919         0.43897362E-08      0.39238016E-07     -0.13340183E-15      0.19998915E-15     -0.67992525E-24      0.55015980E-18     -0.13486065E-25
    0.056520407561         0.49344463E-08      0.40192562E-07     -0.18322714E-15      0.21748109E-15     -0.99143814E-24      0.12330554E-17     -0.16599204E-25
    0.059660430203         0.55135541E-08      0.41132176E-07      0.98153969E-17      0.23559692E-15      0.56220642E-25      0.19728350E-17     -0.16422670E-25
    0.062800452845         0.61276098E-08      0.45847890E-07     -0.37020113E-15      0.27726200E-15     -0.22387662E-23      0.28434440E-17     -0.23452446E-25
    0.065940475488         0.67771950E-08      0.50581273E-07     -0.32523965E-16      0.32220356E-15     -0.20717821E-24      0.38551705E-17     -0.24102990E-25
    0.069080498130         0.74629227E-08      0.82236527E-07     -0.67163148E-17      0.55063133E-15     -0.44970447E-25      0.55841653E-17     -0.24244199E-25
    0.072220520772         0.81854373E-08      0.98021585E-07     -0.18652629E-15      0.68856615E-15     -0.13102797E-23      0.77462786E-17     -0.28358507E-25
    0.075360543414         0.89454151E-08     -0.44548667E-08     -0.28040230E-16     -0.32774333E-16     -0.20629121E-24      0.76433665E-17     -0.29006266E-25
    0.078500566057         0.97435644E-08     -0.77408054E-07     -0.42216071E-16     -0.59548921E-15     -0.32476226E-24      0.57735169E-17     -0.30026026E-25
    0.081640588699         0.10580626E-07     -0.42595673E-07     -0.10814329E-15     -0.34214751E-15     -0.86865530E-24      0.46991659E-17     -0.32753624E-25
    0.084780611341         0.11457373E-07     -0.18563131E-07     -0.26313863E-16     -0.15548282E-15     -0.22040213E-24      0.42109463E-17     -0.33445691E-25
    0.087920633984         0.12374611E-07     -0.13661397E-07     -0.65920488E-19     -0.11917318E-15     -0.57504764E-27      0.38367399E-17     -0.33447497E-25
    0.091060656626         0.13333179E-07     -0.87482171E-08     -0.10211328E-15     -0.79389883E-16     -0.92667585E-24      0.35874538E-17     -0.36357280E-25
    0.094200679268         0.14333950E-07     -0.22669215E-08     -0.35678219E-16     -0.21379179E-16     -0.33647879E-24      0.35203227E-17     -0.37413831E-25
    0.097340701910         0.15377830E-07      0.42666000E-08      0.21868590E-16      0.41775839E-16      0.21412335E-24      0.36514998E-17     -0.36741479E-25
    0.100480724553         0.16465758E-07      0.13125834E-07     -0.11285941E-16      0.13331179E-15     -0.11462502E-24      0.40701019E-17     -0.37101404E-25
    0.103620747195         0.17598710E-07      0.18878508E-07     -0.12944649E-15      0.19872132E-15     -0.13625958E-23      0.46940913E-17     -0.41379986E-25
    0.106760769837         0.18777693E-07      0.14985819E-07     -0.67410232E-16      0.16336299E-15     -0.73485056E-24      0.52070548E-17     -0.43687433E-25
    0.109900792479         0.20003751E-07      0.12624625E-07     -0.13496459E-15      0.14242027E-15     -0.15225555E-23      0.56542577E-17     -0.48468292E-25
    0.113040815122         0.21277963E-07      0.12159736E-07      0.17311931E-16      0.14186053E-15      0.20196819E-24      0.60997029E-17     -0.47834107E-25
    0.116180837764         0.22601444E-07      0.11989427E-07      0.49303580E-16      0.14455821E-15      0.59446024E-24      0.65536190E-17     -0.45967489E-25
    0.119320860406         0.23975342E-07      0.12332474E-07     -0.74968807E-17      0.15358235E-15     -0.93362336E-25      0.70358711E-17     -0.46260649E-25
    0.122460883048         0.25400844E-07      0.12644753E-07      0.10834446E-16      0.16255630E-15      0.13928366E-24      0.75463015E-17     -0.45823295E-25
    0.125600905691         0.26879174E-07      0.12852673E-07      0.65368988E-17      0.17047445E-15      0.86703690E-25      0.80815952E-17     -0.45551043E-25
    0.128740928333         0.28411589E-07      0.12916893E-07      0.82027791E-17      0.17667684E-15      0.11219734E-24      0.86363644E-17     -0.45198741E-25
    0.131880950975         0.29999386E-07      0.12745339E-07      0.91151026E-17      0.17969019E-15      0.12850929E-24      0.92005957E-17     -0.44795219E-25
    0.135020973618         0.31643900E-07      0.12482102E-07      0.40906947E-17      0.18130892E-15      0.59419434E-25      0.97699098E-17     -0.44608641E-25
    0.138160996260         0.33346502E-07      0.12089496E-07      0.10572742E-16      0.18084883E-15      0.15815944E-24      0.10337779E-16     -0.44112016E-25
    0.141301018902         0.35108601E-07      0.11684401E-07      0.95573804E-18      0.17993571E-15      0.14718033E-25      0.10902781E-16     -0.44065801E-25
    0.144441041544         0.36931646E-07      0.11244772E-07     -0.78593835E-17      0.17819741E-15     -0.12454870E-24      0.11462325E-16     -0.44456887E-25
    0.147581064187         0.38817124E-07      0.10824104E-07     -0.13407551E-16      0.17645230E-15     -0.21856713E-24      0.12016390E-16     -0.45143193E-25
    0.150721086829         0.40766561E-07      0.10402946E-07      0.22966232E-16      0.17439301E-15      0.38500155E-24      0.12563988E-16     -0.43934279E-25
    0.153861109471         0.42781523E-07      0.10004531E-07      0.32484035E-17      0.17241172E-15      0.55980920E-25      0.13105364E-16     -0.43758498E-25
    0.157001132113         0.44863615E-07      0.96100836E-08      0.11949509E-16      0.17020069E-15      0.21163340E-24      0.13639798E-16     -0.43093964E-25
    0.160141154756         0.47014483E-07      0.92362543E-08      0.35326213E-16      0.16806112E-15      0.64278905E-24      0.14167514E-16     -0.41075592E-25
    0.163281177398         0.49235812E-07      0.88605174E-08      0.21283156E-16      0.16559482E-15      0.39776236E-24      0.14687486E-16     -0.39826609E-25
    0.166421200040         0.51529331E-07      0.85132846E-08      0.22740942E-16      0.16337503E-15      0.43641229E-24      0.15200487E-16     -0.38456265E-25
    0.169561222683         0.53896806E-07      0.81649357E-08     -0.11811809E-16      0.16085403E-15     -0.23269957E-24      0.15705572E-16     -0.39186947E-25
    0.172701245325         0.56340048E-07      0.78226183E-08     -0.82231807E-17      0.15816725E-15     -0.16626631E-24      0.16202221E-16     -0.39709027E-25
    0.175841267967         0.58860908E-07      0.75301166E-08     -0.83836358E-17      0.15622500E-15     -0.17393269E-24      0.16692771E-16     -0.40255179E-25
    0.178981290609         0.61461278E-07      0.72039608E-08      0.85472741E-17      0.15332323E-15      0.18191322E-24      0.17174209E-16     -0.39683968E-25
    0.182121313252         0.64143096E-07      0.69294012E-08      0.49253092E-17      0.15126120E-15      0.10751407E-24      0.17649173E-16     -0.39346371E-25
    0.185261335894         0.66908339E-07      0.66584758E-08      0.19513440E-16      0.14904347E-15      0.43678929E-24      0.18117173E-16     -0.37974843E-25
    0.188401358536         0.69759030E-07      0.64063672E-08     -0.14166127E-17      0.14701813E-15     -0.32509495E-25      0.18578813E-16     -0.38076923E-25
    0.191541381178         0.72697233E-07      0.61727724E-08     -0.21031874E-16      0.14520388E-15     -0.49473873E-24      0.19034756E-16     -0.39630414E-25
    0.194681403821         0.75725056E-07      0.59531329E-08      0.23606712E-17      0.14351701E-15      0.56910618E-25      0.19485403E-16     -0.39451713E-25
    0.197821426463         0.78844653E-07      0.57495391E-08      0.28289317E-17      0.14202821E-15      0.69881796E-25      0.19931375E-16     -0.39232283E-25
    0.200961449105         0.82058219E-07      0.55626650E-08      0.15667671E-16      0.14077804E-15      0.39651212E-24      0.20373421E-16     -0.37987226E-25
    0.204101471747         0.85367996E-07      0.53868569E-08      0.44123487E-16      0.13964554E-15      0.11438299E-23      0.20811911E-16     -0.34395574E-25
    0.207241494390         0.88776268E-07      0.52261658E-08     -0.35549891E-17      0.13875416E-15     -0.94384597E-25      0.21247603E-16     -0.34691944E-25
    0.210381517032         0.92285368E-07      0.50743792E-08     -0.89822194E-17      0.13795926E-15     -0.24420334E-24      0.21680798E-16     -0.35458748E-25
    0.213521539674         0.95897669E-07      0.49356376E-08      0.53766535E-17      0.13738911E-15      0.14966529E-24      0.22112203E-16     -0.34988796E-25
    0.216661562317         0.99615594E-07      0.48050136E-08     -0.10755801E-16      0.13692500E-15     -0.30650029E-24      0.22542150E-16     -0.35951213E-25
    0.219801584959         0.10344161E-06      0.46848808E-08     -0.11581788E-16      0.13664875E-15     -0.33781796E-24      0.22971230E-16     -0.37011969E-25
    0.222941607601         0.10737822E-06      0.45721788E-08     -0.43431658E-17      0.13648690E-15     -0.12965049E-24      0.23399802E-16     -0.37419075E-25
    0.226081630243         0.11142800E-06      0.44674888E-08     -0.12424602E-16      0.13646938E-15     -0.37953710E-24      0.23828319E-16     -0.38610830E-25
    0.229221652886         0.11559354E-06      0.43688231E-08     -0.15306402E-16      0.13654791E-15     -0.47840282E-24      0.24257083E-16     -0.40113026E-25
    0.232361675528         0.11987749E-06      0.42775919E-08     -0.82030627E-17      0.13677766E-15     -0.26229612E-24      0.24686568E-16     -0.40936641E-25
    0.235501698170         0.12428256E-06      0.41908550E-08     -0.15122990E-16      0.13707601E-15     -0.49464828E-24      0.25116990E-16     -0.42489848E-25
    0.238641720812         0.12881148E-06      0.41069542E-08      0.14260661E-17      0.13739494E-15      0.47707926E-25      0.25548413E-16     -0.42340044E-25
    0.241781743455         0.13346705E-06      0.40289110E-08     -0.78824747E-17      0.13784179E-15     -0.26968439E-24      0.25981239E-16     -0.43186859E-25
    0.244921766097         0.13825210E-06      0.39566467E-08     -0.27443713E-17      0.13842492E-15     -0.96012965E-25      0.26415897E-16     -0.43488342E-25
    0.248061788739         0.14316951E-06      0.38855161E-08      0.97406084E-18      0.13898952E-15      0.34843312E-25      0.26852327E-16     -0.43378933E-25
    0.251201811381         0.14822222E-06      0.38173251E-08     -0.47991991E-17      0.13960223E-15     -0.17551005E-24      0.27290681E-16     -0.43930039E-25
    0.254341834024         0.15341320E-06      0.37503208E-08     -0.16262441E-16      0.14020259E-15     -0.60795769E-24      0.27730920E-16     -0.45839040E-25
    0.257481856666         0.15874548E-06      0.36877171E-08     -0.38573215E-17      0.14091428E-15     -0.14739517E-24      0.28173394E-16     -0.46301864E-25
    0.260621879308         0.16422213E-06      0.36232620E-08     -0.13779507E-16      0.14150221E-15     -0.53814235E-24      0.28617714E-16     -0.47991643E-25
    0.263761901951         0.16984627E-06      0.35612527E-08     -0.61503833E-17      0.14213120E-15     -0.24546456E-24      0.29064010E-16     -0.48762408E-25
    0.266901924593         0.17562106E-06      0.35046264E-08     -0.43170766E-17      0.14292536E-15     -0.17605863E-24      0.29512798E-16     -0.49315236E-25
    0.270041947235         0.18154971E-06      0.34440021E-08     -0.36446196E-17      0.14350611E-15     -0.15186553E-24      0.29963411E-16     -0.49792097E-25
    0.273181969877         0.18763548E-06      0.33845227E-08     -0.50077812E-17      0.14407978E-15     -0.21318221E-24      0.30415825E-16     -0.50461494E-25
    0.276321992520         0.19388169E-06      0.33272272E-08     -0.31453257E-17      0.14469265E-15     -0.13678222E-24      0.30870163E-16     -0.50890993E-25
    0.279462015162         0.20029168E-06      0.32691954E-08     -0.70967222E-17      0.14521908E-15     -0.31523947E-24      0.31326154E-16     -0.51880852E-25
    0.282602037804         0.20686884E-06      0.32115884E-08      0.68084774E-17      0.14570765E-15      0.30889613E-24      0.31783679E-16     -0.50910911E-25
    0.285742060446         0.21361663E-06      0.31525785E-08      0.43488109E-17      0.14607284E-15      0.20149955E-24      0.32242351E-16     -0.50278198E-25
    0.288882083089         0.22053854E-06      0.30952521E-08     -0.17217715E-17      0.14645446E-15     -0.81467064E-25      0.32702222E-16     -0.50534007E-25
    0.292022105731         0.22763810E-06      0.30398094E-08      0.88243043E-17      0.14686498E-15      0.42633636E-24      0.33163381E-16     -0.49195301E-25
    0.295162128373         0.23491890E-06      0.29848471E-08      0.24673064E-17      0.14723874E-15      0.12170911E-24      0.33625714E-16     -0.48813131E-25
    0.298302151016         0.24238456E-06      0.29304928E-08     -0.26074773E-17      0.14758149E-15     -0.13131423E-24      0.34089123E-16     -0.49225461E-25
    0.301442173658         0.25003877E-06      0.28758617E-08      0.16686624E-17      0.14784751E-15      0.85785619E-25      0.34553368E-16     -0.48956092E-25
    0.304582196300         0.25788523E-06      0.28212076E-08     -0.17460615E-17      0.14804702E-15     -0.91627147E-25      0.35018239E-16     -0.49243804E-25
    0.307722218942         0.26592771E-06      0.27664177E-08     -0.24480505E-17      0.14817167E-15     -0.13111965E-24      0.35483501E-16     -0.49655522E-25
    0.310862241585         0.27417002E-06      0.27170038E-08     -0.19628939E-17      0.14851999E-15     -0.10729797E-24      0.35949857E-16     -0.49992440E-25
    0.314002264227         0.28261602E-06      0.26605038E-08     -0.51136493E-17      0.14841252E-15     -0.28525785E-24      0.36415876E-16     -0.50888156E-25
    0.317142286869         0.29126959E-06      0.26104426E-08     -0.67655933E-17      0.14859281E-15     -0.38511422E-24      0.36882461E-16     -0.52097424E-25
    0.320282309511         0.30013468E-06      0.25579703E-08     -0.55899783E-17      0.14856668E-15     -0.32466541E-24      0.37348964E-16     -0.53116880E-25
    0.323422332154         0.30921526E-06      0.25196265E-08     -0.51287309E-17      0.14930342E-15     -0.30390896E-24      0.37817780E-16     -0.54071161E-25
    0.326562354796         0.31851537E-06      0.24596959E-08     -0.79473412E-17      0.14869226E-15     -0.48042855E-24      0.38284677E-16     -0.55579718E-25
    0.329702377438         0.32803906E-06      0.24366345E-08      0.38165415E-19      0.15025763E-15      0.23535105E-26      0.38756489E-16     -0.55572328E-25
    0.332842400080         0.33779045E-06      0.23686983E-08     -0.28626631E-17      0.14899138E-15     -0.18006182E-24      0.39224325E-16     -0.56137726E-25
    0.335982422723         0.34777368E-06      0.23310214E-08     -0.30562076E-17      0.14954403E-15     -0.19606753E-24      0.39693897E-16     -0.56753383E-25
    0.339122445365         0.35799293E-06      0.23520569E-08     -0.15869462E-18      0.15388930E-15     -0.10382999E-25      0.40177113E-16     -0.56785985E-25
    0.342262468007         0.36845245E-06      0.22310454E-08     -0.11755068E-17      0.14885836E-15     -0.78431403E-25      0.40644532E-16     -0.57032262E-25
    0.345402490650         0.37915648E-06      0.22210500E-08     -0.32121502E-17      0.15111029E-15     -0.21854030E-24      0.41119021E-16     -0.57718483E-25
    0.348542513292         0.39010935E-06      0.22168043E-08     -0.14810151E-17      0.15378027E-15     -0.10273839E-24      0.41601895E-16     -0.58041084E-25
    0.351682535934         0.40131538E-06      0.21632177E-08     -0.24403817E-17      0.15299524E-15     -0.17259787E-24      0.42082303E-16     -0.58583045E-25
    0.354822558576         0.41277896E-06      0.21602076E-08     -0.41947868E-17      0.15575590E-15     -0.30245369E-24      0.42571380E-16     -0.59532757E-25
    0.357962581219         0.42450450E-06      0.21321525E-08     -0.17163641E-17      0.15671321E-15     -0.12615276E-24      0.43063463E-16     -0.59928879E-25
    0.361102603861         0.43649646E-06      0.21277418E-08     -0.15615496E-17      0.15940859E-15     -0.11698995E-24      0.43564010E-16     -0.60296231E-25
    0.364242626503         0.44875932E-06      0.21149317E-08     -0.32065984E-17      0.16149599E-15     -0.24485556E-24      0.44071111E-16     -0.61065083E-25
    0.367382649145         0.46129760E-06      0.21187307E-08     -0.94974304E-18      0.16488494E-15     -0.73911387E-25      0.44588853E-16     -0.61297166E-25
    0.370522671788         0.47411586E-06      0.21187852E-08     -0.24263532E-18      0.16803482E-15     -0.19242717E-25      0.45116487E-16     -0.61357589E-25
    0.373662694430         0.48721866E-06      0.21363265E-08     -0.26970432E-17      0.17264519E-15     -0.21795898E-24      0.45658596E-16     -0.62041985E-25
    0.376802717072         0.50061064E-06      0.21532677E-08     -0.21671095E-17      0.17730735E-15     -0.17844714E-24      0.46215346E-16     -0.62602313E-25
    0.379942739715         0.51429644E-06      0.21867616E-08     -0.23818058E-17      0.18345920E-15     -0.19982250E-24      0.46791412E-16     -0.63229760E-25
    0.383082762357         0.52828072E-06      0.22195180E-08     -0.49974189E-17      0.18970269E-15     -0.42713050E-24      0.47387082E-16     -0.64570959E-25
