 
 # Omega; pulse ft; proj flux t=    1000.25000000000     
    0.000000000000         0.13861783E-10      0.00000000E+00      0.00000000E+00      0.92488595E-12     -0.20679515E-23      0.23110593E-15     -0.51672952E-27
    0.003140022642         0.28547099E-10      0.12163545E-03     -0.28554970E-15      0.86127511E-12     -0.20219176E-23      0.44631711E-15     -0.10219563E-26
    0.006280045285         0.72617464E-10      0.80511850E-04     -0.18410988E-15      0.72508789E-12     -0.16580894E-23      0.62749849E-15     -0.14362715E-26
    0.009420067927         0.14611614E-09      0.57014359E-04     -0.86699339E-16      0.68878067E-12     -0.10473998E-23      0.79960760E-15     -0.16979906E-26
    0.012560090569         0.24911526E-09      0.44141445E-04     -0.69114842E-16      0.68187795E-12     -0.10676562E-23      0.96999190E-15     -0.19647712E-26
    0.015700113211         0.38171583E-09      0.35731686E-04     -0.11629234E-15      0.67661782E-12     -0.22021202E-23      0.11390618E-14     -0.25150262E-26
    0.018840135854         0.54404780E-09      0.30085983E-04     -0.11836284E-15      0.67665886E-12     -0.26620790E-23      0.13081420E-14     -0.31802133E-26
    0.021980158496         0.73627010E-09      0.25924209E-04     -0.98196814E-16      0.67633895E-12     -0.25618652E-23      0.14771422E-14     -0.38203595E-26
    0.025120181138         0.95857070E-09      0.22742991E-04     -0.60863034E-16      0.67592964E-12     -0.18088707E-23      0.16460402E-14     -0.42723512E-26
    0.028260203780         0.12111667E-08      0.20222407E-04     -0.51928840E-16      0.67501591E-12     -0.17333641E-23      0.18147098E-14     -0.47054757E-26
    0.031400226423         0.14943044E-08      0.18254072E-04     -0.44723295E-16      0.67657911E-12     -0.16576492E-23      0.19837701E-14     -0.51196809E-26
    0.034540249065         0.18082594E-08      0.16602452E-04     -0.61257916E-16      0.67695539E-12     -0.24977561E-23      0.21529243E-14     -0.57438078E-26
    0.037680271707         0.21533368E-08      0.15210319E-04     -0.29610294E-16      0.67700018E-12     -0.13179326E-23      0.23220898E-14     -0.60731263E-26
    0.040820294349         0.25298710E-08      0.14012698E-04     -0.37076024E-16      0.67638901E-12     -0.17896493E-23      0.24911026E-14     -0.65203150E-26
    0.043960316992         0.29382263E-08      0.13016416E-04     -0.37196196E-16      0.67759217E-12     -0.19363127E-23      0.26604159E-14     -0.70041513E-26
    0.047100339634         0.33787968E-08      0.12119593E-04     -0.16146200E-16      0.67714022E-12     -0.90211293E-24      0.28296164E-14     -0.72295668E-26
    0.050240362276         0.38520063E-08      0.11354949E-04     -0.25993860E-16      0.67806598E-12     -0.15522353E-23      0.29990482E-14     -0.76174317E-26
    0.053380384919         0.43583091E-08      0.10616942E-04     -0.51576786E-16      0.67513140E-12     -0.32797681E-23      0.31677467E-14     -0.84369640E-26
    0.056520407561         0.48981894E-08      0.10007193E-04     -0.12817329E-16      0.67545293E-12     -0.86512798E-24      0.33365255E-14     -0.86531379E-26
    0.059660430203         0.54721621E-08      0.92053414E-05     -0.21009269E-16      0.65760485E-12     -0.15008457E-23      0.35008446E-14     -0.90281618E-26
    0.062800452845         0.60807727E-08      0.92364494E-05     -0.31509330E-16      0.69655207E-12     -0.23762258E-23      0.36748956E-14     -0.96219214E-26
    0.065940475488         0.67245976E-08      0.96321688E-05     -0.29287594E-16      0.76505181E-12     -0.23262183E-23      0.38660629E-14     -0.10203185E-25
    0.069080498130         0.74042442E-08      0.88413209E-05     -0.23613879E-16      0.73806560E-12     -0.19712656E-23      0.40504871E-14     -0.10695755E-25
    0.072220520772         0.81203513E-08      0.82036874E-05     -0.42334263E-16      0.71841575E-12     -0.37073086E-23      0.42300013E-14     -0.11622119E-25
    0.075360543414         0.88735891E-08      0.78348722E-05     -0.14246271E-16      0.71852147E-12     -0.13064988E-23      0.44095419E-14     -0.11948581E-25
    0.078500566057         0.96646596E-08      0.74798882E-05     -0.11703630E-16      0.71723491E-12     -0.11222430E-23      0.45887610E-14     -0.12229001E-25
    0.081640588699         0.10494297E-07      0.71980348E-05     -0.26018860E-16      0.72063226E-12     -0.26048818E-23      0.47688291E-14     -0.12879896E-25
    0.084780611341         0.11363267E-07      0.69466783E-05     -0.15115770E-16      0.72516427E-12     -0.15779364E-23      0.49500295E-14     -0.13274183E-25
    0.087920633984         0.12272369E-07      0.66871139E-05     -0.52205873E-17      0.72699071E-12     -0.56755702E-24      0.51316864E-14     -0.13416002E-25
    0.091060656626         0.13222435E-07      0.64255549E-05     -0.19134835E-16      0.72668104E-12     -0.21640032E-23      0.53132658E-14     -0.13956732E-25
    0.094200679268         0.14214328E-07      0.61844553E-05     -0.14136349E-16      0.72681904E-12     -0.16613537E-23      0.54948798E-14     -0.14371863E-25
    0.097340701910         0.15248947E-07      0.59584472E-05     -0.12883270E-16      0.72699433E-12     -0.15718969E-23      0.56765375E-14     -0.14764641E-25
    0.100480724553         0.16327224E-07      0.57551581E-05     -0.17355014E-16      0.72834879E-12     -0.21963781E-23      0.58585337E-14     -0.15313461E-25
    0.103620747195         0.17450124E-07      0.55618625E-05     -0.63084869E-17      0.72949882E-12     -0.82742674E-24      0.60408173E-14     -0.15520214E-25
    0.106760769837         0.18618647E-07      0.53831366E-05     -0.85134414E-17      0.73118010E-12     -0.11563628E-23      0.62235210E-14     -0.15809160E-25
    0.109900792479         0.19833827E-07      0.52105719E-05     -0.16591087E-16      0.73239206E-12     -0.23320243E-23      0.64065275E-14     -0.16391875E-25
    0.113040815122         0.21096733E-07      0.50498843E-05     -0.57991405E-17      0.73403014E-12     -0.84293890E-24      0.65899433E-14     -0.16602505E-25
    0.116180837764         0.22408470E-07      0.48934418E-05     -0.10010610E-16      0.73509702E-12     -0.15038024E-23      0.67736257E-14     -0.16978267E-25
    0.119320860406         0.23770176E-07      0.47478786E-05     -0.15133220E-16      0.73666183E-12     -0.23480098E-23      0.69576992E-14     -0.17564976E-25
    0.122460883048         0.25183029E-07      0.46061197E-05     -0.10996776E-16      0.73773151E-12     -0.17612803E-23      0.71420399E-14     -0.18005076E-25
    0.125600905691         0.26648238E-07      0.44740280E-05     -0.16625158E-16      0.73931066E-12     -0.27472239E-23      0.73267752E-14     -0.18691539E-25
    0.128740928333         0.28167053E-07      0.43456818E-05     -0.18174810E-16      0.74051736E-12     -0.30970427E-23      0.75118120E-14     -0.19465413E-25
    0.131880950975         0.29740759E-07      0.42255334E-05     -0.57115015E-17      0.74217112E-12     -0.10031660E-23      0.76972620E-14     -0.19716079E-25
    0.135020973618         0.31370676E-07      0.41089543E-05     -0.13485497E-16      0.74354369E-12     -0.24402939E-23      0.78830551E-14     -0.20325848E-25
    0.138160996260         0.33058166E-07      0.39992158E-05     -0.15496358E-16      0.74528208E-12     -0.28878557E-23      0.80692825E-14     -0.21047451E-25
    0.141301018902         0.34804624E-07      0.38926968E-05     -0.11563027E-16      0.74678360E-12     -0.22182769E-23      0.82558851E-14     -0.21601743E-25
    0.144441041544         0.36611487E-07      0.37919060E-05     -0.12496774E-16      0.74857766E-12     -0.24670457E-23      0.84429360E-14     -0.22218196E-25
    0.147581064187         0.38480227E-07      0.36937817E-05     -0.17146380E-16      0.75012002E-12     -0.34820257E-23      0.86303722E-14     -0.23088267E-25
    0.150721086829         0.40412359E-07      0.36010305E-05     -0.61507225E-18      0.75200291E-12     -0.12844549E-24      0.88182790E-14     -0.23120363E-25
    0.153861109471         0.42409432E-07      0.35102699E-05     -0.38548399E-17      0.75357530E-12     -0.82754664E-24      0.90065787E-14     -0.23327146E-25
    0.157001132113         0.44473040E-07      0.34243801E-05     -0.98093839E-17      0.75548967E-12     -0.21641547E-23      0.91953567E-14     -0.23867914E-25
    0.160141154756         0.46604811E-07      0.33402893E-05     -0.35796698E-17      0.75711947E-12     -0.81137815E-24      0.93845420E-14     -0.24070657E-25
    0.163281177398         0.48806419E-07      0.32604282E-05     -0.36334986E-17      0.75904584E-12     -0.84589870E-24      0.95742086E-14     -0.24282026E-25
    0.166421200040         0.51079573E-07      0.31820627E-05     -0.52721819E-17      0.76067629E-12     -0.12603220E-23      0.97642827E-14     -0.24596950E-25
    0.169561222683         0.53426027E-07      0.31075573E-05     -0.66519278E-17      0.76260215E-12     -0.16323993E-23      0.99548379E-14     -0.25004845E-25
    0.172701245325         0.55847574E-07      0.30342957E-05     -0.93087749E-17      0.76422156E-12     -0.23445199E-23      0.10145798E-13     -0.25590682E-25
    0.175841267967         0.58346049E-07      0.29648979E-05     -0.58875368E-17      0.76621903E-12     -0.15215170E-23      0.10337257E-13     -0.25970872E-25
    0.178981290609         0.60923329E-07      0.28964382E-05     -0.62396762E-17      0.76787901E-12     -0.16542098E-23      0.10529131E-13     -0.26384217E-25
    0.182121313252         0.63581331E-07      0.28320454E-05     -0.52174418E-17      0.77005474E-12     -0.14186622E-23      0.10721548E-13     -0.26738706E-25
    0.185261335894         0.66322018E-07      0.27682828E-05     -0.91791144E-17      0.77185538E-12     -0.25593298E-23      0.10914416E-13     -0.27378218E-25
    0.188401358536         0.69147392E-07      0.27083725E-05     -0.42256408E-17      0.77419920E-12     -0.12079164E-23      0.11107869E-13     -0.27680047E-25
    0.191541381178         0.72059501E-07      0.26500609E-05     -0.68584927E-17      0.77649207E-12     -0.20096011E-23      0.11301895E-13     -0.28182196E-25
    0.194681403821         0.75060434E-07      0.25927826E-05     -0.62149951E-17      0.77858358E-12     -0.18662934E-23      0.11496443E-13     -0.28648536E-25
    0.197821426463         0.78152324E-07      0.25428987E-05     -0.64435989E-17      0.78243843E-12     -0.19826662E-23      0.11691955E-13     -0.29143955E-25
    0.200961449105         0.81337348E-07      0.24871339E-05     -0.12835681E-16      0.78402329E-12     -0.40462127E-23      0.11887863E-13     -0.30155002E-25
    0.204101471747         0.84617728E-07      0.24395539E-05     -0.16462573E-16      0.78773144E-12     -0.53157613E-23      0.12084697E-13     -0.31483279E-25
    0.207241494390         0.87995729E-07      0.23911294E-05     -0.18104689E-17      0.79075236E-12     -0.59872649E-24      0.12282287E-13     -0.31632885E-25
    0.210381517032         0.91473660E-07      0.23434022E-05     -0.13821098E-17      0.79357475E-12     -0.46804064E-24      0.12480581E-13     -0.31749837E-25
    0.213521539674         0.95053876E-07      0.22984017E-05     -0.19409466E-17      0.79690511E-12     -0.67296777E-24      0.12679708E-13     -0.31917995E-25
    0.216661562317         0.98738776E-07      0.22534813E-05     -0.19542721E-17      0.79985703E-12     -0.69365486E-24      0.12879572E-13     -0.32091322E-25
    0.219801584959         0.10253081E-06      0.22109635E-05     -0.12133698E-17      0.80326282E-12     -0.44082810E-24      0.13080288E-13     -0.32201474E-25
    0.222941607601         0.10643245E-06      0.21688715E-05     -0.40172375E-17      0.80643487E-12     -0.14936987E-23      0.13281796E-13     -0.32574712E-25
    0.226081630243         0.11044626E-06      0.21287422E-05     -0.30852033E-17      0.80995583E-12     -0.11738755E-23      0.13484183E-13     -0.32868034E-25
    0.229221652886         0.11457479E-06      0.20883686E-05     -0.16005247E-17      0.81300485E-12     -0.62308652E-24      0.13687333E-13     -0.33023728E-25
    0.232361675528         0.11882069E-06      0.20501429E-05     -0.25634473E-17      0.81651518E-12     -0.10209501E-23      0.13891360E-13     -0.33278838E-25
    0.235501698170         0.12318663E-06      0.20109282E-05     -0.39430713E-17      0.81925412E-12     -0.16064111E-23      0.14096071E-13     -0.33680240E-25
    0.238641720812         0.12767532E-06      0.19742868E-05     -0.13528976E-17      0.82266563E-12     -0.56373894E-24      0.14301635E-13     -0.33821104E-25
    0.241781743455         0.13228953E-06      0.19364740E-05     -0.17929084E-17      0.82521321E-12     -0.76403387E-24      0.14507835E-13     -0.34012017E-25
    0.244921766097         0.13703207E-06      0.19014087E-05     -0.14623253E-17      0.82855789E-12     -0.63722291E-24      0.14714871E-13     -0.34171244E-25
    0.248061788739         0.14190580E-06      0.18651939E-05     -0.67677414E-18      0.83103020E-12     -0.30153419E-24      0.14922524E-13     -0.34246589E-25
    0.251201811381         0.14691362E-06      0.18316368E-05     -0.27405797E-17      0.83431719E-12     -0.12483440E-23      0.15131000E-13     -0.34558519E-25
    0.254341834024         0.15205849E-06      0.17970052E-05     -0.44478131E-17      0.83674814E-12     -0.20710565E-23      0.15340082E-13     -0.35076025E-25
    0.257481856666         0.15734340E-06      0.17648179E-05     -0.27347744E-17      0.83995176E-12     -0.13015953E-23      0.15549965E-13     -0.35401261E-25
    0.260621879308         0.16277140E-06      0.17317244E-05     -0.26863764E-17      0.84236158E-12     -0.13067323E-23      0.15760450E-13     -0.35727781E-25
    0.263761901951         0.16834557E-06      0.17008645E-05     -0.48009130E-18      0.84549667E-12     -0.23865251E-24      0.15971719E-13     -0.35787414E-25
    0.266901924593         0.17406906E-06      0.16693082E-05     -0.41402363E-18      0.84792795E-12     -0.21030401E-24      0.16183595E-13     -0.35839964E-25
    0.270041947235         0.17994505E-06      0.16396408E-05     -0.15491198E-17      0.85096151E-12     -0.80398179E-24      0.16396229E-13     -0.36040859E-25
    0.273181969877         0.18597676E-06      0.16095654E-05     -0.21370835E-17      0.85342981E-12     -0.11331324E-23      0.16609480E-13     -0.36324000E-25
    0.276321992520         0.19216747E-06      0.15811818E-05     -0.15759048E-17      0.85644360E-12     -0.85358536E-24      0.16823484E-13     -0.36537290E-25
    0.279462015162         0.19852052E-06      0.15525508E-05     -0.29528886E-17      0.85897588E-12     -0.16337372E-23      0.17038120E-13     -0.36945520E-25
    0.282602037804         0.20503926E-06      0.15253792E-05     -0.62170129E-18      0.86196986E-12     -0.35131447E-24      0.17253505E-13     -0.37033305E-25
    0.285742060446         0.21172710E-06      0.14981200E-05     -0.68210796E-18      0.86457251E-12     -0.39364790E-24      0.17469540E-13     -0.37131668E-25
    0.288882083089         0.21858752E-06      0.14721204E-05     -0.18002459E-17      0.86756223E-12     -0.10609359E-23      0.17686322E-13     -0.37396769E-25
    0.292022105731         0.22562402E-06      0.14461503E-05     -0.31816288E-17      0.87023303E-12     -0.19145717E-23      0.17903772E-13     -0.37875173E-25
    0.295162128373         0.23284014E-06      0.14212826E-05     -0.49677038E-17      0.87323311E-12     -0.30521470E-23      0.18121971E-13     -0.38637828E-25
    0.298302151016         0.24023948E-06      0.13965126E-05     -0.46622002E-17      0.87596229E-12     -0.29243642E-23      0.18340852E-13     -0.39368554E-25
    0.301442173658         0.24782569E-06      0.13727940E-05     -0.48853644E-18      0.87902298E-12     -0.31281806E-24      0.18560498E-13     -0.39446720E-25
    0.304582196300         0.25560245E-06      0.13492337E-05     -0.11906848E-17      0.88186118E-12     -0.77823337E-24      0.18780853E-13     -0.39641181E-25
    0.307722218942         0.26357350E-06      0.13265017E-05     -0.15320417E-17      0.88491839E-12     -0.10220356E-23      0.19001972E-13     -0.39896562E-25
    0.310862241585         0.27174260E-06      0.13039499E-05     -0.22344265E-17      0.88777558E-12     -0.15212772E-23      0.19223805E-13     -0.40276691E-25
    0.314002264227         0.28011357E-06      0.12822957E-05     -0.13261763E-17      0.89092694E-12     -0.92141478E-24      0.19446426E-13     -0.40506930E-25
    0.317142286869         0.28869027E-06      0.12607443E-05     -0.26716402E-17      0.89383541E-12     -0.18941245E-23      0.19669773E-13     -0.40980224E-25
    0.320282309511         0.29747662E-06      0.12400435E-05     -0.24559937E-18      0.89703492E-12     -0.17766410E-24      0.19893919E-13     -0.41024618E-25
    0.323422332154         0.30647655E-06      0.12195169E-05     -0.60608614E-19      0.90005203E-12     -0.44731569E-25      0.20118820E-13     -0.41035795E-25
    0.326562354796         0.31569405E-06      0.11996899E-05     -0.72070121E-18      0.90327879E-12     -0.54263533E-24      0.20344527E-13     -0.41171386E-25
    0.329702377438         0.32513315E-06      0.11801120E-05     -0.22805682E-17      0.90638964E-12     -0.17515994E-23      0.20571011E-13     -0.41609067E-25
    0.332842400080         0.33479793E-06      0.11611490E-05     -0.13027715E-17      0.90967152E-12     -0.10206219E-23      0.20798315E-13     -0.41864095E-25
    0.335982422723         0.34469248E-06      0.11424480E-05     -0.15102431E-17      0.91286013E-12     -0.12067426E-23      0.21026416E-13     -0.42165630E-25
    0.339122445365         0.35482098E-06      0.11243161E-05      0.80693058E-18      0.91620727E-12      0.65756921E-24      0.21255354E-13     -0.42001320E-25
    0.342262468007         0.36518760E-06      0.11064395E-05      0.31631297E-18      0.91946868E-12      0.26286108E-24      0.21485106E-13     -0.41935638E-25
    0.345402490650         0.37579657E-06      0.10890995E-05     -0.62073427E-18      0.92288464E-12     -0.52599983E-24      0.21715712E-13     -0.42067072E-25
    0.348542513292         0.38665215E-06      0.10719986E-05     -0.13053791E-17      0.92621419E-12     -0.11278565E-23      0.21947150E-13     -0.42348895E-25
    0.351682535934         0.39775867E-06      0.10554118E-05     -0.15709992E-17      0.92970107E-12     -0.13838766E-23      0.22179459E-13     -0.42694691E-25
    0.354822558576         0.40912044E-06      0.10390402E-05     -0.17418525E-17      0.93309285E-12     -0.15642418E-23      0.22412615E-13     -0.43085556E-25
    0.357962581219         0.42074186E-06      0.10231680E-05     -0.10436964E-17      0.93665048E-12     -0.95544308E-24      0.22646661E-13     -0.43324298E-25
    0.361102603861         0.43262732E-06      0.10074821E-05     -0.53056235E-18      0.94009820E-12     -0.49507648E-24      0.22881568E-13     -0.43448005E-25
    0.364242626503         0.44478129E-06      0.99228384E-06     -0.11284552E-17      0.94372226E-12     -0.10732295E-23      0.23117381E-13     -0.43716178E-25
    0.367382649145         0.45720823E-06      0.97724312E-06     -0.15980146E-17      0.94721934E-12     -0.15489189E-23      0.23354067E-13     -0.44103214E-25
    0.370522671788         0.46991265E-06      0.96267832E-06     -0.13936283E-17      0.95090271E-12     -0.13765812E-23      0.23591674E-13     -0.44447188E-25
    0.373662694430         0.48289911E-06      0.94824118E-06     -0.22002865E-17      0.95443865E-12     -0.22146670E-23      0.23830164E-13     -0.45000578E-25
    0.376802717072         0.49617218E-06      0.93427043E-06     -0.15960357E-17      0.95817210E-12     -0.16368674E-23      0.24069588E-13     -0.45409590E-25
    0.379942739715         0.50973645E-06      0.92039183E-06     -0.12064282E-17      0.96172928E-12     -0.12606123E-23      0.24309900E-13     -0.45724586E-25
    0.383082762357         0.52359657E-06      0.90698221E-06     -0.14502874E-17      0.96550714E-12     -0.15438702E-23      0.24551156E-13     -0.46110360E-25
