 
 # Omega; pulse ft; proj flux t=    1000.25000000000     
    0.000000000000         0.32818054E-12      0.00000000E+00      0.00000000E+00      0.00000000E+00      0.00000000E+00      0.00000000E+00      0.00000000E+00
    0.003140807452         0.15084240E-10      0.98998173E-06      0.27557719E-13      0.29468089E-15      0.82029119E-23      0.92553592E-18      0.25763767E-25
    0.006281614903         0.59367197E-10      0.12081186E-05      0.38705179E-13      0.70766462E-15      0.22671852E-22      0.31481742E-17      0.96971688E-25
    0.009422422355         0.13322140E-09      0.93675384E-06      0.36302740E-15      0.82087983E-15      0.31812186E-24      0.57263997E-17      0.97970848E-25
    0.012563229807         0.23672078E-09      0.71406297E-06     -0.45422918E-14      0.83390057E-15     -0.53046018E-23      0.83455208E-17      0.81310115E-25
    0.015704037259         0.36996889E-09      0.58004930E-06     -0.30808724E-14      0.84695722E-15     -0.44985264E-23      0.11005650E-16      0.67181110E-25
    0.018844844710         0.53309892E-09      0.48680452E-06     -0.81940510E-15      0.85351768E-15     -0.14366685E-23      0.13686385E-16      0.62668811E-25
    0.021985652162         0.72627381E-09      0.42010196E-06      0.82765597E-16      0.86011874E-15      0.16945467E-24      0.16387852E-16      0.63201035E-25
    0.025126459614         0.94968623E-09      0.36939187E-06      0.39878430E-15      0.86532419E-15      0.93417785E-24      0.19105669E-16      0.66135108E-25
    0.028267267066         0.12035587E-08      0.32991171E-06     -0.19858669E-14      0.87061045E-15     -0.52405428E-23      0.21840089E-16      0.49675572E-25
    0.031408074517         0.14881438E-08      0.29801525E-06     -0.23035009E-15      0.87515454E-15     -0.67644836E-24      0.24588781E-16      0.47550978E-25
    0.034548881969         0.18037240E-08      0.27182382E-06     -0.73080406E-15      0.87956166E-15     -0.23647200E-23      0.27351315E-16      0.40123848E-25
    0.037689689421         0.21506121E-08      0.25000422E-06     -0.74883730E-16      0.88415731E-15     -0.26483152E-24      0.30128282E-16      0.39292063E-25
    0.040830496872         0.25291509E-08      0.23153975E-06     -0.47524679E-15      0.88891107E-15     -0.18245340E-23      0.32920181E-16      0.33561553E-25
    0.043971304324         0.29397140E-08      0.21561730E-06      0.55279080E-15      0.89343303E-15      0.22905470E-23      0.35726282E-16      0.40755720E-25
    0.047112111776         0.33827052E-08      0.20178317E-06     -0.17646218E-15      0.89796456E-15     -0.78528249E-24      0.38546616E-16      0.38289299E-25
    0.050252919228         0.38585594E-08      0.18963518E-06      0.46463226E-15      0.90245483E-15      0.22111384E-23      0.41381053E-16      0.45234059E-25
    0.053393726679         0.43677419E-08      0.17889019E-06      0.30347259E-15      0.90697629E-15      0.15386112E-23      0.44229691E-16      0.50066541E-25
    0.056534534131         0.49107496E-08      0.16930513E-06     -0.13246405E-15      0.91147919E-15     -0.71313982E-24      0.47092471E-16      0.47826706E-25
    0.059675341583         0.54881104E-08      0.16070716E-06      0.50331920E-15      0.91602183E-15      0.28688913E-23      0.49969519E-16      0.56837341E-25
    0.062816149035         0.61003835E-08      0.15295966E-06      0.22773842E-15      0.92067302E-15      0.13707707E-23      0.52861176E-16      0.61142668E-25
    0.065956956486         0.67481601E-08      0.14593026E-06      0.49007662E-16      0.92536442E-15      0.31076452E-24      0.55767568E-16      0.62118719E-25
    0.069097763938         0.74320630E-08      0.13949610E-06     -0.37778116E-16      0.92992972E-15     -0.25184212E-24      0.58688298E-16      0.61327732E-25
    0.072238571390         0.81527474E-08      0.13360327E-06      0.32723057E-15      0.93453293E-15      0.22889240E-23      0.61623486E-16      0.68516801E-25
    0.075379378841         0.89109006E-08      0.12818863E-06     -0.59389561E-16      0.93920680E-15     -0.43513282E-24      0.64573354E-16      0.67150133E-25
    0.078520186293         0.97072426E-08      0.12319102E-06      0.35960401E-16      0.94392238E-15      0.27553817E-24      0.67538032E-16      0.68015545E-25
    0.081660993745         0.10542526E-07      0.11856164E-06     -0.84608909E-16      0.94867377E-15     -0.67700020E-24      0.70517634E-16      0.65889218E-25
    0.084801801197         0.11417538E-07      0.11425951E-06      0.62603595E-16      0.95345980E-15      0.52240740E-24      0.73512267E-16      0.67529999E-25
    0.087942608648         0.12333096E-07      0.11025041E-06      0.23690750E-15      0.95828708E-15      0.20591797E-23      0.76522062E-16      0.73997486E-25
    0.091083416100         0.13290054E-07      0.10650327E-06     -0.18532872E-15      0.96314808E-15     -0.16759955E-23      0.79547125E-16      0.68733507E-25
    0.094224223552         0.14289299E-07      0.10299361E-06     -0.53709940E-16      0.96805784E-15     -0.50483064E-24      0.82587608E-16      0.67147931E-25
    0.097365031004         0.15331753E-07      0.99696964E-07     -0.25534653E-16      0.97300127E-15     -0.24920769E-24      0.85643618E-16      0.66365218E-25
    0.100505838455         0.16418370E-07      0.96595202E-07     -0.97666640E-17      0.97799577E-15     -0.98884374E-25      0.88715314E-16      0.66054641E-25
    0.103646645907         0.17550142E-07      0.93669166E-07      0.12898454E-15      0.98302532E-15      0.13536479E-23      0.91802808E-16      0.70306188E-25
    0.106787453359         0.18728094E-07      0.90904752E-07     -0.57654363E-16      0.98810389E-15     -0.62668341E-24      0.94906252E-16      0.68337896E-25
    0.109928260810         0.19953287E-07      0.88287200E-07     -0.27393628E-15      0.99322014E-15     -0.30817495E-23      0.98025765E-16      0.58658714E-25
    0.113069068262         0.21226819E-07      0.85806364E-07     -0.60078990E-17      0.99839704E-15     -0.69904705E-25      0.10116154E-15      0.58439157E-25
    0.116209875714         0.22549823E-07      0.83449003E-07     -0.16850749E-15      0.10036076E-14     -0.20265718E-23      0.10431368E-15      0.52074085E-25
    0.119350683166         0.23923468E-07      0.81207430E-07     -0.49530986E-16      0.10088757E-14     -0.61534529E-24      0.10748236E-15      0.50141404E-25
    0.122491490617         0.25348961E-07      0.79071282E-07     -0.41290948E-16      0.10141815E-14     -0.52960462E-24      0.11066771E-15      0.48478018E-25
    0.125632298069         0.26827544E-07      0.77034408E-07     -0.41423518E-16      0.10195465E-14     -0.54823817E-24      0.11386991E-15      0.46756108E-25
    0.128773105521         0.28360500E-07      0.75088314E-07     -0.33713607E-16      0.10249525E-14     -0.46018940E-24      0.11708909E-15      0.45310741E-25
    0.131913912973         0.29949146E-07      0.73228307E-07      0.11138530E-16      0.10304229E-14      0.15673442E-24      0.12032545E-15      0.45803014E-25
    0.135054720424         0.31594841E-07      0.71446569E-07     -0.64205735E-17      0.10359301E-14     -0.93094259E-25      0.12357910E-15      0.45510623E-25
    0.138195527876         0.33298978E-07      0.69740211E-07     -0.33677368E-16      0.10415086E-14     -0.50294180E-24      0.12685028E-15      0.43930980E-25
    0.141336335328         0.35062992E-07      0.68102115E-07     -0.43313360E-16      0.10471247E-14     -0.66597772E-24      0.13013910E-15      0.41839272E-25
    0.144477142779         0.36888357E-07      0.66530301E-07      0.34315951E-16      0.10528157E-14      0.54303634E-24      0.13344579E-15      0.43544844E-25
    0.147617950231         0.38776586E-07      0.65018622E-07     -0.21211439E-16      0.10585487E-14     -0.34533708E-24      0.13677049E-15      0.42460207E-25
    0.150758757683         0.40729231E-07      0.63564752E-07      0.96967879E-18      0.10643457E-14      0.16236568E-25      0.14011339E-15      0.42511203E-25
    0.153899565135         0.42747886E-07      0.62165038E-07     -0.73570375E-17      0.10702029E-14     -0.12665516E-24      0.14347469E-15      0.42113404E-25
    0.157040372586         0.44834184E-07      0.60816563E-07      0.30319195E-17      0.10761245E-14      0.53648587E-25      0.14685459E-15      0.42281903E-25
    0.160181180038         0.46989799E-07      0.59515408E-07     -0.16458879E-17      0.10820920E-14     -0.29925061E-25      0.15025324E-15      0.42187915E-25
    0.163321987490         0.49216447E-07      0.58261022E-07      0.50495232E-16      0.10881440E-14      0.94310197E-24      0.15367089E-15      0.45150016E-25
    0.166462794942         0.51515886E-07      0.57048744E-07      0.84765589E-16      0.10942404E-14      0.16258716E-23      0.15710769E-15      0.50256566E-25
    0.169603602393         0.53889915E-07      0.55878336E-07      0.38322132E-16      0.11004202E-14      0.75468334E-24      0.16056389E-15      0.52626881E-25
    0.172744409845         0.56340375E-07      0.54745944E-07     -0.31107757E-17      0.11066502E-14     -0.62882110E-25      0.16403967E-15      0.52429380E-25
    0.175885217297         0.58869149E-07      0.53651117E-07     -0.79151188E-17      0.11129608E-14     -0.16419447E-24      0.16753526E-15      0.51913677E-25
    0.179026024748         0.61478167E-07      0.52590878E-07     -0.27177524E-16      0.11193292E-14     -0.57843865E-24      0.17105086E-15      0.50096913E-25
    0.182166832200         0.64169396E-07      0.51564984E-07     -0.23793068E-16      0.11257869E-14     -0.51945959E-24      0.17458674E-15      0.48465390E-25
    0.185307639652         0.66944851E-07      0.50570237E-07      0.11854347E-17      0.11323000E-14      0.26542643E-25      0.17814308E-15      0.48548756E-25
    0.188448447104         0.69806589E-07      0.49606428E-07      0.23490764E-16      0.11388971E-14      0.53931645E-24      0.18172013E-15      0.50242645E-25
    0.191589254555         0.72756711E-07      0.48671389E-07      0.20224331E-16      0.11455613E-14      0.47601294E-24      0.18531812E-15      0.51737710E-25
    0.194730062007         0.75797365E-07      0.47764742E-07      0.20109477E-16      0.11523150E-14      0.48513718E-24      0.18893732E-15      0.53261432E-25
    0.197870869459         0.78930738E-07      0.46884181E-07      0.56341946E-18      0.11591331E-14      0.13929606E-25      0.19257794E-15      0.53305182E-25
    0.201011676911         0.82159069E-07      0.46029595E-07     -0.20895564E-16      0.11660416E-14     -0.52933546E-24      0.19624025E-15      0.51642642E-25
    0.204152484362         0.85484636E-07      0.45199057E-07     -0.73461155E-17      0.11730201E-14     -0.19064869E-24      0.19992448E-15      0.51043851E-25
    0.207293291814         0.88909765E-07      0.44392444E-07      0.14115000E-16      0.11800922E-14      0.37522156E-24      0.20363092E-15      0.52222349E-25
    0.210434099266         0.92436830E-07      0.43608160E-07      0.13186303E-16      0.11872423E-14      0.35900018E-24      0.20735982E-15      0.53349900E-25
    0.213574906717         0.96068246E-07      0.42846185E-07      0.98308388E-17      0.11944954E-14      0.27407088E-24      0.21111150E-15      0.54210704E-25
    0.216715714169         0.99806478E-07      0.42104880E-07      0.13899358E-16      0.12018311E-14      0.39673977E-24      0.21488622E-15      0.55456787E-25
    0.219856521621         0.10365403E-06      0.41383977E-07      0.25414201E-17      0.12092658E-14      0.74261890E-25      0.21868429E-15      0.55690029E-25
    0.222997329073         0.10761347E-06      0.40682551E-07     -0.24144364E-17      0.12167962E-14     -0.72214669E-25      0.22250601E-15      0.55463217E-25
    0.226138136524         0.11168740E-06      0.39999796E-07      0.12866289E-16      0.12244211E-14      0.39384591E-24      0.22635168E-15      0.56700211E-25
    0.229278943976         0.11587846E-06      0.39335375E-07     -0.84468454E-17      0.12321526E-14     -0.26459141E-24      0.23022164E-15      0.55869180E-25
    0.232419751428         0.12018935E-06      0.38688452E-07      0.10622928E-16      0.12399865E-14      0.34047079E-24      0.23411620E-15      0.56938534E-25
    0.235560558880         0.12462281E-06      0.38058837E-07     -0.64200138E-17      0.12479384E-14     -0.21051042E-24      0.23803573E-15      0.56277361E-25
    0.238701366331         0.12918164E-06      0.37445207E-07      0.22832382E-16      0.12559860E-14      0.76584309E-24      0.24198054E-15      0.58682727E-25
    0.241842173783         0.13386868E-06      0.36847621E-07      0.32097926E-18      0.12641513E-14      0.11012010E-25      0.24595100E-15      0.58717313E-25
    0.244982981235         0.13868680E-06      0.36265334E-07     -0.22916898E-17      0.12724291E-14     -0.80407719E-25      0.24994745E-15      0.58464768E-25
    0.248123788686         0.14363896E-06      0.35698276E-07     -0.69928475E-17      0.12808367E-14     -0.25089995E-24      0.25397031E-15      0.57676740E-25
    0.251264596138         0.14872811E-06      0.35145159E-07      0.10039108E-16      0.12893474E-14      0.36829816E-24      0.25801991E-15      0.58833493E-25
    0.254405403590         0.15395730E-06      0.34606729E-07      0.44085484E-17      0.12980074E-14      0.16535306E-24      0.26209670E-15      0.59352835E-25
    0.257546211042         0.15932959E-06      0.34081269E-07      0.57597440E-17      0.13067717E-14      0.22084478E-24      0.26620102E-15      0.60046466E-25
    0.260687018493         0.16484812E-06      0.33569794E-07      0.16842866E-16      0.13156972E-14      0.66012058E-24      0.27033337E-15      0.62119778E-25
    0.263827825945         0.17051605E-06      0.33070469E-07      0.64553734E-19      0.13247310E-14      0.25858821E-26      0.27449409E-15      0.62127900E-25
    0.266968633397         0.17633661E-06      0.32584494E-07      0.28959249E-17      0.13339388E-14      0.11855291E-24      0.27868374E-15      0.62500251E-25
    0.270109440849         0.18231305E-06      0.32109932E-07     -0.49472785E-17      0.13432599E-14     -0.20696029E-24      0.28290266E-15      0.61850229E-25
    0.273250248300         0.18844869E-06      0.31648212E-07     -0.32986843E-17      0.13527714E-14     -0.14099898E-24      0.28715145E-15      0.61407378E-25
    0.276391055752         0.19474689E-06      0.31197071E-07      0.86378762E-17      0.13623950E-14      0.37722128E-24      0.29143047E-15      0.62592158E-25
    0.279531863204         0.20121105E-06      0.30758474E-07      0.16903987E-17      0.13722334E-14      0.75414065E-25      0.29574039E-15      0.62829019E-25
    0.282672670655         0.20784464E-06      0.30330048E-07      0.60791388E-17      0.13821997E-14      0.27703826E-24      0.30008162E-15      0.63699143E-25
    0.285813478107         0.21465116E-06      0.29913335E-07      0.87738943E-18      0.13923808E-14      0.40839988E-25      0.30445482E-15      0.63827413E-25
    0.288954285559         0.22163414E-06      0.29505272E-07     -0.13968085E-17      0.14026516E-14     -0.66402901E-25      0.30886027E-15      0.63618855E-25
    0.292095093011         0.22879719E-06      0.29110188E-07      0.60486368E-17      0.14132341E-14      0.29364770E-24      0.31329897E-15      0.64541145E-25
    0.295235900462         0.23614394E-06      0.28722806E-07     -0.36108338E-17      0.14238924E-14     -0.17900197E-24      0.31777114E-15      0.63978935E-25
    0.298376707914         0.24367808E-06      0.28347781E-07      0.20923919E-17      0.14348724E-14      0.10591007E-24      0.32227780E-15      0.64311578E-25
    0.301517515366         0.25140334E-06      0.27979922E-07     -0.22839869E-17      0.14459313E-14     -0.11803065E-24      0.32681919E-15      0.63940866E-25
    0.304658322818         0.25932350E-06      0.27624117E-07     -0.31941963E-17      0.14573367E-14     -0.16851288E-24      0.33139641E-15      0.63411600E-25
    0.307799130269         0.26744238E-06      0.27275260E-07      0.16647472E-17      0.14688397E-14      0.89650729E-25      0.33600975E-15      0.63693175E-25
    0.310939937721         0.27576385E-06      0.26938348E-07      0.29705377E-17      0.14807251E-14      0.16328209E-24      0.34066042E-15      0.64206013E-25
    0.314080745173         0.28429181E-06      0.26607719E-07     -0.28913902E-17      0.14927028E-14     -0.16220805E-24      0.34534871E-15      0.63696549E-25
    0.317221552624         0.29303021E-06      0.26289087E-07      0.41792968E-18      0.15051088E-14      0.23927405E-25      0.35007597E-15      0.63771700E-25
    0.320362360076         0.30198307E-06      0.25975935E-07     -0.24494677E-17      0.15175918E-14     -0.14310523E-24      0.35484243E-15      0.63322234E-25
    0.323503167528         0.31115440E-06      0.25675148E-07     -0.27461690E-17      0.15305694E-14     -0.16370704E-24      0.35964966E-15      0.62808062E-25
    0.326643974980         0.32054830E-06      0.25379070E-07     -0.41555567E-17      0.15436087E-14     -0.25274974E-24      0.36449784E-15      0.62014224E-25
    0.329784782431         0.33016890E-06      0.25095697E-07     -0.38894521E-18      0.15572111E-14     -0.24134408E-25      0.36938874E-15      0.61938422E-25
    0.332925589883         0.34002034E-06      0.24816417E-07     -0.63859963E-17      0.15708672E-14     -0.40423048E-24      0.37432253E-15      0.60668812E-25
    0.336066397335         0.35010685E-06      0.24550164E-07     -0.12083075E-17      0.15851581E-14     -0.78018152E-25      0.37930120E-15      0.60423772E-25
    0.339207204787         0.36043265E-06      0.24287272E-07     -0.31782694E-17      0.15994861E-14     -0.20931119E-24      0.38432488E-15      0.59766366E-25
    0.342348012238         0.37100205E-06      0.24038054E-07      0.16795078E-17      0.16145462E-14      0.11280626E-24      0.38939586E-15      0.60120669E-25
    0.345488819690         0.38181936E-06      0.23791300E-07      0.32326314E-18      0.16296142E-14      0.22142304E-25      0.39451417E-15      0.60190213E-25
    0.348629627142         0.39288894E-06      0.23559125E-07     -0.50823853E-17      0.16455358E-14     -0.35498971E-24      0.39968248E-15      0.59075259E-25
    0.351770434593         0.40421519E-06      0.23328516E-07     -0.14006666E-17      0.16614339E-14     -0.99754094E-25      0.40490072E-15      0.58761951E-25
    0.354911242045         0.41580254E-06      0.23113424E-07      0.64190035E-18      0.16783184E-14      0.46609846E-25      0.41017200E-15      0.58908343E-25
    0.358052049497         0.42765547E-06      0.22898842E-07     -0.28116300E-17      0.16951341E-14     -0.20813672E-24      0.41549609E-15      0.58254626E-25
    0.361192856949         0.43977848E-06      0.22701256E-07     -0.62938398E-18      0.17131184E-14     -0.47495578E-25      0.42087666E-15      0.58105451E-25
    0.364333664400         0.45217610E-06      0.22502759E-07      0.16172223E-17      0.17309589E-14      0.12440009E-24      0.42631327E-15      0.58496168E-25
    0.367474471852         0.46485292E-06      0.22323221E-07      0.54869706E-18      0.17502010E-14      0.43019335E-25      0.43181031E-15      0.58631284E-25
    0.370615279304         0.47781353E-06      0.22141113E-07      0.42533922E-18      0.17692013E-14      0.33987031E-25      0.43736703E-15      0.58738030E-25
    0.373756086755         0.49106257E-06      0.21980282E-07      0.99686839E-18      0.17898824E-14      0.81176265E-25      0.44298871E-15      0.58992989E-25
    0.376896894207         0.50460471E-06      0.21814993E-07      0.16477824E-17      0.18101997E-14      0.13673235E-24      0.44867420E-15      0.59422439E-25
    0.380037701659         0.51844464E-06      0.21673995E-07     -0.16365541E-17      0.18325564E-14     -0.13837217E-24      0.45442991E-15      0.58987839E-25
    0.383178509111         0.53258708E-06      0.21526227E-07      0.21276694E-17      0.18543857E-14      0.18328896E-24      0.46025417E-15      0.59563514E-25
