 
 # Omega; pulse ft; projected flux at t=    1000.25000000000     
    0.000000000000         0.18717486E-09      0.00000000E+00      0.00000000E+00     -0.28315605E-13      0.32311743E-25
    0.003140022642         0.20186436E-09     -0.57052544E-06     -0.94883901E-18     -0.14283164E-13     -0.23754284E-25
    0.006280045285         0.24594737E-09      0.66272614E-06     -0.60626913E-18      0.10107321E-13     -0.92462880E-26
    0.009420067927         0.31946741E-09      0.98370339E-06     -0.15353705E-17      0.12991498E-13     -0.20277214E-25
    0.012560090569         0.42249703E-09      0.11770369E-05     -0.95843204E-18      0.15418550E-13     -0.12554943E-25
    0.015700113211         0.55513782E-09      0.11572246E-05      0.37141464E-17      0.15934493E-13      0.51142222E-25
    0.018840135854         0.71752051E-09      0.11333636E-05     -0.10441223E-17      0.16809008E-13     -0.15485463E-25
    0.021980158496         0.90980495E-09      0.10551001E-05     -0.25498419E-17      0.17007234E-13     -0.41101083E-25
    0.025120181138         0.11321802E-08      0.99624944E-06     -0.15258213E-17      0.17485716E-13     -0.26780521E-25
    0.028260203780         0.13848647E-08      0.92127540E-06      0.30864502E-18      0.17581020E-13      0.58899806E-26
    0.031400226423         0.16681061E-08      0.87345699E-06     -0.55051557E-18      0.18069867E-13     -0.11388933E-25
    0.034540249065         0.19821816E-08      0.82010239E-06     -0.71821141E-18      0.18327727E-13     -0.16050657E-25
    0.037680271707         0.23273981E-08      0.76378931E-06      0.25103515E-18      0.18371844E-13      0.60382865E-26
    0.040820294349         0.27040919E-08      0.71088093E-06     -0.53726350E-18      0.18338539E-13     -0.13859744E-25
    0.043960316992         0.31126296E-08      0.67244567E-06     -0.45978612E-18      0.18541564E-13     -0.12677833E-25
    0.047100339634         0.35534072E-08      0.63297923E-06      0.43592246E-19      0.18596574E-13      0.12807157E-26
    0.050240362276         0.40268513E-08      0.60136564E-06     -0.56375974E-18      0.18770420E-13     -0.17596627E-25
    0.053380384919         0.45334185E-08      0.56944145E-06     -0.71202674E-18      0.18832836E-13     -0.23548484E-25
    0.056520407561         0.50735959E-08      0.54319197E-06     -0.43522626E-19      0.18988317E-13     -0.15214169E-26
    0.059660430203         0.56479014E-08      0.51682882E-06     -0.45135750E-18      0.19053291E-13     -0.16639640E-25
    0.062800452845         0.62568834E-08      0.49475404E-06     -0.25692171E-18      0.19195843E-13     -0.99682436E-26
    0.065940475488         0.69011217E-08      0.47264415E-06     -0.78405112E-18      0.19263023E-13     -0.31954685E-25
    0.069080498130         0.75812269E-08      0.45389237E-06     -0.86043561E-18      0.19398112E-13     -0.36772652E-25
    0.072220520772         0.82978416E-08      0.43514483E-06     -0.15357422E-17      0.19469773E-13     -0.68714025E-25
    0.075360543414         0.90516395E-08      0.41902061E-06     -0.29866379E-19      0.19599327E-13     -0.13969741E-26
    0.078500566057         0.98433265E-08      0.40304602E-06     -0.25017738E-18      0.19680960E-13     -0.12216300E-25
    0.081640588699         0.10673641E-07      0.38883874E-06     -0.43992913E-18      0.19796961E-13     -0.22398128E-25
    0.084780611341         0.11543353E-07      0.37487500E-06     -0.29752696E-18      0.19876707E-13     -0.15775542E-25
    0.087920633984         0.12453265E-07      0.36241196E-06     -0.40509360E-19      0.19990216E-13     -0.22344485E-26
    0.091060656626         0.13404215E-07      0.35019566E-06     -0.31845254E-18      0.20074461E-13     -0.18254833E-25
    0.094200679268         0.14397070E-07      0.33912512E-06     -0.19486849E-18      0.20183784E-13     -0.11598030E-25
    0.097340701910         0.15432734E-07      0.32833065E-06     -0.45115010E-18      0.20271336E-13     -0.27854284E-25
    0.100480724553         0.16512144E-07      0.31843676E-06     -0.43044015E-18      0.20378229E-13     -0.27545840E-25
    0.103620747195         0.17636269E-07      0.30885027E-06      0.79835265E-19      0.20470597E-13      0.52914817E-26
    0.106760769837         0.18806114E-07      0.29994037E-06     -0.76062592E-19      0.20575237E-13     -0.52177232E-26
    0.109900792479         0.20022721E-07      0.29138215E-06      0.15744138E-19      0.20673202E-13      0.11170270E-26
    0.113040815122         0.21287162E-07      0.28329203E-06      0.66220740E-19      0.20774921E-13      0.48562277E-26
    0.116180837764         0.22600547E-07      0.27560475E-06      0.19112273E-18      0.20878231E-13      0.14478359E-25
    0.119320860406         0.23964023E-07      0.26821417E-06     -0.10741975E-20      0.20977205E-13     -0.84013686E-28
    0.122460883048         0.25378770E-07      0.26128053E-06     -0.43789073E-18      0.21086416E-13     -0.35339588E-25
    0.125600905691         0.26846007E-07      0.25448773E-06     -0.21346745E-18      0.21182456E-13     -0.17768106E-25
    0.128740928333         0.28366986E-07      0.24821576E-06     -0.11720575E-18      0.21298472E-13     -0.10056990E-25
    0.131880950975         0.29943001E-07      0.24193130E-06     -0.13351624E-18      0.21390840E-13     -0.11805106E-25
    0.135020973618         0.31575378E-07      0.23625115E-06      0.28979548E-19      0.21515121E-13      0.26391342E-26
    0.138160996260         0.33265483E-07      0.23039127E-06     -0.13539411E-18      0.21602148E-13     -0.12694941E-25
    0.141301018902         0.35014721E-07      0.22525545E-06     -0.32025869E-18      0.21737181E-13     -0.30905006E-25
    0.144441041544         0.36824533E-07      0.21973191E-06     -0.17381778E-18      0.21815357E-13     -0.17256924E-25
    0.147581064187         0.38696400E-07      0.21512259E-06     -0.27242950E-18      0.21965874E-13     -0.27817405E-25
    0.150721086829         0.40631842E-07      0.20982670E-06      0.81878979E-19      0.22028036E-13      0.85958229E-26
    0.153861109471         0.42632417E-07      0.20577815E-06      0.67541120E-19      0.22204085E-13      0.72878915E-26
    0.157001132113         0.44699723E-07      0.20054159E-06     -0.92815376E-20      0.22234586E-13     -0.10290691E-26
    0.160141154756         0.46835399E-07      0.19718462E-06     -0.27958353E-19      0.22457781E-13     -0.31842370E-26
    0.163281177398         0.49041122E-07      0.19174431E-06      0.18674000E-18      0.22426903E-13      0.21841586E-25
    0.166421200040         0.51318613E-07      0.18925260E-06      0.96948064E-19      0.22726401E-13      0.11642009E-25
    0.169561222683         0.53669630E-07      0.18373226E-06     -0.39241226E-19      0.22646966E-13     -0.48369006E-26
    0.172701245325         0.56095974E-07      0.18105121E-06     -0.18736972E-18      0.22901304E-13     -0.23700537E-25
    0.175841267967         0.58599489E-07      0.17779874E-06     -0.13410344E-18      0.23074072E-13     -0.17403455E-25
    0.178981290609         0.61182058E-07      0.17295905E-06     -0.10198049E-18      0.23024080E-13     -0.13575507E-25
    0.182121313252         0.63845608E-07      0.17132115E-06     -0.82579121E-19      0.23388576E-13     -0.11273611E-25
    0.185261335894         0.66592107E-07      0.16686008E-06     -0.76866725E-19      0.23356779E-13     -0.10759668E-25
    0.188401358536         0.69423567E-07      0.16449504E-06     -0.29298235E-19      0.23604687E-13     -0.42042342E-26
    0.191541381178         0.72342043E-07      0.16100203E-06     -0.94582957E-19      0.23680020E-13     -0.13911168E-25
    0.194681403821         0.75349631E-07      0.15824859E-06     -0.16695718E-18      0.23851684E-13     -0.25164268E-25
    0.197821426463         0.78448474E-07      0.15526762E-06     -0.14246476E-18      0.23978091E-13     -0.22000936E-25
    0.200961449105         0.81640757E-07      0.15247135E-06     -0.23209012E-19      0.24121542E-13     -0.36717531E-26
    0.204101471747         0.84928709E-07      0.14978513E-06     -0.13326244E-18      0.24271668E-13     -0.21594278E-25
    0.207241494390         0.88314602E-07      0.14706603E-06      0.68244973E-19      0.24405668E-13      0.11325282E-25
    0.210381517032         0.91800755E-07      0.14458484E-06     -0.22767083E-18      0.24568802E-13     -0.38687317E-25
    0.213521539674         0.95389531E-07      0.14198140E-06     -0.28935983E-18      0.24700913E-13     -0.50340764E-25
    0.216661562317         0.99083337E-07      0.13966529E-06      0.18575298E-19      0.24873093E-13      0.33080882E-26
    0.219801584959         0.10288463E-06      0.13718837E-06      0.29140640E-19      0.25006880E-13      0.53117949E-26
    0.222941607601         0.10679590E-06      0.13501323E-06     -0.16534506E-20      0.25186179E-13     -0.30844461E-27
    0.226081630243         0.11081969E-06      0.13266264E-06      0.69686427E-19      0.25323447E-13      0.13302167E-25
    0.229221652886         0.11495860E-06      0.13061261E-06      0.14438011E-18      0.25509002E-13      0.28197833E-25
    0.232361675528         0.11921526E-06      0.12838490E-06      0.92980577E-19      0.25650973E-13      0.18577280E-25
    0.235501698170         0.12359235E-06      0.12644874E-06      0.68320907E-20      0.25842504E-13      0.13962838E-26
    0.238641720812         0.12809259E-06      0.12433856E-06     -0.18717082E-19      0.25989984E-13     -0.39123557E-26
    0.241781743455         0.13271877E-06      0.12250635E-06      0.63579414E-19      0.26187254E-13      0.13590890E-25
    0.244921766097         0.13747370E-06      0.12050868E-06      0.26343822E-19      0.26341052E-13      0.57582902E-26
    0.248061788739         0.14236024E-06      0.11877280E-06      0.35954456E-19      0.26544124E-13      0.80353372E-26
    0.251201811381         0.14738131E-06      0.11688219E-06     -0.34110902E-19      0.26704875E-13     -0.77935513E-26
    0.254341834024         0.15253987E-06      0.11523547E-06      0.40058713E-20      0.26913755E-13      0.93558903E-27
    0.257481856666         0.15783893E-06      0.11344695E-06      0.67511656E-20      0.27082134E-13      0.16116428E-26
    0.260621879308         0.16328153E-06      0.11188348E-06     -0.22605914E-19      0.27296985E-13     -0.55153210E-26
    0.263761901951         0.16887077E-06      0.11019275E-06      0.39499284E-19      0.27473753E-13      0.98481395E-26
    0.266901924593         0.17460981E-06      0.10870736E-06      0.35407652E-19      0.27694813E-13      0.90206245E-26
    0.270041947235         0.18050182E-06      0.10710963E-06     -0.61824086E-20      0.27880555E-13     -0.16092762E-26
    0.273181969877         0.18655005E-06      0.10569691E-06      0.10527871E-19      0.28107885E-13      0.27996674E-26
    0.276321992520         0.19275778E-06      0.10418793E-06      0.19165730E-19      0.28303257E-13      0.52064820E-26
    0.279462015162         0.19912834E-06      0.10284436E-06      0.12005733E-19      0.28537328E-13      0.33313596E-26
    0.282602037804         0.20566511E-06      0.10142055E-06      0.30476635E-19      0.28743115E-13      0.86372381E-26
    0.285742060446         0.21237151E-06      0.10014221E-06      0.61344189E-19      0.28984231E-13      0.17754892E-25
    0.288882083089         0.21925100E-06      0.98799046E-07      0.50792046E-20      0.29200902E-13      0.15012023E-26
    0.292022105731         0.22630710E-06      0.97582078E-07     -0.13375526E-19      0.29449305E-13     -0.40366013E-26
    0.295162128373         0.23354337E-06      0.96314041E-07     -0.13699538E-19      0.29676935E-13     -0.42211947E-26
    0.298302151016         0.24096340E-06      0.95152730E-07     -0.51852621E-19      0.29932191E-13     -0.16311277E-25
    0.301442173658         0.24857086E-06      0.93989343E-07      0.26766944E-19      0.30181954E-13      0.85954284E-26
    0.304582196300         0.25636942E-06      0.92906427E-07      0.45238138E-19      0.30452995E-13      0.14828218E-25
    0.307722218942         0.26436283E-06      0.91779144E-07      0.12185935E-19      0.30704928E-13      0.40768332E-26
    0.310862241585         0.27255487E-06      0.90729477E-07      0.11877896E-19      0.30978253E-13      0.40555339E-26
    0.314002264227         0.28094936E-06      0.89682357E-07      0.89406638E-20      0.31248186E-13      0.31152117E-26
    0.317142286869         0.28955016E-06      0.88688312E-07     -0.20685400E-19      0.31532513E-13     -0.73545502E-26
    0.320282309511         0.29836118E-06      0.87710179E-07      0.60867706E-19      0.31818662E-13      0.22081006E-25
    0.323422332154         0.30738639E-06      0.86767866E-07      0.82808829E-19      0.32114124E-13      0.30648824E-25
    0.326562354796         0.31662976E-06      0.85855546E-07      0.44246327E-19      0.32417275E-13      0.16706496E-25
    0.329702377438         0.32609534E-06      0.84964096E-07     -0.16460740E-19      0.32725063E-13     -0.63400751E-26
    0.332842400080         0.33578719E-06      0.84112892E-07      0.43136742E-19      0.33045368E-13      0.16947099E-25
    0.335982422723         0.34570944E-06      0.83275974E-07      0.31883366E-19      0.33368520E-13      0.12775602E-25
    0.339122445365         0.35586624E-06      0.82480954E-07      0.10308151E-18      0.33705942E-13      0.42124383E-25
    0.342262468007         0.36626178E-06      0.81689136E-07      0.87133778E-19      0.34042321E-13      0.36311267E-25
    0.345402490650         0.37690029E-06      0.80968674E-07      0.43180394E-19      0.34406506E-13      0.18348905E-25
    0.348542513292         0.38778604E-06      0.80211014E-07     -0.19853054E-19      0.34753054E-13     -0.86017393E-26
    0.351682535934         0.39892335E-06      0.79554760E-07     -0.30828721E-19      0.35142072E-13     -0.13618106E-25
    0.354822558576         0.41031655E-06      0.78843556E-07     -0.15182346E-19      0.35505576E-13     -0.68370575E-26
    0.357962581219         0.42197002E-06      0.78246151E-07      0.65713077E-20      0.35919435E-13      0.30166041E-26
    0.361102603861         0.43388818E-06      0.77580734E-07     -0.16039611E-19      0.36301421E-13     -0.75052227E-26
    0.364242626503         0.44607547E-06      0.77043141E-07     -0.27578717E-19      0.36742957E-13     -0.13152678E-25
    0.367382649145         0.45853638E-06      0.76422195E-07     -0.91732851E-20      0.37144730E-13     -0.44586418E-26
    0.370522671788         0.47127541E-06      0.75945458E-07      0.23262115E-19      0.37617016E-13      0.11522102E-25
    0.373662694430         0.48429711E-06      0.75368525E-07      0.18008338E-19      0.38040367E-13      0.90892553E-26
    0.376802717072         0.49760605E-06      0.74952931E-07      0.62661144E-20      0.38546309E-13      0.32224968E-26
    0.379942739715         0.51120685E-06      0.74418751E-07     -0.31749345E-19      0.38992712E-13     -0.16635499E-25
    0.383082762357         0.52510413E-06      0.74068024E-07     -0.44810822E-19      0.39537220E-13     -0.23919840E-25
    0.386222784999         0.53930256E-06      0.73576228E-07     -0.22462933E-19      0.40008720E-13     -0.12214722E-25
    0.389362807641         0.55380682E-06      0.73290386E-07     -0.26518792E-19      0.40595079E-13     -0.14688590E-25
    0.392502830284         0.56862162E-06      0.72841642E-07     -0.21388247E-19      0.41094419E-13     -0.12066416E-25
    0.395642852926         0.58375171E-06      0.72623569E-07     -0.18850531E-19      0.41727750E-13     -0.10831060E-25
    0.398782875568         0.59920184E-06      0.72217345E-07     -0.42383436E-19      0.42257198E-13     -0.24800209E-25
    0.401922898210         0.61497679E-06      0.72070297E-07     -0.55427256E-19      0.42943242E-13     -0.33026451E-25
    0.405062920853         0.63108138E-06      0.71706400E-07     -0.16889787E-19      0.43505418E-13     -0.10247303E-25
    0.408202943495         0.64752043E-06      0.71633352E-07     -0.20161724E-19      0.44250192E-13     -0.12454536E-25
    0.411342966137         0.66429877E-06      0.71311784E-07     -0.44082854E-19      0.44848014E-13     -0.27723728E-25
    0.414482988779         0.68142128E-06      0.71316015E-07     -0.36373514E-20      0.45658179E-13     -0.23287174E-26
    0.417623011422         0.69889282E-06      0.71036730E-07     -0.55511861E-20      0.46294741E-13     -0.36177161E-26
    0.420763034064         0.71671828E-06      0.71120195E-07      0.10465251E-20      0.47176573E-13      0.69419760E-27
    0.423903056706         0.73490258E-06      0.70882318E-07      0.25103242E-19      0.47854599E-13      0.16947888E-25
    0.427043079349         0.75345064E-06      0.71043682E-07      0.46704031E-19      0.48812508E-13      0.32089284E-25
    0.430183101991         0.77236737E-06      0.70846479E-07     -0.20082942E-21      0.49534910E-13     -0.14041724E-27
    0.433323124633         0.79165771E-06      0.71074968E-07     -0.45105890E-19      0.50566721E-13     -0.32090862E-25
    0.436463147275         0.81132662E-06      0.70916403E-07     -0.19160111E-19      0.51335451E-13     -0.13869752E-25
    0.439603169918         0.83137904E-06      0.71176422E-07     -0.30040736E-19      0.52419992E-13     -0.22124393E-25
    0.442743192560         0.85181993E-06      0.71053761E-07     -0.13272700E-19      0.53236012E-13     -0.99443806E-26
    0.445883215202         0.87265424E-06      0.71236960E-07     -0.86984696E-20      0.54293645E-13     -0.66295870E-26
    0.449023237844         0.89388696E-06      0.71148396E-07      0.19596355E-19      0.55157102E-13      0.15191883E-25
    0.452163260487         0.91552302E-06      0.70898059E-07     -0.17029993E-19      0.55902456E-13     -0.13427990E-25
    0.455303283129         0.93756741E-06      0.70867820E-07     -0.22517593E-19      0.56829435E-13     -0.18057026E-25
    0.458443305771         0.96002506E-06      0.68706657E-07      0.16825982E-19      0.56029700E-13      0.13721447E-25
    0.461583328413         0.98290095E-06      0.69066241E-07     -0.27698099E-19      0.57272746E-13     -0.22968474E-25
    0.464723351056         0.10062000E-05      0.54958608E-07     -0.13899205E-19      0.46339153E-13     -0.11719318E-25
    0.467863373698         0.10299272E-05      0.65309324E-07     -0.18163250E-19      0.55986744E-13     -0.15570537E-25
    0.471003396340         0.10540874E-05     -0.12949470E-06     -0.58944012E-20     -0.11285664E-12     -0.51370622E-26
    0.474143418983         0.10786856E-05     -0.10661972E-06     -0.15357887E-19     -0.94459413E-13     -0.13606273E-25
    0.477283441625         0.11037267E-05      0.77022677E-07      0.71654921E-20      0.69362753E-13      0.64528822E-26
    0.480423464267         0.11292155E-05      0.54159134E-07     -0.18567422E-19      0.49573191E-13     -0.16995219E-25
    0.483563486909         0.11551570E-05      0.77365450E-07     -0.54271317E-20      0.71970928E-13     -0.50487098E-26
    0.486703509552         0.11815559E-05      0.75770895E-07     -0.14468955E-19      0.71633269E-13     -0.13678848E-25
    0.489843532194         0.12084172E-05      0.83876800E-07     -0.60107607E-20      0.80579382E-13     -0.57744618E-26
    0.492983554836         0.12357457E-05      0.83602711E-07     -0.22291457E-19      0.81609285E-13     -0.21759939E-25
    0.496123577478         0.12635461E-05      0.89936745E-07     -0.29311480E-19      0.89199192E-13     -0.29071102E-25
    0.499263600121         0.12918231E-05      0.89791701E-07     -0.12153696E-19      0.90475689E-13     -0.12246277E-25
    0.502403622763         0.13205817E-05      0.96862497E-07     -0.13588358E-19      0.99149539E-13     -0.13909195E-25
    0.505543645405         0.13498263E-05      0.96425622E-07     -0.13811011E-19      0.10026151E-12     -0.14360424E-25
    0.508683668048         0.13795618E-05      0.10567359E-06     -0.20146411E-19      0.11160467E-12     -0.21277156E-25
