
 # Omega; pulse ft; projected flux at t=    1000.2500000000000     
    0.000000000000         0.18717486E-09      0.00000000E+00      0.00000000E+00      0.73736262E-08      0.12705494E-20
    0.003140022642         0.20186436E-09      0.29663407E+00      0.62091073E-13      0.74262651E-08      0.15544565E-20
    0.006280045285         0.24594737E-09      0.49051607E+00     -0.11230307E-13      0.74809233E-08     -0.17127485E-21
    0.009420067927         0.31946741E-09      0.57062883E+00      0.11354291E-12      0.75361369E-08      0.14995298E-20
    0.012560090569         0.42249703E-09      0.57956896E+00      0.91022224E-13      0.75920410E-08      0.11923421E-20
    0.015700113211         0.55513782E-09      0.55546703E+00     -0.13839050E-12      0.76485457E-08     -0.19055786E-20
    0.018840135854         0.71752051E-09      0.51957542E+00      0.55134670E-13      0.77058657E-08      0.81770681E-21
    0.021980158496         0.90980495E-09      0.48165238E+00      0.13669697E-12      0.77637892E-08      0.22034282E-20
    0.025120181138         0.11321802E-08      0.44569347E+00     -0.14494269E-13      0.78226087E-08     -0.25439681E-21
    0.028260203780         0.13848647E-08      0.41303233E+00      0.11393343E-12      0.78820401E-08      0.21742313E-20
    0.031400226423         0.16681061E-08      0.38391756E+00      0.55903968E-13      0.79423935E-08      0.11565277E-20
    0.034540249065         0.19821816E-08      0.35812329E+00     -0.20998206E-13      0.80033735E-08     -0.46926990E-21
    0.037680271707         0.23273981E-08      0.33530729E+00      0.34157001E-13      0.80653308E-08      0.82159714E-21
    0.040820294349         0.27040919E-08      0.31507355E+00      0.67658345E-13      0.81279274E-08      0.17453769E-20
    0.043960316992         0.31126296E-08      0.29708225E+00     -0.28877143E-13      0.81915459E-08     -0.79623889E-21
    0.047100339634         0.35534072E-08      0.28100673E+00      0.46455892E-13      0.82558199E-08      0.13648480E-20
    0.050240362276         0.40268513E-08      0.26659300E+00      0.45081795E-13      0.83211647E-08      0.14071376E-20
    0.053380384919         0.45334185E-08      0.25360015E+00     -0.14300126E-13      0.83871837E-08     -0.47294052E-21
    0.056520407561         0.50735959E-08      0.24184962E+00      0.41955728E-13      0.84543172E-08      0.14666429E-20
    0.059660430203         0.56479014E-08      0.23116699E+00      0.57626859E-13      0.85221482E-08      0.21244583E-20
    0.062800452845         0.62568834E-08      0.22142815E+00      0.31225468E-13      0.85911375E-08      0.12115094E-20
    0.065940475488         0.69011217E-08      0.21250555E+00      0.12866388E-13      0.86608484E-08      0.52438081E-21
    0.069080498130         0.75812269E-08      0.20431291E+00      0.11417046E-13      0.87317720E-08      0.48793316E-21
    0.072220520772         0.82978416E-08      0.19675492E+00     -0.40269942E-13      0.88034452E-08     -0.18018062E-20
    0.075360543414         0.90516395E-08      0.18977096E+00      0.71158301E-14      0.88763726E-08      0.33283680E-21
    0.078500566057         0.98433265E-08      0.18328858E+00      0.17448011E-13      0.89500826E-08      0.85199603E-21
    0.081640588699         0.10673641E-07      0.17726492E+00     -0.13954083E-13      0.90250952E-08     -0.71044475E-21
    0.084780611341         0.11543353E-07      0.17164361E+00     -0.17579970E-13      0.91009262E-08     -0.93212915E-21
    0.087920633984         0.12453265E-07      0.16639419E+00      0.60782054E-14      0.91781072E-08      0.33526664E-21
    0.091060656626         0.13404215E-07      0.16147196E+00     -0.13961053E-13      0.92561475E-08     -0.80029724E-21
    0.094200679268         0.14397070E-07      0.15685519E+00      0.37712693E-13      0.93355846E-08      0.22445546E-20
    0.097340701910         0.15432734E-07      0.15250779E+00      0.25686690E-13      0.94159245E-08      0.15859120E-20
    0.100480724553         0.16512144E-07      0.14841430E+00     -0.18952440E-13      0.94977117E-08     -0.12128536E-20
    0.103620747195         0.17636269E-07      0.14454509E+00      0.17450290E-13      0.95804493E-08      0.11566053E-20
    0.106760769837         0.18806114E-07      0.14088922E+00      0.11411788E-13      0.96646843E-08      0.78282305E-21
    0.109900792479         0.20022721E-07      0.13742203E+00      0.16135842E-13      0.97499222E-08      0.11448180E-20
    0.113040815122         0.21287162E-07      0.13413583E+00      0.17817605E-13      0.98367086E-08      0.13066352E-20
    0.116180837764         0.22600547E-07      0.13100988E+00      0.19489521E-13      0.99245550E-08      0.14764140E-20
    0.119320860406         0.23964023E-07      0.12803886E+00     -0.71231494E-14      0.10014002E-07     -0.55710614E-21
    0.122460883048         0.25378770E-07      0.12520514E+00      0.27028052E-13      0.10104571E-07      0.21812753E-20
    0.125600905691         0.26846007E-07      0.12250512E+00      0.15408581E-13      0.10196795E-07      0.12825435E-20
    0.128740928333         0.28366986E-07      0.11992371E+00      0.12154953E-13      0.10290208E-07      0.10429714E-20
    0.131880950975         0.29943001E-07      0.11745853E+00      0.25353262E-14      0.10385331E-07      0.22416595E-21
    0.135020973618         0.31575378E-07      0.11509660E+00     -0.32812426E-14      0.10481715E-07     -0.29881900E-21
    0.138160996260         0.33265483E-07      0.11283642E+00     -0.59306219E-14      0.10579868E-07     -0.55607217E-21
    0.141301018902         0.35014721E-07      0.11066678E+00      0.25459341E-13      0.10679359E-07      0.24568298E-20
    0.144441041544         0.36824533E-07      0.10858676E+00     -0.89773559E-15      0.10780678E-07     -0.89128711E-22
    0.147581064187         0.38696400E-07      0.10658667E+00      0.10386476E-13      0.10883420E-07      0.10605489E-20
    0.150721086829         0.40631842E-07      0.10466600E+00     -0.62571156E-14      0.10988051E-07     -0.65688480E-21
    0.153861109471         0.42632417E-07      0.10281636E+00     -0.11472113E-13      0.11094196E-07     -0.12378758E-20
    0.157001132113         0.44699723E-07      0.10103745E+00     -0.22341802E-13      0.11202294E-07     -0.24770957E-20
    0.160141154756         0.46835399E-07      0.99322078E-01      0.43014176E-14      0.11312005E-07      0.48989772E-21
    0.163281177398         0.49041122E-07      0.97670030E-01     -0.31276732E-14      0.11423736E-07     -0.36582063E-21
    0.166421200040         0.51318613E-07      0.96075024E-01     -0.18942803E-14      0.11537170E-07     -0.22747467E-21
    0.169561222683         0.53669630E-07      0.94537388E-01      0.59843759E-14      0.11652744E-07      0.73763831E-21
    0.172701245325         0.56095974E-07      0.93050827E-01      0.60489962E-16      0.11770069E-07      0.76514207E-23
    0.175841267967         0.58599489E-07      0.91616267E-01      0.17703488E-14      0.11889625E-07      0.22974942E-21
    0.178981290609         0.61182058E-07      0.90228448E-01      0.74892529E-14      0.12011092E-07      0.99695943E-21
    0.182121313252         0.63845608E-07      0.88887528E-01      0.15465833E-14      0.12134828E-07      0.21113785E-21
    0.185261335894         0.66592107E-07      0.87589441E-01      0.22485083E-14      0.12260615E-07      0.31474222E-21
    0.188401358536         0.69423567E-07      0.86334101E-01      0.23475562E-14      0.12388759E-07      0.33686930E-21
    0.191541381178         0.72342043E-07      0.85118077E-01      0.22130661E-14      0.12519082E-07      0.32549557E-21
    0.194681403821         0.75349631E-07      0.83941212E-01      0.13684550E-13      0.12651862E-07      0.20625749E-20
    0.197821426463         0.78448474E-07      0.82800589E-01      0.34749135E-14      0.12786955E-07      0.53663342E-21
    0.200961449105         0.81640757E-07      0.81695999E-01      0.51815201E-14      0.12924615E-07      0.81973599E-21
    0.204101471747         0.84928709E-07      0.80624958E-01     -0.64153198E-14      0.13064730E-07     -0.10395592E-20
    0.207241494390         0.88314602E-07      0.79587205E-01      0.10828836E-13      0.13207530E-07      0.17970499E-20
    0.210381517032         0.91800755E-07      0.78580645E-01      0.87195754E-14      0.13352937E-07      0.14816873E-20
    0.213521539674         0.95389531E-07      0.77604950E-01      0.86546562E-14      0.13501157E-07      0.15056755E-20
    0.216661562317         0.99083337E-07      0.76658384E-01      0.41535362E-14      0.13652147E-07      0.73970626E-21
    0.219801584959         0.10288463E-06      0.75740526E-01      0.25616635E-14      0.13806084E-07      0.46694346E-21
    0.222941607601         0.10679590E-06      0.74849988E-01     -0.19421755E-14      0.13962967E-07     -0.36230511E-21
    0.226081630243         0.11081969E-06      0.73986247E-01      0.36866177E-14      0.14122943E-07      0.70372391E-21
    0.229221652886         0.11495860E-06      0.73148225E-01      0.27529944E-15      0.14286050E-07      0.53766740E-22
    0.232361675528         0.11921526E-06      0.72335313E-01     -0.76281278E-14      0.14452409E-07     -0.15240803E-20
    0.235501698170         0.12359235E-06      0.71546698E-01      0.31873579E-15      0.14622097E-07      0.65140473E-22
    0.238641720812         0.12809259E-06      0.70781709E-01      0.32825893E-14      0.14795213E-07      0.68614632E-21
    0.241781743455         0.13271877E-06      0.70039744E-01      0.49434469E-15      0.14971866E-07      0.10567232E-21
    0.244921766097         0.13747370E-06      0.69320103E-01      0.71617881E-14      0.15152140E-07      0.15654393E-20
    0.248061788739         0.14236024E-06      0.68622351E-01      0.15175144E-15      0.15336172E-07      0.33914405E-22
    0.251201811381         0.14738131E-06      0.67945779E-01     -0.33235394E-14      0.15524037E-07     -0.75935180E-21
    0.254341834024         0.15253987E-06      0.67290081E-01     -0.10465734E-14      0.15715897E-07     -0.24443187E-21
    0.257481856666         0.15783893E-06      0.66654563E-01      0.37942368E-15      0.15911822E-07      0.90576277E-22
    0.260621879308         0.16328153E-06      0.66039014E-01     -0.55534838E-14      0.16111995E-07     -0.13549218E-20
    0.263761901951         0.16887077E-06      0.65442774E-01      0.25114889E-14      0.16316488E-07      0.62617572E-21
    0.266901924593         0.17460981E-06      0.64865700E-01      0.77924158E-15      0.16525499E-07      0.19852335E-21
    0.270041947235         0.18050182E-06      0.64307192E-01      0.24421443E-14      0.16739113E-07      0.63568830E-21
    0.273181969877         0.18655005E-06      0.63767105E-01      0.25926272E-14      0.16957529E-07      0.68945504E-21
    0.276321992520         0.19275778E-06      0.63244967E-01      0.24816410E-14      0.17180863E-07      0.67415220E-21
    0.279462015162         0.19912834E-06      0.62740594E-01      0.31151847E-15      0.17409306E-07      0.86440374E-22
    0.282602037804         0.20566511E-06      0.62253660E-01      0.83183527E-15      0.17643013E-07      0.23574647E-21
    0.285742060446         0.21237151E-06      0.61783894E-01     -0.44455525E-14      0.17882157E-07     -0.12866794E-20
    0.288882083089         0.21925100E-06      0.61331172E-01     -0.96471296E-14      0.18126952E-07     -0.28512916E-20
    0.292022105731         0.22630710E-06      0.60895072E-01      0.16856619E-14      0.18377530E-07      0.50871608E-21
    0.295162128373         0.23354337E-06      0.60475739E-01      0.75167296E-16      0.18634195E-07      0.23161057E-22
    0.298302151016         0.24096340E-06      0.60072520E-01      0.29543107E-14      0.18897010E-07      0.92933742E-21
    0.301442173658         0.24857086E-06      0.59685916E-01      0.39900930E-14      0.19166403E-07      0.12813028E-20
    0.304582196300         0.25636942E-06      0.59314946E-01     -0.25122182E-14      0.19442334E-07     -0.82345830E-21
    0.307722218942         0.26436283E-06      0.58960561E-01     -0.33799072E-14      0.19725394E-07     -0.11307559E-20
    0.310862241585         0.27255487E-06      0.58621371E-01      0.54873168E-14      0.20015410E-07      0.18735641E-20
    0.314002264227         0.28094936E-06      0.58298851E-01      0.20499576E-14      0.20313175E-07      0.71427046E-21
    0.317142286869         0.28955016E-06      0.57991099E-01     -0.17204669E-14      0.20618332E-07     -0.61170006E-21
    0.320282309511         0.29836118E-06      0.57700273E-01     -0.11309675E-14      0.20931955E-07     -0.41028158E-21
    0.323422332154         0.30738639E-06      0.57423761E-01     -0.29244009E-14      0.21253419E-07     -0.10823658E-20
    0.326562354796         0.31662976E-06      0.57164616E-01     -0.21096892E-14      0.21584175E-07     -0.79657493E-21
    0.329702377438         0.32609534E-06      0.56919299E-01      0.65877918E-14      0.21923233E-07      0.25373765E-20
    0.332842400080         0.33578719E-06      0.56691997E-01      0.31266465E-14      0.22272542E-07      0.12283632E-20
    0.335982422723         0.34570944E-06      0.56477986E-01      0.16390931E-14      0.22630619E-07      0.65678141E-21
    0.339122445365         0.35586624E-06      0.56282879E-01      0.57284086E-15      0.23000067E-07      0.23409211E-21
    0.342262468007         0.36626178E-06      0.56100441E-01     -0.10043752E-14      0.23378742E-07     -0.41855339E-21
    0.345402490650         0.37690029E-06      0.55938095E-01     -0.37822445E-14      0.23770112E-07     -0.16072119E-20
    0.348542513292         0.38778604E-06      0.55787659E-01      0.64529468E-15      0.24171138E-07      0.27958705E-21
    0.351682535934         0.39892335E-06      0.55658869E-01     -0.34174488E-14      0.24586436E-07     -0.15096046E-20
    0.354822558576         0.41031655E-06      0.55541051E-01     -0.37526526E-14      0.25011771E-07     -0.16899300E-20
    0.357962581219         0.42197002E-06      0.55446880E-01      0.26271892E-14      0.25453273E-07      0.12060293E-20
    0.361102603861         0.43388818E-06      0.55362477E-01     -0.49498112E-16      0.25905099E-07     -0.23161057E-22
    0.364242626503         0.44607547E-06      0.55304305E-01     -0.22027436E-15      0.26375400E-07     -0.10505194E-21
    0.367382649145         0.45853638E-06      0.55254317E-01      0.17648240E-14      0.26856160E-07      0.85778630E-21
    0.370522671788         0.47127541E-06      0.55233890E-01     -0.51569759E-14      0.27358241E-07     -0.25543337E-20
    0.373662694430         0.48429711E-06      0.55219538E-01     -0.40775195E-14      0.27870672E-07     -0.20580254E-20
    0.376802717072         0.49760605E-06      0.55239052E-01     -0.69645662E-15      0.28407982E-07     -0.35816921E-21
    0.379942739715         0.51120685E-06      0.55261790E-01     -0.26948389E-14      0.28955163E-07     -0.14119973E-20
    0.383082762357         0.52510413E-06      0.55323994E-01     -0.18688407E-14      0.29531730E-07     -0.99757982E-21
    0.386222784999         0.53930256E-06      0.55385530E-01     -0.21251012E-14      0.30117121E-07     -0.11555713E-20
    0.389362807641         0.55380682E-06      0.55493872E-01     -0.34975253E-14      0.30737703E-07     -0.19372570E-20
    0.392502830284         0.56862162E-06      0.55596182E-01     -0.37608377E-14      0.31365202E-07     -0.21217183E-20
    0.395642852926         0.58375171E-06      0.55755012E-01      0.13532587E-14      0.32035484E-07      0.77754978E-21
    0.398782875568         0.59920184E-06      0.55900346E-01     -0.10178263E-14      0.32709482E-07     -0.59557004E-21
    0.401922898210         0.61497679E-06      0.56115201E-01     -0.28042272E-15      0.33436364E-07     -0.16709048E-21
    0.405062920853         0.63108138E-06      0.56306095E-01      0.20096129E-14      0.34161806E-07      0.12192642E-20
    0.408202943495         0.64752043E-06      0.56584114E-01      0.10109913E-14      0.34953801E-07      0.62452136E-21
    0.411342966137         0.66429877E-06      0.56823354E-01      0.46626699E-14      0.35736234E-07      0.29323553E-20
    0.414482988779         0.68142128E-06      0.57174064E-01      0.12984789E-14      0.36604172E-07      0.83131652E-21
    0.417623011422         0.69889282E-06      0.57464142E-01      0.11931073E-14      0.37449466E-07      0.77754978E-21
    0.420763034064         0.71671828E-06      0.57900878E-01     -0.86292488E-15      0.38407726E-07     -0.57240898E-21
    0.423903056706         0.73490258E-06      0.58244396E-01      0.33301518E-14      0.39322391E-07      0.22482769E-20
    0.427043079349         0.75345064E-06      0.58784779E-01      0.21935274E-14      0.40389693E-07      0.15071231E-20
    0.430183101991         0.77236737E-06      0.59184107E-01      0.12919029E-14      0.41380736E-07      0.90328123E-21
    0.433323124633         0.79165771E-06      0.59854242E-01      0.19811703E-14      0.42583667E-07      0.14095158E-20
    0.436463147275         0.81132662E-06      0.60309790E-01     -0.31172672E-14      0.43657464E-07     -0.22565487E-20
    0.439603169918         0.83137904E-06      0.61149596E-01     -0.24776791E-14      0.45035438E-07     -0.18247604E-20
    0.442743192560         0.85181993E-06      0.61658146E-01      0.36212270E-15      0.46196482E-07      0.27131524E-21
    0.445883215202         0.87265424E-06      0.62732222E-01     -0.32472693E-14      0.47811712E-07     -0.24749244E-20
    0.449023237844         0.89388696E-06      0.63282579E-01     -0.44280459E-14      0.49059204E-07     -0.34327995E-20
    0.452163260487         0.91552302E-06      0.64703912E-01     -0.30003356E-15      0.51018429E-07     -0.23657366E-21
    0.455303283129         0.93756741E-06      0.65266698E-01     -0.20774738E-14      0.52337853E-07     -0.16659418E-20
    0.458443305771         0.96002506E-06      0.67254168E-01     -0.22923942E-14      0.54845207E-07     -0.18694282E-20
    0.461583328413         0.98290095E-06      0.67755490E-01      0.53666150E-15      0.56185814E-07      0.44502317E-21
    0.464723351056         0.10062000E-05      0.70798578E-01     -0.19718961E-14      0.59694855E-07     -0.16626330E-20
    0.467863373698         0.10299272E-05      0.71039226E-01     -0.15959741E-14      0.60898730E-07     -0.13681567E-20
    0.471003396340         0.10540874E-05      0.76503686E-01     -0.41382021E-15      0.66674151E-07     -0.36065075E-21
    0.474143418983         0.10786856E-05      0.75830972E-01     -0.13370131E-14      0.67182216E-07     -0.11845226E-20
    0.477283441625         0.11037267E-05      0.89431698E-01     -0.75319336E-15      0.80537694E-07     -0.67828810E-21
    0.480423464267         0.11292155E-05      0.84333274E-01     -0.14061601E-14      0.77192326E-07     -0.12870930E-20
    0.483563486909         0.11551570E-05      0.18189185E+00     -0.21269216E-14      0.16920893E-06     -0.19786160E-20
    0.486703509552         0.11815559E-05      0.25555879E+00     -0.17009214E-14      0.24160347E-06     -0.16080391E-20
    0.489843532194         0.12084172E-05      0.90908867E-01      0.22283456E-14      0.87335000E-07      0.21407434E-20
    0.492983554836         0.12357457E-05      0.46691549E-01      0.26268957E-14      0.45578234E-07      0.25642599E-20
    0.496123577478         0.12635461E-05      0.67331905E-01      0.14745478E-14      0.66779730E-07      0.14624553E-20
    0.499263600121         0.12918231E-05      0.66024262E-01      0.26006974E-14      0.66527202E-07      0.26205082E-20
    0.502403622763         0.13205817E-05      0.71800053E-01     -0.35524092E-14      0.73495340E-07     -0.36362860E-20
    0.505543645405         0.13498263E-05      0.74690948E-01     -0.45218134E-14      0.77662210E-07     -0.47016946E-20
    0.508683668048         0.13795618E-05      0.76531634E-01     -0.57331793E-14      0.80827080E-07     -0.60549621E-20
