 
 # Omega; pulse ft; proj flux t=    1000.25000000000     
    0.000000000000         0.13861783E-10      0.00000000E+00      0.00000000E+00      0.14525310E-07     -0.16940659E-20      0.36295128E-11     -0.42330482E-24
    0.003140022642         0.28547099E-10      0.20524330E+01     -0.54949660E-12      0.14532848E-07     -0.38908702E-20      0.72609090E-11     -0.13955363E-23
    0.006280045285         0.72617464E-10      0.16286558E+01     -0.57317000E-12      0.14667637E-07     -0.51619560E-20      0.10925986E-10     -0.26853803E-23
    0.009420067927         0.14611614E-09      0.12241732E+01     -0.65631136E-13      0.14789026E-07     -0.79287847E-21      0.14621394E-10     -0.28835009E-23
    0.012560090569         0.24911526E-09      0.96488208E+00     -0.15422554E-12      0.14905081E-07     -0.23824094E-20      0.18345803E-10     -0.34788056E-23
    0.015700113211         0.38171583E-09      0.79323092E+00     -0.25293704E-12      0.15020679E-07     -0.47896342E-20      0.22099096E-10     -0.46756157E-23
    0.018840135854         0.54404780E-09      0.67298240E+00     -0.13466472E-12      0.15135936E-07     -0.30287218E-20      0.25881188E-10     -0.54324178E-23
    0.021980158496         0.73627010E-09      0.58459951E+00     -0.26789688E-12      0.15251667E-07     -0.69891850E-20      0.29692200E-10     -0.71788408E-23
    0.025120181138         0.95857070E-09      0.51715658E+00     -0.29672615E-12      0.15370075E-07     -0.88188052E-20      0.33532798E-10     -0.93824403E-23
    0.028260203780         0.12111667E-08      0.46403634E+00     -0.76866852E-13      0.15489349E-07     -0.25657850E-20      0.37403200E-10     -0.10023566E-22
    0.031400226423         0.14943044E-08      0.42113911E+00     -0.44871707E-13      0.15609335E-07     -0.16631500E-20      0.41303584E-10     -0.10439146E-22
    0.034540249065         0.18082594E-08      0.38579831E+00     -0.18225746E-12      0.15730703E-07     -0.74314423E-20      0.45234294E-10     -0.12296078E-22
    0.037680271707         0.21533368E-08      0.35618903E+00     -0.83040000E-13      0.15853713E-07     -0.36960498E-20      0.49195742E-10     -0.13219629E-22
    0.040820294349         0.25298710E-08      0.33101642E+00     -0.11188831E-12      0.15978070E-07     -0.54008173E-20      0.53188263E-10     -0.14569158E-22
    0.043960316992         0.29382263E-08      0.30935804E+00     -0.16138858E-12      0.16104171E-07     -0.84013633E-20      0.57212294E-10     -0.16668449E-22
    0.047100339634         0.33787968E-08      0.29051684E+00     -0.12501936E-13      0.16231620E-07     -0.69850233E-21      0.61268171E-10     -0.16842988E-22
    0.050240362276         0.38520063E-08      0.27398614E+00     -0.32235417E-13      0.16361208E-07     -0.19249527E-20      0.65356429E-10     -0.17323985E-22
    0.053380384919         0.43583091E-08      0.25935192E+00     -0.10558129E-12      0.16492190E-07     -0.67139148E-20      0.69477416E-10     -0.19001625E-22
    0.056520407561         0.48981894E-08      0.24631121E+00     -0.29868788E-13      0.16625205E-07     -0.20160459E-20      0.73631640E-10     -0.19505385E-22
    0.059660430203         0.54721621E-08      0.23460868E+00     -0.40548601E-13      0.16759814E-07     -0.28966831E-20      0.77819500E-10     -0.20229194E-22
    0.062800452845         0.60807727E-08      0.22404494E+00     -0.93397762E-13      0.16895991E-07     -0.70434429E-20      0.82041386E-10     -0.21989174E-22
    0.065940475488         0.67245976E-08      0.21445715E+00     -0.94946636E-13      0.17033633E-07     -0.75413022E-20      0.86297667E-10     -0.23873558E-22
    0.069080498130         0.74042442E-08      0.20573343E+00     -0.84258528E-13      0.17174443E-07     -0.70338269E-20      0.90589132E-10     -0.25631136E-22
    0.072220520772         0.81203513E-08      0.19774139E+00     -0.11697304E-12      0.17316668E-07     -0.10243598E-19      0.94916135E-10     -0.28190755E-22
    0.075360543414         0.88735891E-08      0.19039830E+00     -0.42892098E-13      0.17461072E-07     -0.39335540E-20      0.99279222E-10     -0.29173652E-22
    0.078500566057         0.96646596E-08      0.18362146E+00     -0.60610785E-13      0.17607178E-07     -0.58118744E-20      0.10367882E-09     -0.30625895E-22
    0.081640588699         0.10494297E-07      0.17735266E+00     -0.11963697E-12      0.17755687E-07     -0.11977472E-19      0.10811552E-09     -0.33618766E-22
    0.084780611341         0.11363267E-07      0.17152957E+00      0.56259968E-14      0.17905985E-07      0.58729823E-21      0.11258978E-09     -0.33472015E-22
    0.087920633984         0.12272369E-07      0.16611091E+00     -0.34626222E-13      0.18058775E-07     -0.37643956E-20      0.11710222E-09     -0.34412644E-22
    0.091060656626         0.13222435E-07      0.16104950E+00     -0.59556832E-13      0.18213465E-07     -0.67354215E-20      0.12165331E-09     -0.36095658E-22
    0.094200679268         0.14214328E-07      0.15631504E+00     -0.39021910E-13      0.18370696E-07     -0.45859927E-20      0.12624369E-09     -0.37241583E-22
    0.097340701910         0.15248947E-07      0.15187142E+00     -0.44810443E-13      0.18529939E-07     -0.54673537E-20      0.13087386E-09     -0.38607738E-22
    0.100480724553         0.16327224E-07      0.14769628E+00     -0.50262553E-13      0.18691824E-07     -0.63610189E-20      0.13554448E-09     -0.40197198E-22
    0.103620747195         0.17450124E-07      0.14376113E+00     -0.16857570E-13      0.18855837E-07     -0.22110538E-20      0.14025608E-09     -0.40749685E-22
    0.106760769837         0.18618647E-07      0.14004907E+00     -0.30052219E-13      0.19022570E-07     -0.40819295E-20      0.14500935E-09     -0.41769658E-22
    0.109900792479         0.19833827E-07      0.13653754E+00     -0.54832938E-13      0.19191562E-07     -0.77072554E-20      0.14980484E-09     -0.43695509E-22
    0.113040815122         0.21096733E-07      0.13321343E+00     -0.18164806E-13      0.19363349E-07     -0.26403605E-20      0.15464326E-09     -0.44355269E-22
    0.116180837764         0.22408470E-07      0.13005876E+00     -0.27478462E-13      0.19537538E-07     -0.41278381E-20      0.15952520E-09     -0.45386713E-22
    0.119320860406         0.23770176E-07      0.12706306E+00     -0.45462521E-13      0.19714595E-07     -0.70537827E-20      0.16445139E-09     -0.47149277E-22
    0.122460883048         0.25183029E-07      0.12421200E+00     -0.58605372E-14      0.19894209E-07     -0.93864320E-21      0.16942245E-09     -0.47383821E-22
    0.125600905691         0.26648238E-07      0.12149702E+00     -0.33976757E-14      0.20076773E-07     -0.56144884E-21      0.17443914E-09     -0.47524113E-22
    0.128740928333         0.28167053E-07      0.11890667E+00     -0.35283188E-13      0.20262058E-07     -0.60123623E-20      0.17950212E-09     -0.49026452E-22
    0.131880950975         0.29740759E-07      0.11643371E+00     -0.34431395E-13      0.20450373E-07     -0.60475175E-20      0.18461216E-09     -0.50537576E-22
    0.135020973618         0.31370676E-07      0.11406907E+00     -0.33727063E-13      0.20641587E-07     -0.61031454E-20      0.18976998E-09     -0.52062600E-22
    0.138160996260         0.33058166E-07      0.11180644E+00     -0.41725876E-13      0.20835919E-07     -0.77759113E-20      0.19497635E-09     -0.54005606E-22
    0.141301018902         0.34804624E-07      0.10963875E+00     -0.24555562E-13      0.21033342E-07     -0.47107936E-20      0.20023206E-09     -0.55182716E-22
    0.144441041544         0.36611487E-07      0.10756017E+00     -0.19437725E-13      0.21233949E-07     -0.38372909E-20      0.20553789E-09     -0.56141559E-22
    0.147581064187         0.38480227E-07      0.10556543E+00     -0.43707984E-13      0.21437850E-07     -0.88760616E-20      0.21089468E-09     -0.58359466E-22
    0.150721086829         0.40412359E-07      0.10364922E+00     -0.29636392E-13      0.21645058E-07     -0.61889653E-20      0.21630324E-09     -0.59905934E-22
    0.153861109471         0.42409432E-07      0.10180753E+00     -0.22538912E-13      0.21855767E-07     -0.48385930E-20      0.22176445E-09     -0.61114978E-22
    0.157001132113         0.44473040E-07      0.10003531E+00     -0.34839721E-13      0.22069875E-07     -0.76863690E-20      0.22727916E-09     -0.63035609E-22
    0.160141154756         0.46604811E-07      0.98329814E-01     -0.25901530E-14      0.22287716E-07     -0.58709144E-21      0.23284831E-09     -0.63182309E-22
    0.163281177398         0.48806419E-07      0.96686093E-01     -0.72092326E-14      0.22509060E-07     -0.16783495E-20      0.23847276E-09     -0.63601687E-22
    0.166421200040         0.51079573E-07      0.95102571E-01     -0.24811821E-13      0.22734395E-07     -0.59312986E-20      0.24415352E-09     -0.65083770E-22
    0.169561222683         0.53426027E-07      0.93574088E-01     -0.55734700E-14      0.22963310E-07     -0.13677431E-20      0.24989148E-09     -0.65425535E-22
    0.172701245325         0.55847574E-07      0.92100272E-01     -0.78625443E-14      0.23196491E-07     -0.19802704E-20      0.25568770E-09     -0.65920355E-22
    0.175841267967         0.58346049E-07      0.90675813E-01     -0.29738538E-13      0.23433364E-07     -0.76853351E-20      0.26154311E-09     -0.67840729E-22
    0.178981290609         0.60923329E-07      0.89301296E-01     -0.59906376E-14      0.23674798E-07     -0.15881868E-20      0.26745886E-09     -0.68237577E-22
    0.182121313252         0.63581331E-07      0.87971206E-01     -0.93576176E-14      0.23920041E-07     -0.25444076E-20      0.27343588E-09     -0.68873361E-22
    0.185261335894         0.66322018E-07      0.86687098E-01     -0.28020561E-13      0.24170183E-07     -0.78127209E-20      0.27947540E-09     -0.70825565E-22
    0.188401358536         0.69147392E-07      0.85443016E-01     -0.21100983E-13      0.24424230E-07     -0.60318010E-20      0.28557841E-09     -0.72332762E-22
    0.191541381178         0.72059501E-07      0.84241875E-01     -0.11759431E-13      0.24683640E-07     -0.34456208E-20      0.29174624E-09     -0.73193737E-22
    0.194681403821         0.75060434E-07      0.83075871E-01     -0.27171541E-13      0.24946754E-07     -0.81593096E-20      0.29797981E-09     -0.75232545E-22
    0.197821426463         0.78152324E-07      0.81950581E-01     -0.92343426E-14      0.25215823E-07     -0.28413654E-20      0.30428061E-09     -0.75942531E-22
    0.200961449105         0.81337348E-07      0.80856186E-01     -0.37930507E-14      0.25488428E-07     -0.11956896E-20      0.31064953E-09     -0.76241304E-22
    0.204101471747         0.84617728E-07      0.79799411E-01     -0.19521629E-13      0.25767213E-07     -0.63035299E-20      0.31708812E-09     -0.77816399E-22
    0.207241494390         0.87995729E-07      0.78771585E-01     -0.61619121E-14      0.26049956E-07     -0.20377594E-20      0.32359735E-09     -0.78325584E-22
    0.210381517032         0.91473660E-07      0.77778471E-01      0.13593288E-14      0.26339069E-07      0.46032601E-21      0.33017883E-09     -0.78210560E-22
    0.213521539674         0.95053876E-07      0.76812774E-01     -0.53750296E-14      0.26632634E-07     -0.18636379E-20      0.33683366E-09     -0.78676237E-22
    0.216661562317         0.98738776E-07      0.75879331E-01     -0.12923574E-13      0.26932825E-07     -0.45871301E-20      0.34356350E-09     -0.79822446E-22
    0.219801584959         0.10253081E-06      0.74971981E-01     -0.12651021E-13      0.27237991E-07     -0.45962291E-20      0.35036960E-09     -0.80970929E-22
    0.222941607601         0.10643245E-06      0.74094681E-01     -0.16688334E-13      0.27550058E-07     -0.62050954E-20      0.35725367E-09     -0.82521428E-22
    0.226081630243         0.11044626E-06      0.73241752E-01     -0.11362478E-13      0.27867434E-07     -0.43232595E-20      0.36421705E-09     -0.83601703E-22
    0.229221652886         0.11457479E-06      0.72417148E-01     -0.15455664E-13      0.28192098E-07     -0.60169118E-20      0.37126155E-09     -0.85105179E-22
    0.232361675528         0.11882069E-06      0.71615031E-01     -0.17162646E-13      0.28522284E-07     -0.68354070E-20      0.37838856E-09     -0.86813177E-22
    0.235501698170         0.12318663E-06      0.70839818E-01     -0.14342636E-13      0.28860211E-07     -0.58432038E-20      0.38560000E-09     -0.88273248E-22
    0.238641720812         0.12767532E-06      0.70085559E-01     -0.15204050E-13      0.29203954E-07     -0.63353763E-20      0.39289734E-09     -0.89856300E-22
    0.241781743455         0.13228953E-06      0.69356903E-01     -0.25485551E-13      0.29555900E-07     -0.10860468E-19      0.40028263E-09     -0.92570060E-22
    0.244921766097         0.13703207E-06      0.68647931E-01     -0.25641535E-13      0.29914023E-07     -0.11173556E-19      0.40775739E-09     -0.95362053E-22
    0.248061788739         0.14190580E-06      0.67963350E-01     -0.16734976E-13      0.30280817E-07     -0.74562060E-20      0.41532381E-09     -0.97225173E-22
    0.251201811381         0.14691362E-06      0.67297389E-01     -0.36003408E-13      0.30654205E-07     -0.16399683E-19      0.42298354E-09     -0.10132304E-21
    0.254341834024         0.15205849E-06      0.66654670E-01     -0.15442749E-13      0.31036733E-07     -0.71906811E-20      0.43073884E-09     -0.10311982E-21
    0.257481856666         0.15734340E-06      0.66029736E-01     -0.11001442E-13      0.31426354E-07     -0.52360533E-20      0.43859150E-09     -0.10442818E-21
    0.260621879308         0.16277140E-06      0.65426926E-01     -0.23902445E-13      0.31825576E-07     -0.11626851E-19      0.44654392E-09     -0.10733344E-21
    0.263761901951         0.16834557E-06      0.64841315E-01      0.12263817E-14      0.32232500E-07      0.60963211E-21      0.45459802E-09     -0.10718110E-21
    0.266901924593         0.17406906E-06      0.64276695E-01      0.43724235E-14      0.32649456E-07      0.22209799E-20      0.46275630E-09     -0.10662614E-21
    0.270041947235         0.17994505E-06      0.63728880E-01     -0.87819456E-14      0.33074820E-07     -0.45577652E-20      0.47102088E-09     -0.10776501E-21
    0.273181969877         0.18597676E-06      0.63200897E-01     -0.12691084E-13      0.33510617E-07     -0.67291143E-20      0.47939434E-09     -0.10944645E-21
    0.276321992520         0.19216747E-06      0.62689679E-01     -0.13159502E-13      0.33955726E-07     -0.71278153E-20      0.48787903E-09     -0.11122751E-21
    0.279462015162         0.19852052E-06      0.62196996E-01     -0.21811760E-13      0.34411576E-07     -0.12067738E-19      0.49647763E-09     -0.11424294E-21
    0.282602037804         0.20503926E-06      0.61721304E-01     -0.26148120E-13      0.34877822E-07     -0.14775927E-19      0.50519273E-09     -0.11793507E-21
    0.285742060446         0.21172710E-06      0.61262766E-01     -0.19596458E-13      0.35355048E-07     -0.11309213E-19      0.51402707E-09     -0.12076096E-21
    0.288882083089         0.21858752E-06      0.60821725E-01     -0.32199965E-13      0.35843964E-07     -0.18976350E-19      0.52298358E-09     -0.12550268E-21
    0.292022105731         0.22562402E-06      0.60396351E-01     -0.45471964E-14      0.36344010E-07     -0.27363135E-20      0.53206505E-09     -0.12618642E-21
    0.295162128373         0.23284014E-06      0.59989282E-01     -0.82085565E-14      0.36857291E-07     -0.50433202E-20      0.54127476E-09     -0.12744662E-21
    0.298302151016         0.24023948E-06      0.59596228E-01     -0.21231745E-13      0.37381723E-07     -0.13317608E-19      0.55061552E-09     -0.13077435E-21
    0.301442173658         0.24782569E-06      0.59222660E-01     -0.16199553E-14      0.37921261E-07     -0.10372845E-20      0.56009110E-09     -0.13103355E-21
    0.304582196300         0.25560245E-06      0.58861206E-01     -0.43523066E-14      0.38471773E-07     -0.28446741E-20      0.56970424E-09     -0.13174436E-21
    0.307722218942         0.26357350E-06      0.58520883E-01     -0.14099496E-13      0.39039684E-07     -0.94058707E-20      0.57945928E-09     -0.13409465E-21
    0.310862241585         0.27174260E-06      0.58190421E-01     -0.71657695E-14      0.39618113E-07     -0.48787113E-20      0.58935886E-09     -0.13531372E-21
    0.314002264227         0.28011357E-06      0.57883308E-01     -0.32394776E-14      0.40216775E-07     -0.22507584E-20      0.59940803E-09     -0.13587613E-21
    0.317142286869         0.28869027E-06      0.57583348E-01     -0.10910078E-13      0.40825118E-07     -0.77349659E-20      0.60960921E-09     -0.13780890E-21
    0.320282309511         0.29747662E-06      0.57309628E-01     -0.90128959E-14      0.41457204E-07     -0.65198376E-20      0.61996833E-09     -0.13943805E-21
    0.323422332154         0.30647655E-06      0.57039789E-01     -0.10653019E-13      0.42097634E-07     -0.78623517E-20      0.63048748E-09     -0.14140265E-21
    0.326562354796         0.31569405E-06      0.56799912E-01     -0.17096726E-13      0.42766182E-07     -0.12872585E-19      0.64117368E-09     -0.14461919E-21
    0.329702377438         0.32513315E-06      0.56559891E-01     -0.55443058E-14      0.43441046E-07     -0.42583258E-20      0.65202851E-09     -0.14568324E-21
    0.332842400080         0.33479793E-06      0.56354602E-01     -0.31992363E-14      0.44149526E-07     -0.25063573E-20      0.66306038E-09     -0.14630952E-21
    0.335982422723         0.34469248E-06      0.56144180E-01     -0.91554835E-14      0.44861371E-07     -0.73155853E-20      0.67427012E-09     -0.14813750E-21
    0.339122445365         0.35482098E-06      0.55974555E-01     -0.71684088E-14      0.45613767E-07     -0.58415495E-20      0.68566786E-09     -0.14959716E-21
    0.342262468007         0.36518760E-06      0.55793578E-01     -0.71946424E-14      0.46365344E-07     -0.59788615E-20      0.69725340E-09     -0.15109112E-21
    0.345402490650         0.37579657E-06      0.55661090E-01     -0.12832583E-13      0.47166276E-07     -0.10874116E-19      0.70903908E-09     -0.15380830E-21
    0.348542513292         0.38665215E-06      0.55509446E-01     -0.82430187E-14      0.47960545E-07     -0.71220251E-20      0.72102322E-09     -0.15558791E-21
    0.351682535934         0.39775867E-06      0.55416048E-01     -0.12367011E-13      0.48815410E-07     -0.10893969E-19      0.73322098E-09     -0.15831004E-21
    0.354822558576         0.40912044E-06      0.55293639E-01     -0.12943329E-13      0.49655536E-07     -0.11623542E-19      0.74562866E-09     -0.16121448E-21
    0.357962581219         0.42074186E-06      0.55241874E-01     -0.10684006E-13      0.50570708E-07     -0.97805836E-20      0.75826502E-09     -0.16365840E-21
    0.361102603861         0.43262732E-06      0.55148573E-01     -0.86430912E-14      0.51460043E-07     -0.80650110E-20      0.77112360E-09     -0.16567365E-21
    0.364242626503         0.44478129E-06      0.55141728E-01     -0.14815241E-13      0.52443136E-07     -0.14090195E-19      0.78422783E-09     -0.16919443E-21
    0.367382649145         0.45720823E-06      0.55077317E-01     -0.50043350E-14      0.53385180E-07     -0.48505871E-20      0.79756746E-09     -0.17040647E-21
    0.370522671788         0.46991265E-06      0.55119628E-01     -0.47163725E-14      0.54445397E-07     -0.46586812E-20      0.81117200E-09     -0.17157056E-21
    0.373662694430         0.48289911E-06      0.55083709E-01     -0.76099557E-14      0.55443723E-07     -0.76596925E-20      0.82502601E-09     -0.17348453E-21
    0.376802717072         0.49617218E-06      0.55180651E-01     -0.64862472E-14      0.56592352E-07     -0.66521865E-20      0.83916702E-09     -0.17514674E-21
    0.379942739715         0.50973645E-06      0.55172516E-01     -0.39707980E-14      0.57650472E-07     -0.41491380E-20      0.85357244E-09     -0.17618351E-21
    0.383082762357         0.52359657E-06      0.55331205E-01     -0.10219636E-13      0.58901568E-07     -0.10879079E-19      0.86829047E-09     -0.17890192E-21
