
 # Omega; pulse ft; projected flux at t=    1000.2500000000000     
    0.000000000000         0.18717486E-09      0.00000000E+00      0.00000000E+00      0.35204999E-12      0.62038546E-24
    0.003140022642         0.20186436E-09      0.13949787E-04     -0.45431249E-16      0.34923437E-12     -0.11373761E-23
    0.006280045285         0.24594737E-09      0.22829532E-04      0.44004451E-17      0.34817611E-12      0.67111750E-25
    0.009420067927         0.31946741E-09      0.26426507E-04      0.26504000E-16      0.34900756E-12      0.35003099E-24
    0.012560090569         0.42249703E-09      0.26700078E-04      0.34704774E-16      0.34975664E-12      0.45461383E-24
    0.015700113211         0.55513782E-09      0.25462668E-04      0.54067280E-17      0.35061015E-12      0.74448353E-25
    0.018840135854         0.71752051E-09      0.23676352E-04     -0.61252735E-17      0.35114591E-12     -0.90844433E-25
    0.021980158496         0.90980495E-09      0.21795950E-04      0.76715759E-17      0.35133047E-12      0.12365868E-24
    0.025120181138         0.11321802E-08      0.20058527E-04      0.34621429E-16      0.35205813E-12      0.60765956E-24
    0.028260203780         0.13848647E-08      0.18509008E-04     -0.93560756E-17      0.35321386E-12     -0.17854526E-24
    0.031400226423         0.16681061E-08      0.17126069E-04      0.88103845E-17      0.35429996E-12      0.18226710E-24
    0.034540249065         0.19821816E-08      0.15895868E-04     -0.64996736E-17      0.35524237E-12     -0.14525533E-24
    0.037680271707         0.23273981E-08      0.14813968E-04     -0.15977241E-16      0.35632851E-12     -0.38430937E-24
    0.040820294349         0.27040919E-08      0.13855143E-04     -0.65495503E-17      0.35742002E-12     -0.16895823E-24
    0.043960316992         0.31126296E-08      0.13003414E-04      0.51265481E-17      0.35854739E-12      0.14135599E-24
    0.047100339634         0.35534072E-08      0.12244243E-04      0.14499960E-17      0.35972899E-12      0.42600067E-25
    0.050240362276         0.40268513E-08      0.11563861E-04     -0.61736037E-17      0.36094267E-12     -0.19269663E-24
    0.053380384919         0.45334185E-08      0.10957923E-04      0.54651309E-17      0.36240560E-12      0.18074539E-24
    0.056520407561         0.50735959E-08      0.10407483E-04     -0.62131884E-17      0.36381354E-12     -0.21719392E-24
    0.059660430203         0.56479014E-08      0.99625330E-05     -0.15803124E-16      0.36727641E-12     -0.58259429E-24
    0.062800452845         0.62568834E-08      0.96742967E-05     -0.40404390E-17      0.37535070E-12     -0.15676402E-24
    0.065940475488         0.69011217E-08      0.91542151E-05     -0.13945478E-16      0.37308799E-12     -0.56836008E-24
    0.069080498130         0.75812269E-08      0.86018144E-05     -0.18205881E-16      0.36761790E-12     -0.77806929E-24
    0.072220520772         0.82978416E-08      0.82416448E-05     -0.11747756E-16      0.36875758E-12     -0.52563222E-24
    0.075360543414         0.90516395E-08      0.79098122E-05     -0.11690030E-17      0.36997463E-12     -0.54679105E-25
    0.078500566057         0.98433265E-08      0.76085259E-05     -0.12687415E-16      0.37152853E-12     -0.61953349E-24
    0.081640588699         0.10673641E-07      0.73341718E-05     -0.19409376E-17      0.37340496E-12     -0.98819028E-25
    0.084780611341         0.11543353E-07      0.70533183E-05     -0.10884812E-16      0.37398265E-12     -0.57713695E-24
    0.087920633984         0.12453265E-07      0.67523045E-05     -0.98043377E-17      0.37244915E-12     -0.54079570E-24
    0.091060656626         0.13404215E-07      0.64934578E-05      0.52162322E-17      0.37222811E-12      0.29901299E-24
    0.094200679268         0.14397070E-07      0.62707895E-05     -0.15173028E-17      0.37321995E-12     -0.90305641E-25
    0.097340701910         0.15432734E-07      0.60594716E-05     -0.91292812E-17      0.37411550E-12     -0.56364743E-24
    0.100480724553         0.16512144E-07      0.58609012E-05      0.51104267E-17      0.37506595E-12      0.32703964E-24
    0.103620747195         0.17636269E-07      0.56691571E-05      0.25098820E-18      0.37575176E-12      0.16635499E-25
    0.106760769837         0.18806114E-07      0.54895825E-05     -0.51230716E-17      0.37657305E-12     -0.35143122E-24
    0.109900792479         0.20022721E-07      0.53173739E-05      0.34666457E-17      0.37726108E-12      0.24595421E-24
    0.113040815122         0.21287162E-07      0.51569751E-05      0.36298776E-17      0.37818130E-12      0.26619322E-24
    0.116180837764         0.22600547E-07      0.50035358E-05      0.26979092E-18      0.37903909E-12      0.20437808E-25
    0.119320860406         0.23964023E-07      0.48599851E-05      0.74699998E-17      0.38010259E-12      0.58423354E-24
    0.122460883048         0.25378770E-07      0.47220402E-05      0.34152901E-18      0.38108812E-12      0.27562800E-25
    0.125600905691         0.26846007E-07      0.45923083E-05     -0.34202938E-17      0.38224384E-12     -0.28469043E-24
    0.128740928333         0.28366986E-07      0.44670448E-05      0.14529422E-18      0.38330052E-12      0.12467158E-25
    0.131880950975         0.29943001E-07      0.43490853E-05     -0.11571542E-17      0.38453309E-12     -0.10231210E-24
    0.135020973618         0.31575378E-07      0.42345723E-05     -0.48486756E-17      0.38563764E-12     -0.44156331E-24
    0.138160996260         0.33265483E-07      0.41269486E-05     -0.32456054E-17      0.38695457E-12     -0.30431729E-24
    0.141301018902         0.35014721E-07      0.40215825E-05      0.54636512E-18      0.38808325E-12      0.52724307E-25
    0.144441041544         0.36824533E-07      0.39230983E-05     -0.37468982E-17      0.38949184E-12     -0.37199840E-24
    0.147581064187         0.38696400E-07      0.38254156E-05      0.14653494E-17      0.39060797E-12      0.14962483E-24
    0.150721086829         0.40631842E-07      0.37354771E-05      0.14402104E-17      0.39215803E-12      0.15119624E-24
    0.153861109471         0.42632417E-07      0.36435955E-05      0.15926501E-17      0.39315499E-12      0.17185177E-24
    0.157001132113         0.44699723E-07      0.35628053E-05      0.25904917E-17      0.39501782E-12      0.28721479E-24
    0.160141154756         0.46835399E-07      0.34732910E-05     -0.33861711E-18      0.39558059E-12     -0.38565832E-25
    0.163281177398         0.49041122E-07      0.34047817E-05      0.13127611E-18      0.39823194E-12      0.15354389E-25
    0.166421200040         0.51318613E-07      0.33170626E-05      0.17953851E-17      0.39832950E-12      0.21559884E-24
    0.169561222683         0.53669630E-07      0.32397859E-05     -0.87935161E-18      0.39933825E-12     -0.10838949E-24
    0.172701245325         0.56095974E-07      0.31859103E-05     -0.19509302E-17      0.40298819E-12     -0.24677462E-24
    0.175841267967         0.58599489E-07      0.31024345E-05     -0.62337446E-18      0.40262263E-12     -0.80899264E-25
    0.178981290609         0.61182058E-07      0.30424538E-05     -0.31853420E-18      0.40500743E-12     -0.42402851E-25
    0.182121313252         0.63845608E-07      0.29752056E-05     -0.36670654E-17      0.40617181E-12     -0.50062375E-24
    0.185261335894         0.66592107E-07      0.29140423E-05     -0.25310593E-17      0.40790249E-12     -0.35429321E-24
    0.188401358536         0.69423567E-07      0.28529820E-05     -0.13563112E-18      0.40939682E-12     -0.19462776E-25
    0.191541381178         0.72342043E-07      0.27945729E-05     -0.21013405E-17      0.41102302E-12     -0.30906308E-24
    0.194681403821         0.75349631E-07      0.27373733E-05     -0.20937910E-17      0.41258481E-12     -0.31558223E-24
    0.197821426463         0.78448474E-07      0.26821047E-05     -0.34303309E-17      0.41419938E-12     -0.52974850E-24
    0.200961449105         0.81640757E-07      0.26281959E-05     -0.21541075E-17      0.41579049E-12     -0.34078791E-24
    0.204101471747         0.84928709E-07      0.25759076E-05     -0.27605100E-17      0.41740843E-12     -0.44732200E-24
    0.207241494390         0.88314602E-07      0.25246973E-05      0.20274649E-17      0.41897456E-12      0.33645864E-24
    0.210381517032         0.91800755E-07      0.24748888E-05      0.21461836E-17      0.42054930E-12      0.36469355E-24
    0.213521539674         0.95389531E-07      0.24256774E-05      0.10058728E-17      0.42200209E-12      0.17499459E-24
    0.216661562317         0.99083337E-07      0.23775488E-05     -0.86159969E-18      0.42341938E-12     -0.15344291E-24
    0.219801584959         0.10288463E-06      0.23297678E-05     -0.21675945E-17      0.42467319E-12     -0.39511203E-24
    0.222941607601         0.10679590E-06      0.22829796E-05      0.37859366E-18      0.42588074E-12      0.70625139E-25
    0.226081630243         0.11081969E-06      0.22366365E-05     -0.56226873E-18      0.42694271E-12     -0.10732926E-24
    0.229221652886         0.11495860E-06      0.21914825E-05      0.21872264E-17      0.42800258E-12      0.42717134E-24
    0.232361675528         0.11921526E-06      0.21470550E-05     -0.20233635E-17      0.42897606E-12     -0.40426281E-24
    0.235501698170         0.12359235E-06      0.21039482E-05     -0.38689860E-17      0.42998680E-12     -0.79071000E-24
    0.238641720812         0.12809259E-06      0.20616922E-05     -0.16422876E-17      0.43094716E-12     -0.34328071E-24
    0.241781743455         0.13271877E-06      0.20207632E-05     -0.18253715E-17      0.43196325E-12     -0.39019585E-24
    0.244921766097         0.13747370E-06      0.19806712E-05     -0.24267137E-17      0.43293945E-12     -0.53043638E-24
    0.248061788739         0.14236024E-06      0.19418944E-05      0.12563234E-18      0.43398728E-12      0.28077137E-25
    0.251201811381         0.14738131E-06      0.19038876E-05     -0.21660000E-17      0.43499423E-12     -0.49488084E-24
    0.254341834024         0.15253987E-06      0.18672107E-05     -0.32248007E-17      0.43609536E-12     -0.75316653E-24
    0.257481856666         0.15783893E-06      0.18311429E-05     -0.23812481E-17      0.43713168E-12     -0.56845317E-24
    0.260621879308         0.16328153E-06      0.17965786E-05     -0.15211971E-17      0.43832369E-12     -0.37113697E-24
    0.263761901951         0.16887077E-06      0.17622624E-05      0.10304997E-17      0.43937521E-12      0.25692884E-24
    0.266901924593         0.17460981E-06      0.17296613E-05     -0.27454168E-17      0.44065686E-12     -0.69943563E-24
    0.270041947235         0.18050182E-06      0.16971652E-05     -0.97725697E-18      0.44177082E-12     -0.25437924E-24
    0.273181969877         0.18655005E-06      0.16662167E-05     -0.31254339E-18      0.44309551E-12     -0.83114385E-25
    0.276321992520         0.19275778E-06      0.16354638E-05     -0.30822675E-17      0.44428325E-12     -0.83731590E-24
    0.279462015162         0.19912834E-06      0.16061420E-05     -0.36691658E-17      0.44567347E-12     -0.10181228E-23
    0.282602037804         0.20566511E-06      0.15769515E-05     -0.45694076E-19      0.44691633E-12     -0.12949941E-25
    0.285742060446         0.21237151E-06      0.15491762E-05     -0.39208822E-17      0.44837917E-12     -0.11348237E-23
    0.288882083089         0.21925100E-06      0.15214341E-05     -0.75690024E-18      0.44967284E-12     -0.22370833E-24
    0.292022105731         0.22630710E-06      0.14950798E-05     -0.91855906E-18      0.45120028E-12     -0.27721203E-24
    0.295162128373         0.23354337E-06      0.14687422E-05     -0.21305227E-17      0.45255882E-12     -0.65647111E-24
    0.298302151016         0.24096340E-06      0.14435456E-05     -0.16607283E-18      0.45409609E-12     -0.52241525E-25
    0.301442173658         0.24857086E-06      0.14189513E-05      0.58002905E-18      0.45565511E-12      0.18625953E-24
    0.304582196300         0.25636942E-06      0.13940425E-05     -0.12962506E-17      0.45694115E-12     -0.42488679E-24
    0.307722218942         0.26436283E-06      0.13716506E-05     -0.65475820E-18      0.45888893E-12     -0.21905090E-24
    0.310862241585         0.27255487E-06      0.13476511E-05     -0.47923764E-18      0.46013576E-12     -0.16362868E-24
    0.314002264227         0.28094936E-06      0.13256527E-05     -0.16217717E-17      0.46189959E-12     -0.56507684E-24
    0.317142286869         0.28955016E-06      0.13036017E-05     -0.17444695E-18      0.46348652E-12     -0.62023400E-25
    0.320282309511         0.29836118E-06      0.12821151E-05      0.93213202E-18      0.46511350E-12      0.33814996E-24
    0.323422332154         0.30738639E-06      0.12612682E-05     -0.14269070E-17      0.46681479E-12     -0.52812029E-24
    0.326562354796         0.31662976E-06      0.12407019E-05     -0.57750461E-18      0.46846332E-12     -0.21805378E-24
    0.329702377438         0.32609534E-06      0.12207861E-05     -0.14026836E-17      0.47020215E-12     -0.54026243E-24
    0.332842400080         0.33578719E-06      0.12011589E-05     -0.18883705E-17      0.47189837E-12     -0.74188266E-24
    0.335982422723         0.34570944E-06      0.11820961E-05     -0.12517258E-17      0.47366359E-12     -0.50156407E-24
    0.339122445365         0.35586624E-06      0.11633511E-05      0.91794451E-19      0.47540482E-12      0.37511914E-25
    0.342262468007         0.36626178E-06      0.11451109E-05      0.14765229E-18      0.47720217E-12      0.61531151E-25
    0.345402490650         0.37690029E-06      0.11271943E-05      0.53943190E-18      0.47898545E-12      0.22922405E-24
    0.348542513292         0.38778604E-06      0.11096832E-05      0.35071300E-18      0.48079281E-12      0.15195354E-24
    0.351682535934         0.39892335E-06      0.10925929E-05     -0.73018869E-18      0.48263584E-12     -0.32254945E-24
    0.354822558576         0.41031655E-06      0.10758054E-05     -0.17155858E-18      0.48446686E-12     -0.77257882E-25
    0.357962581219         0.42197002E-06      0.10594431E-05     -0.14575106E-18      0.48634468E-12     -0.66908027E-25
    0.361102603861         0.43388818E-06      0.10433568E-05     -0.48124903E-18      0.48820540E-12     -0.22518508E-24
    0.364242626503         0.44607547E-06      0.10276902E-05      0.55061497E-18      0.49011991E-12      0.26259602E-24
    0.367382649145         0.45853638E-06      0.10122660E-05     -0.22852062E-18      0.49200822E-12     -0.11107162E-24
    0.370522671788         0.47127541E-06      0.99726170E-06     -0.10328213E-17      0.49395988E-12     -0.51157314E-24
    0.373662694430         0.48429711E-06      0.98246681E-06      0.23506804E-20      0.49587540E-12      0.11864468E-26
    0.376802717072         0.49760605E-06      0.96809112E-06     -0.36993544E-18      0.49786364E-12     -0.19024801E-24
    0.379942739715         0.51120685E-06      0.95389625E-06     -0.10823443E-17      0.49980685E-12     -0.56710895E-24
    0.383082762357         0.52510413E-06      0.94011803E-06     -0.49383234E-18      0.50183131E-12     -0.26360576E-24
    0.386222784999         0.53930256E-06      0.92649446E-06      0.22257511E-18      0.50380209E-12      0.12103020E-24
    0.389362807641         0.55380682E-06      0.91328491E-06     -0.77381322E-18      0.50586270E-12     -0.42861022E-24
    0.392502830284         0.56862162E-06      0.90020337E-06     -0.30127001E-18      0.50785970E-12     -0.16996482E-24
    0.395642852926         0.58375171E-06      0.88753466E-06     -0.47361101E-18      0.50995600E-12     -0.27212546E-24
    0.398782875568         0.59920184E-06      0.87496772E-06     -0.10299291E-17      0.51197790E-12     -0.60265187E-24
    0.401922898210         0.61497679E-06      0.86281632E-06     -0.10546245E-17      0.51411097E-12     -0.62840029E-24
    0.405062920853         0.63108138E-06      0.85073357E-06     -0.18600349E-18      0.51615363E-12     -0.11285129E-24
    0.408202943495         0.64752043E-06      0.83907484E-06     -0.43848046E-18      0.51832312E-12     -0.27086328E-24
    0.411342966137         0.66429877E-06      0.82744340E-06     -0.60590092E-18      0.52037954E-12     -0.38105137E-24
    0.414482988779         0.68142128E-06      0.81625330E-06     -0.48308759E-18      0.52258443E-12     -0.30928396E-24
    0.417623011422         0.69889282E-06      0.80503870E-06     -0.50390147E-18      0.52464490E-12     -0.32839333E-24
    0.420763034064         0.71671828E-06      0.79428923E-06     -0.14071006E-18      0.52688050E-12     -0.93338022E-25
    0.423903056706         0.73490258E-06      0.78345429E-06     -0.15715349E-18      0.52893150E-12     -0.10609864E-24
    0.427043079349         0.75345064E-06      0.77312631E-06     -0.50611840E-18      0.53119761E-12     -0.34774251E-24
    0.430183101991         0.77236737E-06      0.76261602E-06     -0.22507336E-18      0.53321092E-12     -0.15736828E-24
    0.433323124633         0.79165771E-06      0.75268324E-06     -0.13370149E-17      0.53550110E-12     -0.95122741E-24
    0.436463147275         0.81132662E-06      0.74241959E-06     -0.13943836E-17      0.53742778E-12     -0.10093759E-23
    0.439603169918         0.83137904E-06      0.73284817E-06     -0.88606782E-18      0.53972782E-12     -0.65257098E-24
    0.442743192560         0.85181993E-06      0.72272288E-06     -0.10340535E-17      0.54148976E-12     -0.77474976E-24
    0.445883215202         0.87265424E-06      0.71347914E-06     -0.11147952E-17      0.54378210E-12     -0.84964737E-24
    0.449023237844         0.89388696E-06      0.70332395E-06     -0.17876662E-18      0.54524506E-12     -0.13858708E-24
    0.452163260487         0.91552302E-06      0.69435515E-06     -0.66264703E-18      0.54749254E-12     -0.52249098E-24
    0.455303283129         0.93756741E-06      0.68385095E-06     -0.69840149E-18      0.54838519E-12     -0.56005338E-24
    0.458443305771         0.96002506E-06      0.67504604E-06     -0.75121616E-18      0.55049436E-12     -0.61261045E-24
    0.461583328413         0.98290095E-06      0.66356509E-06     -0.34295566E-18      0.55025717E-12     -0.28439382E-24
    0.464723351056         0.10062000E-05      0.65472234E-06     -0.40417720E-18      0.55203870E-12     -0.34078791E-24
    0.467863373698         0.10299272E-05      0.64075552E-06     -0.50089270E-18      0.54929087E-12     -0.42939277E-24
    0.471003396340         0.10540874E-05      0.63132320E-06     -0.22569619E-18      0.55020798E-12     -0.19669773E-24
    0.474143418983         0.10786856E-05      0.61011849E-06     -0.51236647E-18      0.54053260E-12     -0.45392950E-24
    0.477283441625         0.11037267E-05      0.59782098E-06     -0.56014877E-18      0.53836754E-12     -0.50444184E-24
    0.480423464267         0.11292155E-05      0.54334879E-06     -0.35626284E-18      0.49734055E-12     -0.32609617E-24
    0.483563486909         0.11551570E-05      0.49619813E-06     -0.37903088E-18      0.46159933E-12     -0.35260189E-24
    0.486703509552         0.11815559E-05      0.85813335E-06     -0.66463071E-18      0.81127321E-12     -0.62833718E-24
    0.489843532194         0.12084172E-05      0.91586217E-06      0.50713740E-19      0.87985721E-12      0.48720050E-25
    0.492983554836         0.12357457E-05      0.70139553E-06      0.26325642E-19      0.68467143E-12      0.25697933E-25
    0.496123577478         0.12635461E-05      0.68571225E-06     -0.29934424E-18      0.68008887E-12     -0.29688938E-24
    0.499263600121         0.12918231E-05      0.65504064E-06     -0.44776709E-18      0.66003041E-12     -0.45117795E-24
    0.502403622763         0.13205817E-05      0.64249191E-06     -0.78232935E-18      0.65766193E-12     -0.80080110E-24
    0.505543645405         0.13498263E-05      0.63335202E-06     -0.84073887E-18      0.65854725E-12     -0.87418410E-24
    0.508683668048         0.13795618E-05      0.61942731E-06     -0.77107899E-19      0.65419354E-12     -0.81435689E-25
