 
 # eight columns.
 # Omega (column 1); |pulse ft|^2 (2); cross section (Mb) (3); flux (5); flux in
 tegral domega (7)
 
  0.0000      0.328181E-12      0.000000E+00      0.000000E+00      0.000000E+00      0.000000E+00      0.000000E+00      0.000000E+00
  0.0031      0.150842E-10     -0.234402E-01      0.668292E-10     -0.697729E-11      0.198926E-19     -0.219143E-13      0.624788E-22
  0.0063      0.593672E-10     -0.873505E-02      0.350916E-10     -0.511662E-11      0.205552E-19     -0.379846E-13      0.127039E-21
  0.0094      0.133221E-09     -0.346036E-02     -0.422208E-11     -0.303232E-11     -0.369982E-20     -0.475086E-13      0.115418E-21
  0.0126      0.236721E-09     -0.221912E-02      0.610032E-12     -0.259155E-11      0.712410E-21     -0.556481E-13      0.117656E-21
  0.0157      0.369969E-09     -0.147238E-02      0.182471E-11     -0.214989E-11      0.266434E-20     -0.624005E-13      0.126024E-21
  0.0188      0.533099E-09     -0.113586E-02     -0.393522E-12     -0.199151E-11     -0.689965E-21     -0.686555E-13      0.123857E-21
  0.0220      0.726274E-09     -0.894797E-03      0.574567E-12     -0.183201E-11      0.117637E-20     -0.744095E-13      0.127552E-21
  0.0251      0.949686E-09     -0.706520E-03      0.862460E-12     -0.165507E-11      0.202037E-20     -0.796077E-13      0.133897E-21
  0.0283      0.120356E-08     -0.559883E-03      0.197021E-14     -0.147749E-11      0.519923E-23     -0.842482E-13      0.133913E-21
  0.0314      0.148814E-08     -0.476409E-03      0.168595E-11     -0.139903E-11      0.495098E-20     -0.886423E-13      0.149464E-21
  0.0345      0.180372E-08     -0.407771E-03      0.742302E-12     -0.131946E-11      0.240192E-20     -0.927865E-13      0.157008E-21
  0.0377      0.215061E-08     -0.355238E-03      0.726870E-12     -0.125632E-11      0.257063E-20     -0.967323E-13      0.165081E-21
  0.0408      0.252915E-08     -0.310523E-03      0.916661E-12     -0.119214E-11      0.351918E-20     -0.100477E-12      0.176134E-21
  0.0440      0.293971E-08     -0.276612E-03      0.356475E-12     -0.114617E-11      0.147709E-20     -0.104077E-12      0.180774E-21
  0.0471      0.338271E-08     -0.246927E-03      0.544190E-12     -0.109886E-11      0.242172E-20     -0.107528E-12      0.188380E-21
  0.0503      0.385856E-08     -0.219984E-03      0.533071E-12     -0.104688E-11      0.253683E-20     -0.110816E-12      0.196348E-21
  0.0534      0.436774E-08     -0.195997E-03      0.402096E-12     -0.993709E-12      0.203863E-20     -0.113937E-12      0.202751E-21
  0.0565      0.491075E-08     -0.175515E-03     -0.128884E-13     -0.944911E-12     -0.693867E-22     -0.116905E-12      0.202533E-21
  0.0597      0.548811E-08     -0.157202E-03      0.182392E-12     -0.896045E-12      0.103962E-20     -0.119719E-12      0.205798E-21
  0.0628      0.610038E-08     -0.147703E-03     -0.468079E-13     -0.889035E-12     -0.281740E-21     -0.122511E-12      0.204913E-21
  0.0660      0.674816E-08     -0.138223E-03      0.183781E-12     -0.876491E-12      0.116538E-20     -0.125264E-12      0.208573E-21
  0.0691      0.743206E-08     -0.122238E-03      0.222046E-12     -0.814884E-12      0.148023E-20     -0.127824E-12      0.213222E-21
  0.0722      0.815275E-08     -0.107789E-03      0.112669E-12     -0.753968E-12      0.788100E-21     -0.130192E-12      0.215698E-21
  0.0754      0.891090E-08     -0.971076E-04      0.690597E-13     -0.711484E-12      0.505984E-21     -0.132426E-12      0.217287E-21
  0.0785      0.970724E-08     -0.870098E-04      0.112011E-13     -0.666692E-12      0.858260E-22     -0.134520E-12      0.217556E-21
  0.0817      0.105425E-07     -0.779221E-04      0.710987E-13     -0.623495E-12      0.568898E-21     -0.136479E-12      0.219343E-21
  0.0848      0.114175E-07     -0.692512E-04      0.147837E-12     -0.577879E-12      0.123365E-20     -0.138294E-12      0.223218E-21
  0.0879      0.123331E-07     -0.613987E-04      0.782807E-13     -0.533672E-12      0.680409E-21     -0.139970E-12      0.225355E-21
  0.0911      0.132901E-07     -0.539022E-04     -0.196629E-13     -0.487458E-12     -0.177819E-21     -0.141501E-12      0.224796E-21
  0.0942      0.142893E-07     -0.472239E-04     -0.498791E-13     -0.443867E-12     -0.468824E-21     -0.142895E-12      0.223324E-21
  0.0974      0.153318E-07     -0.407208E-04     -0.136669E-13     -0.397418E-12     -0.133383E-21     -0.144143E-12      0.222905E-21
  0.1005      0.164184E-07     -0.347023E-04     -0.166813E-13     -0.351350E-12     -0.168893E-21     -0.145247E-12      0.222375E-21
  0.1036      0.175501E-07     -0.287995E-04     -0.316249E-14     -0.302241E-12     -0.331893E-22     -0.146196E-12      0.222270E-21
  0.1068      0.187281E-07     -0.233274E-04      0.541765E-13     -0.253561E-12      0.588880E-21     -0.146992E-12      0.224120E-21
  0.1099      0.199533E-07     -0.179178E-04      0.224584E-13     -0.201573E-12      0.252655E-21     -0.147625E-12      0.224913E-21
  0.1131      0.212268E-07     -0.128985E-04     -0.329627E-14     -0.150080E-12     -0.383536E-22     -0.148097E-12      0.224793E-21
  0.1162      0.225498E-07     -0.789375E-05      0.262834E-13     -0.949350E-13      0.316100E-21     -0.148395E-12      0.225786E-21
  0.1194      0.239235E-07     -0.326318E-05      0.794875E-13     -0.405400E-13      0.987508E-21     -0.148522E-12      0.228887E-21
  0.1225      0.253490E-07      0.139753E-05      0.358914E-13      0.179249E-13      0.460349E-21     -0.148466E-12      0.230333E-21
  0.1256      0.268275E-07      0.574148E-05      0.265340E-13      0.759882E-13      0.351177E-21     -0.148227E-12      0.231436E-21
  0.1288      0.283605E-07      0.101537E-04      0.228817E-13      0.138597E-12      0.312334E-21     -0.147792E-12      0.232417E-21
  0.1319      0.299491E-07      0.142624E-04      0.307898E-13      0.200691E-12      0.433254E-21     -0.147162E-12      0.233778E-21
  0.1351      0.315948E-07      0.184769E-04      0.156172E-13      0.267904E-12      0.226440E-21     -0.146320E-12      0.234489E-21
  0.1382      0.332990E-07      0.224360E-04      0.398948E-13      0.335061E-12      0.595794E-21     -0.145268E-12      0.236360E-21
  0.1413      0.350630E-07      0.265283E-04      0.197366E-13      0.407894E-12      0.303466E-21     -0.143987E-12      0.237313E-21
  0.1445      0.368884E-07      0.302741E-04      0.699599E-13      0.479076E-12      0.110709E-20     -0.142482E-12      0.240791E-21
  0.1476      0.387766E-07      0.341950E-04     -0.430338E-14      0.556719E-12     -0.700620E-22     -0.140733E-12      0.240571E-21
  0.1508      0.407292E-07      0.379039E-04      0.830423E-14      0.634673E-12      0.139048E-21     -0.138740E-12      0.241007E-21
  0.1539      0.427479E-07      0.418095E-04      0.549742E-14      0.719772E-12      0.946409E-22     -0.136479E-12      0.241305E-21
  0.1570      0.448342E-07      0.454725E-04      0.198606E-13      0.804618E-12      0.351425E-21     -0.133952E-12      0.242408E-21
  0.1602      0.469898E-07      0.493528E-04      0.192196E-13      0.897318E-12      0.349446E-21     -0.131134E-12      0.243506E-21
  0.1633      0.492164E-07      0.530326E-04      0.372034E-13      0.990492E-12      0.694850E-21     -0.128023E-12      0.245688E-21
  0.1665      0.515159E-07      0.569616E-04      0.774478E-14      0.109257E-11      0.148551E-21     -0.124591E-12      0.246155E-21
  0.1696      0.538899E-07      0.606005E-04      0.499745E-13      0.119341E-11      0.984154E-21     -0.120843E-12      0.249246E-21
  0.1727      0.563404E-07      0.645265E-04     -0.615072E-15      0.130436E-11     -0.124332E-22     -0.116746E-12      0.249207E-21
  0.1759      0.588691E-07      0.681985E-04     -0.621880E-14      0.141474E-11     -0.129005E-21     -0.112303E-12      0.248802E-21
  0.1790      0.614782E-07      0.721893E-04      0.128298E-13      0.153646E-11      0.273066E-21     -0.107477E-12      0.249659E-21
  0.1822      0.641694E-07      0.759863E-04      0.944721E-14      0.165896E-11      0.206255E-21     -0.102267E-12      0.250307E-21
  0.1853      0.669449E-07      0.801390E-04      0.521778E-14      0.179436E-11      0.116829E-21     -0.966311E-13      0.250674E-21
  0.1884      0.698066E-07      0.842607E-04      0.906217E-14      0.193451E-11      0.208055E-21     -0.905551E-13      0.251327E-21
  0.1916      0.727567E-07      0.887593E-04      0.164767E-14      0.208910E-11      0.387807E-22     -0.839937E-13      0.251449E-21
  0.1947      0.757974E-07      0.928183E-04      0.139232E-13      0.223922E-11      0.335894E-21     -0.769607E-13      0.252504E-21
  0.1979      0.789307E-07      0.972986E-04      0.729274E-14      0.240555E-11      0.180301E-21     -0.694053E-13      0.253071E-21
  0.2010      0.821591E-07      0.100618E-03     -0.657195E-15      0.254890E-11     -0.166483E-22     -0.613997E-13      0.253018E-21
  0.2042      0.854846E-07      0.104462E-03     -0.227317E-13      0.271104E-11     -0.589939E-21     -0.528849E-13      0.251165E-21
  0.2073      0.889098E-07      0.107141E-03      0.576864E-14      0.284815E-11      0.153349E-21     -0.439394E-13      0.251647E-21
  0.2104      0.924368E-07      0.110450E-03      0.948047E-14      0.300704E-11      0.258108E-21     -0.344949E-13      0.252458E-21
  0.2136      0.960682E-07      0.113155E-03      0.766609E-14      0.315462E-11      0.213721E-21     -0.245868E-13      0.253129E-21
  0.2167      0.998065E-07      0.116557E-03      0.120979E-14      0.332698E-11      0.345318E-22     -0.141374E-13      0.253237E-21
  0.2199      0.103654E-06      0.119782E-03      0.171850E-14      0.350010E-11      0.502158E-22     -0.314429E-14      0.253395E-21
  0.2230      0.107613E-06      0.123748E-03      0.536945E-14      0.370125E-11      0.160598E-21      0.848064E-14      0.253900E-21
  0.2261      0.111687E-06      0.127471E-03     -0.111165E-14      0.390198E-11     -0.340282E-22      0.207360E-13      0.253793E-21
  0.2293      0.115878E-06      0.132001E-03      0.395413E-14      0.413483E-11      0.123860E-21      0.337227E-13      0.254182E-21
  0.2324      0.120189E-06      0.136008E-03      0.843270E-14      0.435913E-11      0.270273E-21      0.474139E-13      0.255031E-21
  0.2356      0.124623E-06      0.140914E-03      0.355822E-14      0.462052E-11      0.116673E-21      0.619261E-13      0.255397E-21
  0.2387      0.129182E-06      0.145175E-03      0.174240E-13      0.486947E-11      0.584437E-21      0.772202E-13      0.257233E-21
  0.2418      0.133869E-06      0.150443E-03      0.438845E-14      0.516132E-11      0.150557E-21      0.934309E-13      0.257705E-21
  0.2450      0.138687E-06      0.154969E-03      0.563727E-14      0.543734E-11      0.197793E-21      0.110509E-12      0.258327E-21
  0.2481      0.143639E-06      0.160621E-03      0.357027E-14      0.576300E-11      0.128100E-21      0.128609E-12      0.258729E-21
  0.2513      0.148728E-06      0.165411E-03      0.658385E-14      0.606834E-11      0.241537E-21      0.147668E-12      0.259488E-21
  0.2544      0.153957E-06      0.171461E-03      0.115150E-14      0.643105E-11      0.431897E-22      0.167867E-12      0.259623E-21
  0.2575      0.159330E-06      0.176528E-03      0.143553E-14      0.676856E-11      0.550421E-22      0.189126E-12      0.259796E-21
  0.2607      0.164848E-06      0.183008E-03      0.562598E-14      0.717261E-11      0.220498E-21      0.211654E-12      0.260489E-21
  0.2638      0.170516E-06      0.188372E-03      0.984124E-14      0.754577E-11      0.394219E-21      0.235354E-12      0.261727E-21
  0.2670      0.176337E-06      0.195330E-03      0.179867E-14      0.799639E-11      0.736338E-22      0.260469E-12      0.261958E-21
  0.2701      0.182313E-06      0.201016E-03      0.416024E-14      0.840914E-11      0.174036E-21      0.286880E-12      0.262505E-21
  0.2733      0.188449E-06      0.208505E-03      0.225424E-14      0.891234E-11      0.963554E-22      0.314872E-12      0.262807E-21
  0.2764      0.194747E-06      0.214545E-03      0.496495E-15      0.936930E-11      0.216822E-22      0.344299E-12      0.262876E-21
  0.2795      0.201211E-06      0.222628E-03      0.164293E-14      0.993217E-11      0.732962E-22      0.375494E-12      0.263106E-21
  0.2827      0.207845E-06      0.229061E-03      0.250477E-14      0.104388E-10      0.114147E-21      0.408280E-12      0.263464E-21
  0.2858      0.214651E-06      0.237819E-03      0.171204E-14      0.110698E-10      0.796907E-22      0.443048E-12      0.263715E-21
  0.2890      0.221634E-06      0.244692E-03      0.882305E-14      0.116324E-10      0.419439E-21      0.479584E-12      0.265032E-21
  0.2921      0.228797E-06      0.254221E-03      0.352793E-14      0.123419E-10      0.171273E-21      0.518347E-12      0.265570E-21
  0.2952      0.236144E-06      0.261593E-03     -0.145767E-15      0.129681E-10     -0.722622E-23      0.559077E-12      0.265547E-21
  0.2984      0.243678E-06      0.272006E-03      0.970594E-15      0.137681E-10      0.491283E-22      0.602320E-12      0.265701E-21
  0.3015      0.251403E-06      0.279944E-03      0.297042E-14      0.144668E-10      0.153504E-21      0.647758E-12      0.266184E-21
  0.3047      0.259324E-06      0.291378E-03      0.480179E-16      0.153719E-10      0.253323E-23      0.696038E-12      0.266192E-21
  0.3078      0.267442E-06      0.299959E-03      0.158473E-14      0.161535E-10      0.853418E-22      0.746773E-12      0.266460E-21
  0.3109      0.275764E-06      0.312574E-03      0.997357E-15      0.171813E-10      0.548219E-22      0.800736E-12      0.266632E-21
  0.3141      0.284292E-06      0.321889E-03     -0.162788E-14      0.180581E-10     -0.913249E-22      0.857453E-12      0.266345E-21
  0.3172      0.293030E-06      0.335877E-03      0.149884E-14      0.192297E-10      0.858121E-22      0.917850E-12      0.266614E-21
  0.3204      0.301983E-06      0.346031E-03      0.501386E-14      0.202162E-10      0.292925E-21      0.981345E-12      0.267534E-21
  0.3235      0.311154E-06      0.361620E-03     -0.127074E-14      0.215572E-10     -0.757524E-22      0.104905E-11      0.267297E-21
  0.3266      0.320548E-06      0.372736E-03      0.198196E-15      0.226706E-10      0.120547E-22      0.112026E-11      0.267334E-21
  0.3298      0.330169E-06      0.390200E-03     -0.158448E-14      0.242123E-10     -0.983183E-22      0.119630E-11      0.267026E-21
  0.3329      0.340020E-06      0.402423E-03      0.332389E-14      0.254732E-10      0.210401E-21      0.127631E-11      0.267686E-21
  0.3361      0.350107E-06      0.422095E-03      0.249215E-14      0.272539E-10      0.160914E-21      0.136191E-11      0.268192E-21
  0.3392      0.360433E-06      0.435594E-03      0.130127E-14      0.286869E-10      0.856979E-22      0.145201E-11      0.268461E-21
  0.3423      0.371002E-06      0.457879E-03      0.285395E-15      0.307540E-10      0.191689E-22      0.154860E-11      0.268521E-21
  0.3455      0.381819E-06      0.472854E-03     -0.876103E-15      0.323887E-10     -0.600097E-22      0.165033E-11      0.268333E-21
  0.3486      0.392889E-06      0.498250E-03      0.247385E-14      0.348013E-10      0.172791E-21      0.175963E-11      0.268875E-21
  0.3518      0.404215E-06      0.514941E-03      0.123195E-14      0.366736E-10      0.877380E-22      0.187482E-11      0.269151E-21
  0.3549      0.415803E-06      0.544065E-03     -0.976619E-15      0.395058E-10     -0.709145E-22      0.199890E-11      0.268928E-21
  0.3581      0.427655E-06      0.562757E-03     -0.111798E-14      0.416593E-10     -0.827610E-22      0.212974E-11      0.268668E-21
  0.3612      0.439778E-06      0.596381E-03     -0.706883E-16      0.450051E-10     -0.533439E-23      0.227109E-11      0.268652E-21
  0.3643      0.452176E-06      0.617425E-03      0.255791E-15      0.474936E-10      0.196760E-22      0.242026E-11      0.268713E-21
  0.3675      0.464853E-06      0.656524E-03      0.105710E-14      0.514732E-10      0.828798E-22      0.258193E-11      0.268974E-21
  0.3706      0.477814E-06      0.680339E-03      0.750788E-15      0.543630E-10      0.599922E-22      0.275267E-11      0.269162E-21
  0.3738      0.491063E-06      0.726160E-03     -0.152921E-14      0.591321E-10     -0.124525E-21      0.293839E-11      0.268771E-21
  0.3769      0.504605E-06      0.753267E-03     -0.179169E-14      0.625058E-10     -0.148674E-21      0.313471E-11      0.268304E-21
  0.3800      0.518445E-06      0.807422E-03     -0.247932E-14      0.682683E-10     -0.209629E-21      0.334913E-11      0.267646E-21
  0.3832      0.532587E-06      0.838464E-03      0.226130E-14      0.722298E-10      0.194801E-21      0.357599E-11      0.268257E-21
  0.3863      0.547037E-06      0.903067E-03     -0.139552E-15      0.792561E-10     -0.122476E-22      0.382492E-11      0.268219E-21
  0.3895      0.561799E-06      0.938849E-03      0.102856E-14      0.839375E-10      0.919585E-22      0.408855E-11      0.268508E-21
  0.3926      0.576877E-06      0.101671E-02      0.962234E-15      0.925918E-10      0.876305E-22      0.437936E-11      0.268783E-21
  0.3957      0.592277E-06      0.105825E-02      0.133986E-14      0.981621E-10      0.124284E-21      0.468767E-11      0.269173E-21
  0.3989      0.608004E-06      0.115318E-02      0.152359E-14      0.108944E-09      0.143937E-21      0.502984E-11      0.269625E-21
  0.4020      0.624062E-06      0.120176E-02     -0.506850E-15      0.115621E-09     -0.487639E-22      0.539299E-11      0.269472E-21
  0.4052      0.640457E-06      0.131902E-02      0.629149E-15      0.129227E-09      0.616389E-22      0.579886E-11      0.269666E-21
  0.4083      0.657192E-06      0.137632E-02     -0.299991E-14      0.137300E-09     -0.299267E-21      0.623010E-11      0.268726E-21
  0.4114      0.674274E-06      0.152331E-02      0.139392E-14      0.154723E-09      0.141581E-21      0.671605E-11      0.269171E-21
  0.4146      0.691707E-06      0.159146E-02      0.612174E-15      0.164568E-09      0.633030E-22      0.723293E-11      0.269369E-21
  0.4177      0.709496E-06      0.177889E-02      0.122376E-14      0.187262E-09      0.128824E-21      0.782108E-11      0.269774E-21
  0.4209      0.727646E-06      0.186080E-02     -0.426241E-15      0.199396E-09     -0.456743E-22      0.844734E-11      0.269631E-21
  0.4240      0.746161E-06      0.210473E-02      0.183175E-14      0.229561E-09      0.199787E-21      0.916835E-11      0.270258E-21
  0.4271      0.765048E-06      0.220393E-02      0.403670E-15      0.244652E-09      0.448103E-22      0.993675E-11      0.270399E-21
  0.4303      0.784311E-06      0.252894E-02     -0.374546E-15      0.285698E-09     -0.423131E-22      0.108341E-10      0.270266E-21
  0.4334      0.803955E-06      0.265027E-02     -0.579201E-15      0.304680E-09     -0.665860E-22      0.117910E-10      0.270057E-21
  0.4366      0.823984E-06      0.309642E-02     -0.107035E-14      0.362214E-09     -0.125207E-21      0.129287E-10      0.269664E-21
  0.4397      0.844405E-06      0.324563E-02      0.820591E-15      0.386298E-09      0.976678E-22      0.141419E-10      0.269970E-21
  0.4429      0.865222E-06      0.388114E-02      0.940702E-15      0.469970E-09      0.113910E-21      0.156180E-10      0.270328E-21
  0.4460      0.886440E-06      0.406420E-02      0.321012E-15      0.500653E-09      0.395443E-22      0.171905E-10      0.270452E-21
  0.4491      0.908064E-06      0.501456E-02     -0.257595E-15      0.628368E-09     -0.322789E-22      0.191641E-10      0.270351E-21
  0.4523      0.930099E-06      0.523279E-02      0.387332E-16      0.666963E-09      0.493687E-23      0.212589E-10      0.270366E-21
  0.4554      0.952551E-06      0.675216E-02     -0.152332E-16      0.875314E-09     -0.197475E-23      0.240081E-10      0.270360E-21
  0.4586      0.975423E-06      0.698155E-02     -0.197343E-15      0.920436E-09     -0.260173E-22      0.268990E-10      0.270279E-21
