 
 # Omega; pulse ft; proj flux t=    1000.25000000000     
    0.000000000000         0.32818054E-12      0.00000000E+00      0.00000000E+00      0.00000000E+00      0.00000000E+00      0.00000000E+00      0.00000000E+00
    0.003140807452         0.15084240E-10     -0.23439887E-01      0.70503816E-10     -0.69771858E-11      0.20986374E-19     -0.21913997E-13      0.65914160E-22
    0.006281614903         0.59367197E-10     -0.87435964E-02      0.28401271E-10     -0.51216278E-11      0.16636259E-19     -0.38000044E-13      0.11816545E-21
    0.009422422355         0.13322140E-09     -0.34695151E-02     -0.59704378E-11     -0.30403451E-11     -0.52319102E-20     -0.47549183E-13      0.10173302E-21
    0.012563229807         0.23672078E-09     -0.22264541E-02     -0.17551993E-11     -0.26001087E-11     -0.20497656E-20     -0.55715623E-13      0.95295106E-22
    0.015704037259         0.36996889E-09     -0.14786383E-02      0.13255537E-11     -0.21590292E-11      0.19355032E-20     -0.62496718E-13      0.10137415E-21
    0.018844844710         0.53309892E-09     -0.11425823E-02     -0.26170055E-12     -0.20032973E-11     -0.45884136E-21     -0.68788689E-13      0.99933016E-22
    0.021985652162         0.72627381E-09     -0.90182731E-03      0.50669583E-12     -0.18464055E-11      0.10374114E-20     -0.74587893E-13      0.10319133E-21
    0.025126459614         0.94968623E-09     -0.71157557E-03      0.27872361E-12     -0.16669115E-11      0.65292798E-21     -0.79823341E-13      0.10524205E-21
    0.028267267066         0.12035587E-08     -0.56342884E-03      0.51651171E-12     -0.14868433E-11      0.13630328E-20     -0.84493230E-13      0.10952307E-21
    0.031408074517         0.14881438E-08     -0.47953680E-03      0.16175433E-11     -0.14082125E-11      0.47500937E-20     -0.88916155E-13      0.12444220E-21
    0.034548881969         0.18037240E-08     -0.41052652E-03      0.66671636E-12     -0.13283729E-11      0.21573464E-20     -0.93088318E-13      0.13121801E-21
    0.037689689421         0.21506121E-08     -0.35764177E-03      0.10955809E-11     -0.12648250E-11      0.38745979E-20     -0.97060890E-13      0.14338738E-21
    0.040830496872         0.25291509E-08     -0.31264886E-03      0.47808359E-12     -0.12002995E-11      0.18354248E-20     -0.10083080E-12      0.14915209E-21
    0.043971304324         0.29397140E-08     -0.27854412E-03      0.49597758E-12     -0.11541770E-11      0.20551355E-20     -0.10445585E-12      0.15560688E-21
    0.047112111776         0.33827052E-08     -0.24869909E-03      0.33913917E-12     -0.11067472E-11      0.15092188E-20     -0.10793193E-12      0.16034704E-21
    0.050252919228         0.38585594E-08     -0.22153258E-03      0.41492879E-12     -0.10542514E-11      0.19746046E-20     -0.11124313E-12      0.16654890E-21
    0.053393726679         0.43677419E-08     -0.19733843E-03      0.31448183E-12     -0.10005092E-11      0.15944282E-20     -0.11438553E-12      0.17155669E-21
    0.056534534131         0.49107496E-08     -0.17654892E-03      0.26493340E-13     -0.95047722E-12      0.14263081E-21     -0.11737080E-12      0.17200466E-21
    0.059675341583         0.54881104E-08     -0.15774893E-03      0.14171661E-12     -0.89916011E-12      0.80777673E-21     -0.12019489E-12      0.17454173E-21
    0.062816149035         0.61003835E-08     -0.14907425E-03     -0.11110794E-12     -0.89728653E-12     -0.66876509E-21     -0.12301309E-12      0.17244127E-21
    0.065956956486         0.67481601E-08     -0.14087152E-03      0.15018098E-12     -0.89328625E-12      0.95231881E-21     -0.12581873E-12      0.17543232E-21
    0.069097763938         0.74320630E-08     -0.12451549E-03      0.16771981E-12     -0.83006376E-12      0.11180789E-20     -0.12842580E-12      0.17894399E-21
    0.072238571390         0.81527474E-08     -0.10941315E-03     -0.79873420E-15     -0.76532700E-12     -0.55870145E-23     -0.13082955E-12      0.17892644E-21
    0.075379378841         0.89109006E-08     -0.98590445E-04      0.56849968E-13     -0.72234812E-12      0.41652584E-21     -0.13309830E-12      0.18023467E-21
    0.078520186293         0.97072426E-08     -0.88401087E-04      0.69130061E-14     -0.67735266E-12      0.52969293E-22     -0.13522574E-12      0.18040104E-21
    0.081660993745         0.10542526E-07     -0.79315356E-04      0.29862445E-13     -0.63464371E-12      0.23894506E-21     -0.13721903E-12      0.18115152E-21
    0.084801801197         0.11417538E-07     -0.70674151E-04      0.85142808E-13     -0.58975366E-12      0.71049008E-21     -0.13907134E-12      0.18338303E-21
    0.087942608648         0.12333096E-07     -0.62789615E-04      0.32637869E-13     -0.54576195E-12      0.28368556E-21     -0.14078547E-12      0.18427403E-21
    0.091083416100         0.13290054E-07     -0.55209858E-04      0.14535417E-13     -0.49928296E-12      0.13144910E-21     -0.14235362E-12      0.18468689E-21
    0.094224223552         0.14289299E-07     -0.48441106E-04     -0.62412253E-13     -0.45530780E-12     -0.58662545E-21     -0.14378365E-12      0.18284441E-21
    0.097365031004         0.15331753E-07     -0.41865825E-04      0.21351838E-13     -0.40859320E-12      0.20838514E-21     -0.14506697E-12      0.18349891E-21
    0.100505838455         0.16418370E-07     -0.35798338E-04      0.47255934E-13     -0.36244682E-12      0.47845134E-21     -0.14620534E-12      0.18500163E-21
    0.103646645907         0.17550142E-07     -0.29854151E-04     -0.20594628E-13     -0.31330893E-12     -0.21613346E-21     -0.14718939E-12      0.18432280E-21
    0.106787453359         0.18728094E-07     -0.24346870E-04      0.24919262E-13     -0.26464224E-12      0.27086394E-21     -0.14802058E-12      0.18517353E-21
    0.109928260810         0.19953287E-07     -0.18902725E-04     -0.17736599E-13     -0.21265333E-12     -0.19953456E-21     -0.14868848E-12      0.18454683E-21
    0.113069068262         0.21226819E-07     -0.13850577E-04      0.13288255E-13     -0.16115792E-12      0.15461504E-21     -0.14919464E-12      0.18503245E-21
    0.116209875714         0.22549823E-07     -0.88122580E-05      0.65865633E-13     -0.10598148E-12      0.79213946E-21     -0.14952751E-12      0.18752040E-21
    0.119350683166         0.23923468E-07     -0.41511131E-05      0.66226432E-13     -0.51571109E-13      0.82276017E-21     -0.14968949E-12      0.19010454E-21
    0.122491490617         0.25348961E-07      0.53956264E-06     -0.36824060E-14      0.69205209E-14     -0.47231157E-22     -0.14966775E-12      0.18995619E-21
    0.125632298069         0.26827544E-07      0.49116918E-05      0.55413158E-13      0.65005993E-13      0.73339035E-21     -0.14946358E-12      0.19225963E-21
    0.128773105521         0.28360500E-07      0.93503249E-05      0.16318140E-13      0.12763156E-12      0.22274196E-21     -0.14906271E-12      0.19295922E-21
    0.131913912973         0.29949146E-07      0.13483222E-04      0.39800236E-13      0.18972746E-12      0.56004402E-21     -0.14846682E-12      0.19471821E-21
    0.135054720424         0.31594841E-07      0.17720197E-04      0.70945928E-14      0.25693166E-12      0.10286711E-21     -0.14765984E-12      0.19504130E-21
    0.138195527876         0.33298978E-07      0.21701969E-04      0.52746790E-13      0.32409977E-12      0.78772680E-21     -0.14664191E-12      0.19751539E-21
    0.141336335328         0.35062992E-07      0.25815290E-04      0.20961155E-14      0.39693083E-12      0.32229461E-22     -0.14539523E-12      0.19761662E-21
    0.144477142779         0.36888357E-07      0.29577372E-04      0.44824225E-13      0.46805019E-12      0.70932560E-21     -0.14392517E-12      0.19984448E-21
    0.147617950231         0.38776586E-07      0.33513359E-04      0.53503746E-14      0.54562095E-12      0.87107844E-22     -0.14221148E-12      0.20011806E-21
    0.150758757683         0.40729231E-07      0.37240015E-04      0.20132193E-13      0.62355704E-12      0.33709896E-21     -0.14025301E-12      0.20117683E-21
    0.153899565135         0.42747886E-07      0.41162432E-04     -0.10861548E-13      0.70863232E-12     -0.18698710E-21     -0.13802733E-12      0.20058954E-21
    0.157040372586         0.44834184E-07      0.44843242E-04      0.15838772E-13      0.79348301E-12      0.28026066E-21     -0.13553515E-12      0.20146978E-21
    0.160181180038         0.46989799E-07      0.48739712E-04      0.16199125E-13      0.88617140E-12      0.29452782E-21     -0.13275186E-12      0.20239484E-21
    0.163321987490         0.49216447E-07      0.52439208E-04      0.32620797E-13      0.97940971E-12      0.60926026E-21     -0.12967572E-12      0.20430841E-21
    0.166462794942         0.51515886E-07      0.56386723E-04      0.75499225E-14      0.10815423E-11      0.14481354E-21     -0.12627880E-12      0.20476324E-21
    0.169603602393         0.53889915E-07      0.60044128E-04      0.45289451E-13      0.11824578E-11      0.89189176E-21     -0.12256493E-12      0.20756450E-21
    0.172744409845         0.56340375E-07      0.63987202E-04     -0.73596761E-14      0.12934556E-11     -0.14877060E-21     -0.11850244E-12      0.20709724E-21
    0.175885217297         0.58869149E-07      0.67678630E-04     -0.10769766E-13      0.14039533E-11     -0.22341246E-21     -0.11409289E-12      0.20639554E-21
    0.179026024748         0.61478167E-07      0.71686602E-04      0.13337191E-13      0.15257571E-11      0.28386497E-21     -0.10930078E-12      0.20728711E-21
    0.182166832200         0.64169396E-07      0.75506071E-04      0.10619452E-13      0.16484781E-11      0.23184804E-21     -0.10412323E-12      0.20801530E-21
    0.185307639652         0.66944851E-07      0.79678759E-04      0.15411406E-13      0.17840585E-11      0.34507127E-21     -0.98519844E-13      0.20909910E-21
    0.188448447104         0.69806589E-07      0.83832430E-04      0.35364236E-14      0.19246802E-11      0.81191546E-22     -0.92474794E-13      0.20935411E-21
    0.191589254555         0.72756711E-07      0.88358642E-04      0.13998879E-13      0.20796661E-11      0.32948668E-21     -0.85942964E-13      0.21038896E-21
    0.194730062007         0.75797365E-07      0.92440109E-04      0.17931499E-13      0.22300994E-11      0.43259388E-21     -0.78938651E-13      0.21174766E-21
    0.197870869459         0.78930738E-07      0.96937682E-04      0.87877052E-14      0.23966224E-11      0.21726134E-21     -0.71411321E-13      0.21243003E-21
    0.201011676911         0.82159069E-07      0.10024097E-03     -0.93883810E-15      0.25393477E-11     -0.23783053E-22     -0.63435719E-13      0.21235533E-21
    0.204152484362         0.85484636E-07      0.10406667E-03     -0.20818022E-13      0.27007708E-11     -0.54027582E-21     -0.54953118E-13      0.21065843E-21
    0.207293291814         0.88909765E-07      0.10669819E-03      0.86745105E-14      0.28363770E-11      0.23059605E-21     -0.46044604E-13      0.21138269E-21
    0.210434099266         0.92436830E-07      0.10996096E-03      0.55003876E-14      0.29937128E-11      0.14974933E-21     -0.36641929E-13      0.21185302E-21
    0.213574906717         0.96068246E-07      0.11261583E-03      0.62286396E-14      0.31395815E-11      0.17364629E-21     -0.26781108E-13      0.21239841E-21
    0.216715714169         0.99806478E-07      0.11596760E-03      0.66232050E-14      0.33101499E-11      0.18905110E-21     -0.16384564E-13      0.21299219E-21
    0.219856521621         0.10365403E-06      0.11915927E-03      0.64970015E-15      0.34819085E-11      0.18984646E-22     -0.54485600E-14      0.21305181E-21
    0.222997329073         0.10761347E-06      0.12309157E-03      0.28241191E-14      0.36816117E-11      0.84468089E-22      0.61146735E-14      0.21331711E-21
    0.226138136524         0.11168740E-06      0.12679706E-03     -0.23564790E-14      0.38813449E-11     -0.72133433E-22      0.18305230E-13      0.21309055E-21
    0.229278943976         0.11587846E-06      0.13130824E-03      0.49345101E-15      0.41131371E-11      0.15457001E-22      0.31223802E-13      0.21313910E-21
    0.232419751428         0.12018935E-06      0.13530451E-03      0.12759988E-13      0.43365853E-11      0.40896474E-21      0.44844181E-13      0.21442358E-21
    0.235560558880         0.12462281E-06      0.14019959E-03      0.66838482E-14      0.45971047E-11      0.21916148E-21      0.59282802E-13      0.21511192E-21
    0.238701366331         0.12918164E-06      0.14445586E-03      0.13139067E-13      0.48453342E-11      0.44071020E-21      0.74501064E-13      0.21649611E-21
    0.241842173783         0.13386868E-06      0.14971765E-03      0.95213003E-15      0.51364448E-11      0.32665242E-22      0.90633648E-13      0.21659871E-21
    0.244982981235         0.13868680E-06      0.15424290E-03      0.49181893E-14      0.54118667E-11      0.17256278E-21      0.10763128E-12      0.21714069E-21
    0.248123788686         0.14363896E-06      0.15989277E-03      0.27578036E-14      0.57368742E-11      0.98948644E-22      0.12564970E-12      0.21745147E-21
    0.251264596138         0.14872811E-06      0.16468437E-03      0.59665440E-14      0.60416674E-11      0.21889069E-21      0.14462541E-12      0.21813896E-21
    0.254405403590         0.15395730E-06      0.17073351E-03      0.53990233E-14      0.64037649E-11      0.20250317E-21      0.16473840E-12      0.21877499E-21
    0.257546211042         0.15932959E-06      0.17580242E-03      0.43985948E-14      0.67407592E-11      0.16865449E-21      0.18590983E-12      0.21930470E-21
    0.260687018493         0.16484812E-06      0.18228283E-03      0.80700503E-14      0.71441906E-11      0.31628859E-21      0.20834836E-12      0.22029810E-21
    0.263827825945         0.17051605E-06      0.18764947E-03      0.86361496E-14      0.75168295E-11      0.34594536E-21      0.23195727E-12      0.22138465E-21
    0.266968633397         0.17633661E-06      0.19460745E-03      0.43754585E-14      0.79668084E-11      0.17912182E-21      0.25697948E-12      0.22194724E-21
    0.270109440849         0.18231305E-06      0.20029617E-03     -0.70921097E-15      0.83790215E-11     -0.29668535E-22      0.28329637E-12      0.22185405E-21
    0.273250248300         0.18844869E-06      0.20778416E-03      0.37357915E-14      0.88815276E-11      0.15968269E-21      0.31119154E-12      0.22235558E-21
    0.276391055752         0.19474689E-06      0.21382556E-03      0.24165992E-14      0.93378918E-11      0.10553435E-21      0.34052006E-12      0.22268705E-21
    0.279531863204         0.20121105E-06      0.22190658E-03      0.54909369E-14      0.98999587E-11      0.24496816E-21      0.37161393E-12      0.22345645E-21
    0.282672670655         0.20784464E-06      0.22833939E-03      0.28418833E-14      0.10405873E-10      0.12951019E-21      0.40429677E-12      0.22386321E-21
    0.285813478107         0.21465116E-06      0.23709248E-03      0.14201191E-14      0.11035982E-10      0.66102512E-22      0.43895867E-12      0.22407083E-21
    0.288954285559         0.22163414E-06      0.24396429E-03      0.68513337E-14      0.11597822E-10      0.32570567E-21      0.47538519E-12      0.22509381E-21
    0.292095093011         0.22879719E-06      0.25348661E-03      0.18287649E-14      0.12306204E-10      0.88782419E-22      0.51403661E-12      0.22537265E-21
    0.295235900462         0.23614394E-06      0.26085497E-03     -0.23979393E-14      0.12931516E-10     -0.11887444E-21      0.55465201E-12      0.22499929E-21
    0.298376707914         0.24367808E-06      0.27125887E-03      0.28351250E-14      0.13730242E-10      0.14350480E-21      0.59777606E-12      0.22545001E-21
    0.301517515366         0.25140334E-06      0.27919090E-03      0.66361812E-14      0.14427877E-10      0.34294100E-21      0.64309124E-12      0.22652713E-21
    0.304658322818         0.25932350E-06      0.29061240E-03      0.23397140E-14      0.15331535E-10      0.12343385E-21      0.69124464E-12      0.22691481E-21
    0.307799130269         0.26744238E-06      0.29918579E-03     -0.17640228E-14      0.16111890E-10     -0.94996962E-22      0.74184898E-12      0.22661644E-21
    0.310939937721         0.27576385E-06      0.31178528E-03      0.15318300E-14      0.17137959E-10      0.84200386E-22      0.79567601E-12      0.22688090E-21
    0.314080745173         0.28429181E-06      0.32109020E-03      0.13477763E-14      0.18013278E-10      0.75610745E-22      0.85225225E-12      0.22711838E-21
    0.317221552624         0.29303021E-06      0.33505867E-03      0.17985732E-14      0.19182855E-10      0.10297232E-21      0.91250190E-12      0.22744179E-21
    0.320362360076         0.30198307E-06      0.34520044E-03      0.67761778E-14      0.20167642E-10      0.39588457E-21      0.97584459E-12      0.22868519E-21
    0.323503167528         0.31115440E-06      0.36076604E-03     -0.54781594E-15      0.21506302E-10     -0.32656885E-22      0.10433917E-11      0.22858262E-21
    0.326643974980         0.32054830E-06      0.37186759E-03      0.46417681E-14      0.22617773E-10      0.28232215E-21      0.11144298E-11      0.22946934E-21
    0.329784782431         0.33016890E-06      0.38930426E-03      0.27989523E-15      0.24156687E-10      0.17367757E-22      0.11903013E-11      0.22952389E-21
    0.332925589883         0.34002034E-06      0.40150958E-03     -0.79488708E-15      0.25415362E-10     -0.50315968E-22      0.12701261E-11      0.22936586E-21
    0.336066397335         0.35010685E-06      0.42114914E-03      0.20717399E-14      0.27192811E-10      0.13376837E-21      0.13555335E-11      0.22978600E-21
    0.339207204787         0.36043265E-06      0.43462752E-03      0.32982780E-14      0.28623251E-10      0.21721459E-21      0.14454336E-11      0.23046823E-21
    0.342348012238         0.37100205E-06      0.45687460E-03     -0.55198651E-15      0.30686558E-10     -0.37074870E-22      0.15418141E-11      0.23035178E-21
    0.345488819690         0.38181936E-06      0.47182617E-03     -0.98696309E-15      0.32318310E-10     -0.67603244E-22      0.16433197E-11      0.23013945E-21
    0.348629627142         0.39288894E-06      0.49717859E-03      0.12756768E-14      0.34726467E-10      0.89102287E-22      0.17523889E-11      0.23041931E-21
    0.351770434593         0.40421519E-06      0.51384221E-03      0.52101229E-14      0.36595336E-10      0.37105982E-21      0.18673278E-11      0.23158473E-21
    0.354911242045         0.41580254E-06      0.54291431E-03      0.28090277E-15      0.39422244E-10      0.20396990E-22      0.19911455E-11      0.23164880E-21
    0.358052049497         0.42765547E-06      0.56157562E-03     -0.68403871E-15      0.41571796E-10     -0.50637379E-22      0.21217145E-11      0.23148975E-21
    0.361192856949         0.43977848E-06      0.59513939E-03     -0.95520831E-16      0.44911359E-10     -0.72083454E-23      0.22627724E-11      0.23146711E-21
    0.364333664400         0.45217610E-06      0.61614668E-03     -0.49648699E-15      0.47395280E-10     -0.38190808E-22      0.24116318E-11      0.23134716E-21
    0.367474471852         0.46485292E-06      0.65517515E-03     -0.18102808E-14      0.51367506E-10     -0.14193092E-21      0.25729673E-11      0.23090139E-21
    0.370615279304         0.47781353E-06      0.67894925E-03      0.99496221E-15      0.54251920E-10      0.79503159E-22      0.27433621E-11      0.23115109E-21
    0.373756086755         0.49106257E-06      0.72468687E-03     -0.10224360E-14      0.59012176E-10     -0.83258266E-22      0.29287080E-11      0.23088959E-21
    0.376896894207         0.50460471E-06      0.75174606E-03      0.72127749E-15      0.62379598E-10      0.59851328E-22      0.31246303E-11      0.23107757E-21
    0.380037701659         0.51844464E-06      0.80580204E-03     -0.11511940E-14      0.68131311E-10     -0.97334518E-22      0.33386176E-11      0.23077186E-21
    0.383178509111         0.53258708E-06      0.83678966E-03      0.14638758E-14      0.72085591E-10      0.12610619E-21      0.35650246E-11      0.23116794E-21
