 
 # Omega; pulse ft; proj flux t=    1000.25000000000     
    0.000000000000         0.32818054E-12      0.00000000E+00      0.00000000E+00      0.00000000E+00      0.00000000E+00      0.00000000E+00      0.00000000E+00
    0.003140807452         0.15084240E-10     -0.15268715E-04      0.10759214E-12     -0.45449309E-14      0.32026195E-22     -0.14274753E-16      0.10058811E-24
    0.006281614903         0.59367197E-10     -0.16489397E-04      0.29174029E-13     -0.96587891E-14      0.17088908E-22     -0.44611150E-16      0.15426108E-24
    0.009422422355         0.13322140E-09     -0.72248852E-05     -0.98432338E-14     -0.63311858E-14     -0.86256515E-23     -0.64496185E-16      0.12716957E-24
    0.012563229807         0.23672078E-09     -0.48897421E-05     -0.91125387E-15     -0.57103629E-14     -0.10641850E-23     -0.82431336E-16      0.12382717E-24
    0.015704037259         0.36996889E-09     -0.34883369E-05      0.42344513E-14     -0.50934845E-14      0.61829211E-23     -0.98428990E-16      0.14324654E-24
    0.018844844710         0.53309892E-09     -0.99300008E-06     -0.11220070E-14     -0.17410338E-14     -0.19672225E-23     -0.10389724E-15      0.13706787E-24
    0.021985652162         0.72627381E-09      0.77748721E-06      0.31041795E-15      0.15918310E-14      0.63555119E-24     -0.98897607E-16      0.13906401E-24
    0.025126459614         0.94968623E-09     -0.74670535E-06     -0.21557982E-15     -0.17492053E-14     -0.50500959E-24     -0.10439152E-15      0.13747788E-24
    0.028267267066         0.12035587E-08     -0.19188193E-05     -0.19945129E-15     -0.50636096E-14     -0.52633589E-24     -0.12029535E-15      0.13582476E-24
    0.031408074517         0.14881438E-08     -0.16801374E-05      0.28079825E-14     -0.49339083E-14      0.82459494E-23     -0.13579180E-15      0.16172369E-24
    0.034548881969         0.18037240E-08     -0.14927681E-05      0.59040270E-15     -0.48302667E-14      0.19104123E-23     -0.15096274E-15      0.16772393E-24
    0.037689689421         0.21506121E-08     -0.13369966E-05      0.17405752E-14     -0.47283814E-14      0.61556652E-23     -0.16581368E-15      0.18705769E-24
    0.040830496872         0.25291509E-08     -0.12001261E-05      0.17729088E-15     -0.46074393E-14      0.68064265E-24     -0.18028476E-15      0.18919546E-24
    0.043971304324         0.29397140E-08     -0.10150854E-05      0.91818855E-15     -0.42061134E-14      0.38046112E-23     -0.19349535E-15      0.20114501E-24
    0.047112111776         0.33827052E-08     -0.85649767E-06      0.69666424E-15     -0.38115397E-14      0.31002576E-23     -0.20546666E-15      0.21088232E-24
    0.050252919228         0.38585594E-08     -0.83183732E-06      0.83661662E-15     -0.39586305E-14      0.39813747E-23     -0.21789996E-15      0.22338705E-24
    0.053393726679         0.43677419E-08     -0.80907394E-06      0.46459467E-15     -0.41020186E-14      0.23555029E-23     -0.23078361E-15      0.23078523E-24
    0.056534534131         0.49107496E-08     -0.71105976E-06     -0.34336839E-15     -0.38280954E-14     -0.18485745E-23     -0.24280692E-15      0.22497922E-24
    0.059675341583         0.54881104E-08     -0.62585174E-06      0.33832710E-15     -0.35673200E-14      0.19284456E-23     -0.25401118E-15      0.23103609E-24
    0.062816149035         0.61003835E-08     -0.10130196E-05     -0.82850219E-16     -0.60974233E-14     -0.49868025E-24     -0.27316201E-15      0.22946983E-24
    0.065956956486         0.67481601E-08     -0.13549144E-05      0.40655299E-15     -0.85917039E-14      0.25780100E-23     -0.30014690E-15      0.23756687E-24
    0.069097763938         0.74320630E-08     -0.10788589E-05      0.14731594E-15     -0.71920500E-14      0.98205955E-24     -0.32273575E-15      0.24065133E-24
    0.072238571390         0.81527474E-08     -0.83080188E-06      0.20494843E-15     -0.58113226E-14      0.14335806E-23     -0.34098799E-15      0.24515393E-24
    0.075379378841         0.89109006E-08     -0.78085464E-06      0.25106840E-15     -0.57211313E-14      0.18395169E-23     -0.35895696E-15      0.25093150E-24
    0.078520186293         0.97072426E-08     -0.73495600E-06      0.10819723E-15     -0.56314285E-14      0.82903601E-24     -0.37664420E-15      0.25353534E-24
    0.081660993745         0.10542526E-07     -0.69658439E-06      0.90542811E-16     -0.55737366E-14      0.72448047E-24     -0.39415023E-15      0.25581079E-24
    0.084801801197         0.11417538E-07     -0.66173376E-06      0.20678501E-15     -0.55219611E-14      0.17255561E-23     -0.41149365E-15      0.26123043E-24
    0.087942608648         0.12333096E-07     -0.62571995E-06      0.21879780E-15     -0.54387042E-14      0.19017717E-23     -0.42857557E-15      0.26720353E-24
    0.091083416100         0.13290054E-07     -0.59123995E-06      0.61235840E-16     -0.53467993E-14      0.55377812E-24     -0.44536884E-15      0.26894284E-24
    0.094224223552         0.14289299E-07     -0.57247274E-06     -0.80733120E-17     -0.53807876E-14     -0.75882700E-25     -0.46226885E-15      0.26870451E-24
    0.097365031004         0.15331753E-07     -0.55410913E-06     -0.36349513E-16     -0.54078767E-14     -0.35475627E-24     -0.47925395E-15      0.26759029E-24
    0.100505838455         0.16418370E-07     -0.53553961E-06      0.89233818E-16     -0.54221687E-14      0.90346409E-24     -0.49628394E-15      0.27042789E-24
    0.103646645907         0.17550142E-07     -0.51814639E-06      0.19604035E-16     -0.54377662E-14      0.20573753E-24     -0.51336292E-15      0.27107408E-24
    0.106787453359         0.18728094E-07     -0.50048065E-06      0.49087636E-16     -0.54400553E-14      0.53356599E-24     -0.53044908E-15      0.27274990E-24
    0.109928260810         0.19953287E-07     -0.48369488E-06     -0.66796500E-16     -0.54415079E-14     -0.75145241E-24     -0.54753981E-15      0.27038974E-24
    0.113069068262         0.21226819E-07     -0.46772800E-06      0.34903413E-16     -0.54422333E-14      0.40611748E-24     -0.56463282E-15      0.27166527E-24
    0.116209875714         0.22549823E-07     -0.45249252E-06      0.80884452E-16     -0.54419455E-14      0.97276475E-24     -0.58172492E-15      0.27472054E-24
    0.119350683166         0.23923468E-07     -0.43794746E-06      0.14365050E-15     -0.54408145E-14      0.17846336E-23     -0.59881347E-15      0.28032573E-24
    0.122491490617         0.25348961E-07     -0.42399559E-06      0.12119621E-16     -0.54382385E-14      0.15544829E-24     -0.61589393E-15      0.28081396E-24
    0.125632298069         0.26827544E-07     -0.41151015E-06      0.11319902E-15     -0.54463161E-14      0.14981833E-23     -0.63299976E-15      0.28551947E-24
    0.128773105521         0.28360500E-07     -0.39940777E-06     -0.27495300E-16     -0.54519002E-14     -0.37530975E-24     -0.65012313E-15      0.28434069E-24
    0.131913912973         0.29949146E-07     -0.38818816E-06      0.53279334E-16     -0.54623410E-14      0.74971346E-24     -0.66727929E-15      0.28669540E-24
    0.135054720424         0.31594841E-07     -0.37737150E-06     -0.37272091E-16     -0.54716482E-14     -0.54042177E-24     -0.68446469E-15      0.28499804E-24
    0.138195527876         0.33298978E-07     -0.36817168E-06     -0.16373269E-16     -0.54983194E-14     -0.24452033E-24     -0.70173385E-15      0.28423005E-24
    0.141336335328         0.35062992E-07     -0.35915114E-06     -0.23823381E-16     -0.55222374E-14     -0.36630363E-24     -0.71907813E-15      0.28307956E-24
    0.144477142779         0.36888357E-07     -0.34906731E-06     -0.32832501E-16     -0.55238520E-14     -0.51956133E-24     -0.73642749E-15      0.28144772E-24
    0.147617950231         0.38776586E-07     -0.33950541E-06     -0.64972733E-16     -0.55273857E-14     -0.10578016E-23     -0.75378794E-15      0.27812537E-24
    0.150758757683         0.40729231E-07     -0.33311639E-06     -0.18730190E-16     -0.55777924E-14     -0.31362345E-24     -0.77130672E-15      0.27714033E-24
    0.153899565135         0.42747886E-07     -0.32670858E-06     -0.31646701E-16     -0.56244552E-14     -0.54481414E-24     -0.78897205E-15      0.27542918E-24
    0.157040372586         0.44834184E-07     -0.32310540E-06     -0.23930168E-17     -0.57172191E-14     -0.42343462E-25     -0.80692873E-15      0.27529619E-24
    0.160181180038         0.46989799E-07     -0.31883227E-06      0.92247866E-17     -0.57969165E-14      0.16772241E-24     -0.82513573E-15      0.27582297E-24
    0.163321987490         0.49216447E-07     -0.31938055E-06      0.28510375E-16     -0.59650864E-14      0.53248970E-24     -0.84387092E-15      0.27749542E-24
    0.166462794942         0.51515886E-07     -0.31925028E-06     -0.14004901E-16     -0.61234750E-14     -0.26862517E-24     -0.86310357E-15      0.27665172E-24
    0.169603602393         0.53889915E-07     -0.31973713E-06      0.34513243E-16     -0.62966299E-14      0.67967434E-24     -0.88288008E-15      0.27878644E-24
    0.172744409845         0.56340375E-07     -0.31968634E-06      0.95266553E-17     -0.64622310E-14      0.19257453E-24     -0.90317670E-15      0.27939128E-24
    0.175885217297         0.58869149E-07     -0.32343711E-06     -0.14474563E-16     -0.67095121E-14     -0.30026628E-24     -0.92424998E-15      0.27844820E-24
    0.179026024748         0.61478167E-07     -0.32624641E-06      0.19100947E-16     -0.69437353E-14      0.40653908E-24     -0.94605892E-15      0.27972507E-24
    0.182166832200         0.64169396E-07     -0.33650099E-06     -0.15866157E-16     -0.73466215E-14     -0.34639615E-24     -0.96913324E-15      0.27863710E-24
    0.185307639652         0.66944851E-07     -0.34552587E-06     -0.50682843E-17     -0.77365456E-14     -0.11348214E-24     -0.99343224E-15      0.27828068E-24
    0.188448447104         0.69806589E-07     -0.37120050E-06      0.42854220E-16     -0.85222658E-14      0.98387545E-24     -0.10201990E-14      0.28137084E-24
    0.191589254555         0.72756711E-07     -0.39425489E-06     -0.37726683E-17     -0.92794381E-14     -0.88795962E-25     -0.10493440E-14      0.28109195E-24
    0.194730062007         0.75797365E-07     -0.41384244E-06      0.25820608E-16     -0.99838674E-14      0.62291707E-24     -0.10807014E-14      0.28304841E-24
    0.197870869459         0.78930738E-07     -0.43045702E-06      0.18739790E-16     -0.10642331E-13      0.46331003E-24     -0.11141269E-14      0.28450358E-24
    0.201011676911         0.82159069E-07     -0.40766194E-06      0.21742455E-16     -0.10327069E-13      0.55078928E-24     -0.11465622E-14      0.28623350E-24
    0.204152484362         0.85484636E-07     -0.38460181E-06     -0.13574172E-16     -0.99813066E-14     -0.35228117E-24     -0.11779116E-14      0.28512705E-24
    0.207293291814         0.88909765E-07     -0.32525051E-06      0.20073785E-16     -0.86461921E-14      0.53362500E-24     -0.12050676E-14      0.28680307E-24
    0.210434099266         0.92436830E-07     -0.26791801E-06      0.24276201E-16     -0.72941301E-14      0.66092522E-24     -0.12279771E-14      0.28887891E-24
    0.213574906717         0.96068246E-07     -0.20534626E-06      0.41898893E-17     -0.57247841E-14      0.11680861E-24     -0.12459575E-14      0.28924578E-24
    0.216715714169         0.99806478E-07     -0.14492844E-06      0.18203620E-17     -0.41368009E-14      0.51959956E-25     -0.12589504E-14      0.28940898E-24
    0.219856521621         0.10365403E-06     -0.10429328E-06      0.46708920E-17     -0.30475152E-14      0.13648639E-24     -0.12685221E-14      0.28983765E-24
    0.222997329073         0.10761347E-06     -0.64343427E-07     -0.55667856E-17     -0.19244820E-14     -0.16649997E-24     -0.12745665E-14      0.28931471E-24
    0.226138136524         0.11168740E-06     -0.43327859E-07     -0.15202667E-16     -0.13262954E-14     -0.46536403E-24     -0.12787321E-14      0.28785309E-24
    0.229278943976         0.11587846E-06     -0.21890311E-07     -0.18140977E-16     -0.68569839E-15     -0.56825316E-24     -0.12808858E-14      0.28606832E-24
    0.232419751428         0.12018935E-06     -0.78892736E-08      0.99988958E-17     -0.25285563E-15      0.32047020E-24     -0.12816799E-14      0.28707485E-24
    0.235560558880         0.12462281E-06      0.64196077E-08     -0.46364443E-17      0.21049711E-15     -0.15202769E-24     -0.12810188E-14      0.28659736E-24
    0.238701366331         0.12918164E-06      0.15675902E-07      0.20125837E-16      0.52580063E-15      0.67506021E-24     -0.12793674E-14      0.28871760E-24
    0.241842173783         0.13386868E-06      0.25137183E-07     -0.11023176E-17      0.86239499E-15     -0.37817808E-25     -0.12766588E-14      0.28859882E-24
    0.244982981235         0.13868680E-06      0.30154404E-07      0.34567213E-17      0.10580170E-14      0.12128477E-24     -0.12733357E-14      0.28897975E-24
    0.248123788686         0.14363896E-06      0.35831535E-07      0.30894958E-17      0.12856179E-14      0.11084960E-24     -0.12692979E-14      0.28932791E-24
    0.251264596138         0.14872811E-06      0.38375849E-07      0.33176462E-17      0.14078696E-14      0.12171231E-24     -0.12648760E-14      0.28971018E-24
    0.254405403590         0.15395730E-06      0.42189410E-07     -0.76150899E-17      0.15824139E-14     -0.28562200E-24     -0.12599060E-14      0.28881310E-24
    0.257546211042         0.15932959E-06      0.43416280E-07     -0.40720453E-17      0.16647023E-14     -0.15613367E-24     -0.12546774E-14      0.28832271E-24
    0.260687018493         0.16484812E-06      0.46380916E-07      0.51184619E-17      0.18178021E-14      0.20060731E-24     -0.12489681E-14      0.28895278E-24
    0.263827825945         0.17051605E-06      0.46947443E-07      0.89568351E-17      0.18806124E-14      0.35879132E-24     -0.12430614E-14      0.29007968E-24
    0.266968633397         0.17633661E-06      0.49611345E-07     -0.32985389E-17      0.20309813E-14     -0.13503506E-24     -0.12366825E-14      0.28965556E-24
    0.270109440849         0.18231305E-06      0.50155569E-07     -0.20743894E-17      0.20981659E-14     -0.86778261E-25     -0.12300926E-14      0.28938300E-24
    0.273250248300         0.18844869E-06      0.53177678E-07      0.90750605E-17      0.22730270E-14      0.38790444E-24     -0.12229534E-14      0.29060134E-24
    0.276391055752         0.19474689E-06      0.54246019E-07      0.68389369E-17      0.23689565E-14      0.29866052E-24     -0.12155130E-14      0.29153937E-24
    0.279531863204         0.20121105E-06      0.58287979E-07     -0.65085160E-17      0.26004122E-14     -0.29036560E-24     -0.12073456E-14      0.29062739E-24
    0.282672670655         0.20784464E-06      0.60294096E-07      0.75443437E-17      0.27477200E-14      0.34381052E-24     -0.11987155E-14      0.29170723E-24
    0.285813478107         0.21465116E-06      0.65725032E-07      0.38828139E-19      0.30593137E-14      0.18073397E-26     -0.11891068E-14      0.29171291E-24
    0.288954285559         0.22163414E-06      0.68985062E-07      0.73750814E-17      0.32794820E-14      0.35060412E-24     -0.11788066E-14      0.29281409E-24
    0.292095093011         0.22879719E-06      0.76000349E-07      0.75178883E-17      0.36896459E-14      0.36497655E-24     -0.11672181E-14      0.29396041E-24
    0.295235900462         0.23614394E-06      0.80683584E-07     -0.91208012E-17      0.39997743E-14     -0.45215080E-24     -0.11546556E-14      0.29254029E-24
    0.298376707914         0.24367808E-06      0.89514321E-07     -0.86502452E-17      0.45309236E-14     -0.43784726E-24     -0.11404249E-14      0.29116510E-24
    0.301517515366         0.25140334E-06      0.95649801E-07      0.48303814E-17      0.49429390E-14      0.24962185E-24     -0.11249000E-14      0.29194911E-24
    0.304658322818         0.25932350E-06      0.10650149E-06     -0.19901590E-17      0.56185882E-14     -0.10499275E-24     -0.11072531E-14      0.29161935E-24
    0.307799130269         0.26744238E-06      0.11412259E-06      0.39057904E-18      0.61457817E-14      0.21033641E-25     -0.10879504E-14      0.29168541E-24
    0.310939937721         0.27576385E-06      0.12710814E-06      0.10773851E-17      0.69867768E-14      0.59220828E-25     -0.10660063E-14      0.29187141E-24
    0.314080745173         0.28429181E-06      0.13629314E-06     -0.23890497E-17      0.76460950E-14     -0.13402657E-24     -0.10419914E-14      0.29145046E-24
    0.317221552624         0.29303021E-06      0.15158194E-06      0.53303529E-17      0.86784038E-14      0.30517458E-24     -0.10147342E-14      0.29240896E-24
    0.320362360076         0.30198307E-06      0.16237936E-06      0.27075081E-17      0.94866876E-14      0.15818072E-24     -0.98493834E-15      0.29290577E-24
    0.323503167528         0.31115440E-06      0.18015213E-06     -0.40777269E-17      0.10739387E-13     -0.24308503E-24     -0.95120799E-15      0.29214229E-24
    0.326643974980         0.32054830E-06      0.19260641E-06      0.27717469E-17      0.11714729E-13      0.16858351E-24     -0.91441428E-15      0.29267178E-24
    0.329784782431         0.33016890E-06      0.21310917E-06     -0.13819584E-17      0.13223620E-13     -0.85751786E-25     -0.87288144E-15      0.29240245E-24
    0.332925589883         0.34002034E-06      0.22726353E-06      0.15275899E-17      0.14385672E-13      0.96695700E-25     -0.82769881E-15      0.29270615E-24
    0.336066397335         0.35010685E-06      0.25082175E-06     -0.41452708E-18      0.16195091E-13     -0.26765237E-25     -0.77683315E-15      0.29262208E-24
    0.339207204787         0.36043265E-06      0.26676010E-06      0.22740629E-17      0.17568012E-13      0.14976289E-24     -0.72165541E-15      0.29309246E-24
    0.342348012238         0.37100205E-06      0.29375581E-06     -0.20973044E-17      0.19730480E-13     -0.14086810E-24     -0.65968577E-15      0.29265002E-24
    0.345488819690         0.38181936E-06      0.31163330E-06     -0.10024664E-17      0.21345704E-13     -0.68665159E-25     -0.59264303E-15      0.29243436E-24
    0.348629627142         0.39288894E-06      0.34254267E-06     -0.29234019E-17      0.23925601E-13     -0.20419106E-24     -0.51749732E-15      0.29179303E-24
    0.351770434593         0.40421519E-06      0.36254581E-06      0.97700847E-17      0.25820156E-13      0.69581582E-24     -0.43640118E-15      0.29397846E-24
    0.354911242045         0.41580254E-06      0.39806466E-06      0.27647421E-17      0.28904382E-13      0.20075422E-24     -0.34561808E-15      0.29460899E-24
    0.358052049497         0.42765547E-06      0.42041029E-06      0.46767175E-17      0.31121741E-13      0.34620368E-24     -0.24787069E-15      0.29569635E-24
    0.361192856949         0.43977848E-06      0.46140069E-06     -0.17980006E-17      0.34818955E-13     -0.13568359E-24     -0.13851106E-15      0.29527019E-24
    0.364333664400         0.45217610E-06      0.48643810E-06      0.36035005E-17      0.37417827E-13      0.27718873E-24     -0.20988866E-16      0.29614079E-24
    0.367474471852         0.46485292E-06      0.53398706E-06     -0.18029029E-17      0.41866032E-13     -0.14135247E-24      0.11050428E-15      0.29569682E-24
    0.370615279304         0.47781353E-06      0.56215037E-06      0.45628206E-18      0.44919023E-13      0.36459541E-25      0.25158628E-15      0.29581134E-24
    0.373756086755         0.49106257E-06      0.61770151E-06     -0.18240165E-18      0.50300222E-13     -0.14853199E-25      0.40956959E-15      0.29576469E-24
    0.376896894207         0.50460471E-06      0.64951075E-06     -0.42696654E-18      0.53896152E-13     -0.35429520E-25      0.57884703E-15      0.29565341E-24
    0.380037701659         0.51844464E-06      0.71496529E-06     -0.26350862E-17      0.60450979E-13     -0.22279899E-24      0.76871191E-15      0.29495364E-24
    0.383178509111         0.53258708E-06      0.75111679E-06      0.13582687E-17      0.64705266E-13      0.11700861E-24      0.97193869E-15      0.29532114E-24
