
 # Omega; pulse ft; projected flux at t=    1000.2500000000000     
    0.000000000000         0.18717486E-09      0.00000000E+00      0.00000000E+00      0.75369944E-08      0.42351647E-21
    0.003140022642         0.20186436E-09      0.30093765E+00     -0.12045705E-14      0.75340058E-08     -0.30156549E-22
    0.006280045285         0.24594737E-09      0.49874060E+00     -0.11543973E-12      0.76063566E-08     -0.17605861E-20
    0.009420067927         0.31946741E-09      0.58083747E+00      0.11943387E-13      0.76709597E-08      0.15773300E-21
    0.012560090569         0.42249703E-09      0.59026091E+00     -0.37574429E-13      0.77320998E-08     -0.49220478E-21
    0.015700113211         0.55513782E-09      0.56594914E+00     -0.18858905E-12      0.77928799E-08     -0.25967914E-20
    0.018840135854         0.71752051E-09      0.52952649E+00     -0.50547304E-13      0.78534507E-08     -0.74967120E-21
    0.021980158496         0.90980495E-09      0.49098138E+00      0.49793420E-15      0.79141639E-08      0.80262369E-23
    0.025120181138         0.11321802E-08      0.45445167E+00     -0.13578133E-12      0.79763287E-08     -0.23831720E-20
    0.028260203780         0.13848647E-08      0.42124880E+00      0.26124573E-13      0.80388379E-08      0.49854434E-21
    0.031400226423         0.16681061E-08      0.39162508E+00     -0.51144615E-13      0.81018448E-08     -0.10580674E-20
    0.034540249065         0.19821816E-08      0.36537612E+00     -0.72428425E-13      0.81654604E-08     -0.16186374E-20
    0.037680271707         0.23273981E-08      0.34215575E+00      0.12150109E-13      0.82300606E-08      0.29225325E-21
    0.040820294349         0.27040919E-08      0.32156014E+00     -0.33445894E-13      0.82952614E-08     -0.86280108E-21
    0.043960316992         0.31126296E-08      0.30324577E+00     -0.91918805E-13      0.83614946E-08     -0.25345072E-20
    0.047100339634         0.35534072E-08      0.28687882E+00      0.39706590E-13      0.84283385E-08      0.11665573E-20
    0.050240362276         0.40268513E-08      0.27220785E+00     -0.85457977E-14      0.84964208E-08     -0.26673990E-21
    0.053380384919         0.45334185E-08      0.25898114E+00     -0.11772124E-12      0.85651463E-08     -0.38933323E-20
    0.056520407561         0.50735959E-08      0.24701995E+00      0.64701651E-13      0.86350562E-08      0.22617703E-20
    0.059660430203         0.56479014E-08      0.23614660E+00      0.61507167E-14      0.87057254E-08      0.22675089E-21
    0.062800452845         0.62568834E-08      0.22622716E+00     -0.34374132E-13      0.87773329E-08     -0.13336736E-20
    0.065940475488         0.69011217E-08      0.21713838E+00     -0.14156452E-14      0.88496634E-08     -0.57695848E-22
    0.069080498130         0.75812269E-08      0.20880294E+00     -0.31772485E-13      0.89236635E-08     -0.13578687E-20
    0.072220520772         0.82978416E-08      0.20111146E+00     -0.47808135E-13      0.89983706E-08     -0.21390891E-20
    0.075360543414         0.90516395E-08      0.19400336E+00      0.63774991E-15      0.90743392E-08      0.29830201E-22
    0.078500566057         0.98433265E-08      0.18740637E+00     -0.13664079E-13      0.91511567E-08     -0.66722456E-21
    0.081640588699         0.10673641E-07      0.18127607E+00     -0.71321998E-13      0.92293149E-08     -0.36312195E-20
    0.084780611341         0.11543353E-07      0.17555629E+00     -0.15304227E-13      0.93083857E-08     -0.81146418E-21
    0.087920633984         0.12453265E-07      0.17021446E+00     -0.17057403E-13      0.93888291E-08     -0.94086625E-21
    0.091060656626         0.13404215E-07      0.16520706E+00     -0.43578688E-13      0.94702563E-08     -0.24980854E-20
    0.094200679268         0.14397070E-07      0.16050950E+00      0.12048848E-13      0.95530788E-08      0.71711389E-21
    0.097340701910         0.15432734E-07      0.15608782E+00     -0.13417770E-13      0.96369576E-08     -0.82842138E-21
    0.100480724553         0.16512144E-07      0.15192337E+00     -0.41806853E-13      0.97222732E-08     -0.26754123E-20
    0.103620747195         0.17636269E-07      0.14798912E+00      0.11952809E-13      0.98087195E-08      0.79223223E-21
    0.106760769837         0.18806114E-07      0.14427055E+00     -0.44239330E-14      0.98966360E-08     -0.30347189E-21
    0.109900792479         0.20022721E-07      0.14074615E+00     -0.43341758E-14      0.99857650E-08     -0.30750439E-21
    0.113040815122         0.21287162E-07      0.13740428E+00      0.11854904E-13      0.10076397E-07      0.86936682E-21
    0.116180837764         0.22600547E-07      0.13422785E+00     -0.67576593E-14      0.10168330E-07     -0.51192140E-21
    0.119320860406         0.23964023E-07      0.13120716E+00     -0.17959908E-13      0.10261797E-07     -0.14046561E-20
    0.122460883048         0.25378770E-07      0.12832873E+00      0.25094731E-13      0.10356658E-07      0.20252483E-20
    0.125600905691         0.26846007E-07      0.12558432E+00     -0.56024428E-15      0.10453095E-07     -0.46632307E-22
    0.128740928333         0.28366986E-07      0.12296328E+00     -0.10473961E-13      0.10551022E-07     -0.89873174E-21
    0.131880950975         0.29943001E-07      0.12045833E+00      0.69955357E-14      0.10650565E-07      0.61852430E-21
    0.135020973618         0.31575378E-07      0.11806123E+00     -0.19570512E-13      0.10751701E-07     -0.17822640E-20
    0.138160996260         0.33265483E-07      0.11576543E+00     -0.13100742E-13      0.10854500E-07     -0.12283632E-20
    0.141301018902         0.35014721E-07      0.11356464E+00      0.41658986E-14      0.10959003E-07      0.40200978E-21
    0.144441041544         0.36824533E-07      0.11145254E+00     -0.10456224E-14      0.11065197E-07     -0.10381117E-21
    0.147581064187         0.38696400E-07      0.10942473E+00     -0.19045418E-13      0.11173210E-07     -0.19447016E-20
    0.150721086829         0.40631842E-07      0.10747544E+00     -0.82870094E-14      0.11282992E-07     -0.86998721E-21
    0.153861109471         0.42632417E-07      0.10560139E+00     -0.26128476E-13      0.11394710E-07     -0.28193417E-20
    0.157001132113         0.44699723E-07      0.10379687E+00     -0.24994058E-13      0.11508238E-07     -0.27711584E-20
    0.160141154756         0.46835399E-07      0.10206002E+00      0.98965288E-14      0.11623835E-07      0.11271370E-20
    0.163281177398         0.49041122E-07      0.10038518E+00     -0.98992890E-14      0.11741306E-07     -0.11578461E-20
    0.166421200040         0.51318613E-07      0.98771532E-01     -0.66351472E-14      0.11860980E-07     -0.79678173E-21
    0.169561222683         0.53669630E-07      0.97213383E-01      0.25350132E-14      0.11982589E-07      0.31246748E-21
    0.172701245325         0.56095974E-07      0.95710932E-01     -0.14703965E-13      0.12106548E-07     -0.18599156E-20
    0.175841267967         0.58599489E-07      0.94258492E-01     -0.17631782E-13      0.12232523E-07     -0.22881884E-20
    0.178981290609         0.61182058E-07      0.92857119E-01      0.30401303E-14      0.12361017E-07      0.40469811E-21
    0.182121313252         0.63845608E-07      0.91500452E-01     -0.49018055E-14      0.12491541E-07     -0.66918912E-21
    0.185261335894         0.66592107E-07      0.90191050E-01     -0.13275359E-13      0.12624784E-07     -0.18582612E-20
    0.188401358536         0.69423567E-07      0.88921530E-01     -0.37324559E-15      0.12760050E-07     -0.53559945E-22
    0.191541381178         0.72342043E-07      0.87696139E-01     -0.63622136E-14      0.12898261E-07     -0.93574807E-21
    0.194681403821         0.75349631E-07      0.86506123E-01     -0.94367689E-14      0.13038453E-07     -0.14223371E-20
    0.197821426463         0.78448474E-07      0.85358374E-01     -0.24023102E-14      0.13181956E-07     -0.37099050E-21
    0.200961449105         0.81640757E-07      0.84241809E-01     -0.51540701E-14      0.13327371E-07     -0.81539329E-21
    0.204101471747         0.84928709E-07      0.83164870E-01     -0.95279049E-14      0.13476305E-07     -0.15439326E-20
    0.207241494390         0.88314602E-07      0.82118439E-01      0.24424073E-15      0.13627589E-07      0.40531850E-22
    0.210381517032         0.91800755E-07      0.81106967E-01     -0.49104657E-14      0.13782226E-07     -0.83441844E-21
    0.213521539674         0.95389531E-07      0.80125215E-01     -0.59397497E-14      0.13939615E-07     -0.10333554E-20
    0.216661562317         0.99083337E-07      0.79175688E-01     -0.22817161E-14      0.14100456E-07     -0.40635248E-21
    0.219801584959         0.10288463E-06      0.78253922E-01     -0.47012992E-14      0.14264229E-07     -0.85695911E-21
    0.222941607601         0.10679590E-06      0.77362410E-01     -0.11811576E-13      0.14431649E-07     -0.22034024E-20
    0.226081630243         0.11081969E-06      0.76496811E-01     -0.50559638E-14      0.14602174E-07     -0.96511298E-21
    0.229221652886         0.11495860E-06      0.75659724E-01     -0.54445759E-14      0.14776552E-07     -0.10633407E-20
    0.232361675528         0.11921526E-06      0.74847025E-01     -0.11999035E-13      0.14954243E-07     -0.23973762E-20
    0.235501698170         0.12359235E-06      0.74061220E-01     -0.65315541E-14      0.15135994E-07     -0.13348627E-20
    0.238641720812         0.12809259E-06      0.73298553E-01      0.12564462E-14      0.15321299E-07      0.26262984E-21
    0.241781743455         0.13271877E-06      0.72561264E-01     -0.97195325E-14      0.15510872E-07     -0.20776709E-20
    0.244921766097         0.13747370E-06      0.71846119E-01      0.76821293E-15      0.15704282E-07      0.16791766E-21
    0.248061788739         0.14236024E-06      0.71154911E-01     -0.10724385E-13      0.15902165E-07     -0.23967558E-20
    0.251201811381         0.14738131E-06      0.70485103E-01     -0.12059597E-13      0.16104214E-07     -0.27553386E-20
    0.254341834024         0.15253987E-06      0.69837837E-01      0.81459184E-16      0.16310937E-07      0.19025154E-22
    0.257481856666         0.15783893E-06      0.69211477E-01     -0.71102957E-14      0.16522211E-07     -0.16973746E-20
    0.260621879308         0.16328153E-06      0.68606281E-01     -0.18660791E-13      0.16738349E-07     -0.45528021E-20
    0.263761901951         0.16887077E-06      0.68021748E-01      0.60630725E-14      0.16959489E-07      0.15116726E-20
    0.266901924593         0.17460981E-06      0.67456990E-01     -0.19821958E-14      0.17185668E-07     -0.50499376E-21
    0.270041947235         0.18050182E-06      0.66912946E-01     -0.11403559E-13      0.17417389E-07     -0.29683376E-20
    0.273181969877         0.18655005E-06      0.66387187E-01      0.63734771E-14      0.17654285E-07      0.16948931E-20
    0.276321992520         0.19275778E-06      0.65882514E-01     -0.68191840E-14      0.17897368E-07     -0.18524710E-20
    0.279462015162         0.19912834E-06      0.65394540E-01     -0.10193660E-13      0.18145725E-07     -0.28285441E-20
    0.282602037804         0.20566511E-06      0.64928367E-01      0.86102248E-15      0.18401039E-07      0.24401828E-21
    0.285742060446         0.21237151E-06      0.64477161E-01     -0.53729596E-14      0.18661671E-07     -0.15550996E-20
    0.288882083089         0.21925100E-06      0.64048826E-01     -0.11408913E-13      0.18930178E-07     -0.33720018E-20
    0.292022105731         0.22630710E-06      0.63633569E-01      0.22338446E-14      0.19203981E-07      0.67415220E-21
    0.295162128373         0.23354337E-06      0.63242632E-01     -0.18308606E-14      0.19486749E-07     -0.56413718E-21
    0.298302151016         0.24096340E-06      0.62862672E-01     -0.88537288E-14      0.19774708E-07     -0.27851171E-20
    0.301442173658         0.24857086E-06      0.62508945E-01      0.22977166E-14      0.20072937E-07      0.73784511E-21
    0.304582196300         0.25636942E-06      0.62163790E-01     -0.39317287E-14      0.20376132E-07     -0.12887474E-20
    0.307722218942         0.26436283E-06      0.61847340E-01     -0.76202443E-14      0.20691173E-07     -0.25493706E-20
    0.310862241585         0.27255487E-06      0.61536653E-01      0.22966783E-14      0.21010790E-07      0.78416722E-21
    0.314002264227         0.28094936E-06      0.61257823E-01     -0.42565999E-14      0.21344174E-07     -0.14831348E-20
    0.317142286869         0.28955016E-06      0.60981432E-01     -0.67585618E-14      0.21681524E-07     -0.24029597E-20
    0.320282309511         0.29836118E-06      0.60740853E-01     -0.15163173E-15      0.22034987E-07     -0.55007511E-22
    0.323422332154         0.30738639E-06      0.60498753E-01     -0.89654062E-14      0.22391521E-07     -0.33182350E-20
    0.326562354796         0.31662976E-06      0.60297397E-01     -0.64758476E-14      0.22767048E-07     -0.24451459E-20
    0.329702377438         0.32609534E-06      0.60089734E-01      0.44906512E-14      0.23144368E-07      0.17296347E-20
    0.332842400080         0.33578719E-06      0.59928967E-01     -0.20528487E-14      0.23544248E-07     -0.80650110E-21
    0.335982422723         0.34570944E-06      0.59756048E-01     -0.19239733E-14      0.23944131E-07     -0.77093233E-21
    0.339122445365         0.35586624E-06      0.59637689E-01     -0.99589295E-15      0.24371014E-07     -0.40697286E-21
    0.342262468007         0.36626178E-06      0.59499987E-01     -0.25764409E-14      0.24795435E-07     -0.10736804E-20
    0.345402490650         0.37690029E-06      0.59426398E-01     -0.88570316E-14      0.25252417E-07     -0.37636718E-20
    0.348542513292         0.38778604E-06      0.59324555E-01     -0.27892767E-14      0.25703570E-07     -0.12085109E-20
    0.351682535934         0.39892335E-06      0.59298758E-01     -0.77224980E-14      0.26194300E-07     -0.34112928E-20
    0.354822558576         0.41031655E-06      0.59233582E-01     -0.91400877E-14      0.26674627E-07     -0.41160507E-20
    0.357962581219         0.42197002E-06      0.59259414E-01     -0.23226659E-14      0.27203442E-07     -0.10662358E-20
    0.361102603861         0.43388818E-06      0.59231883E-01     -0.50116838E-14      0.27715664E-07     -0.23450570E-20
    0.364242626503         0.44607547E-06      0.59314205E-01     -0.57878389E-14      0.28287778E-07     -0.27603017E-20
    0.367382649145         0.45853638E-06      0.59325456E-01     -0.18720409E-16      0.28834922E-07     -0.90989867E-23
    0.370522671788         0.47127541E-06      0.59470440E-01     -0.58650581E-14      0.29456673E-07     -0.29050583E-20
    0.373662694430         0.48429711E-06      0.59521749E-01     -0.57180327E-14      0.30042105E-07     -0.28860332E-20
    0.376802717072         0.49760605E-06      0.59737269E-01     -0.11307367E-14      0.30721297E-07     -0.58150797E-21
    0.379942739715         0.51120685E-06      0.59830019E-01     -0.46176941E-14      0.31348748E-07     -0.24195033E-20
    0.383082762357         0.52510413E-06      0.60126196E-01     -0.37423303E-14      0.32095127E-07     -0.19976412E-20
    0.386222784999         0.53930256E-06      0.60261824E-01     -0.88533207E-15      0.32768714E-07     -0.48141912E-21
    0.389362807641         0.55380682E-06      0.60651784E-01     -0.76715574E-14      0.33594637E-07     -0.42492268E-20
    0.392502830284         0.56862162E-06      0.60831690E-01     -0.78075871E-14      0.34318872E-07     -0.44047368E-20
    0.395642852926         0.58375171E-06      0.61332671E-01     -0.17419606E-15      0.35240273E-07     -0.10008885E-21
    0.398782875568         0.59920184E-06      0.61558060E-01     -0.36062151E-14      0.36020033E-07     -0.21101377E-20
    0.401922898210         0.61497679E-06      0.62193050E-01     -0.47963391E-14      0.37057863E-07     -0.28579090E-20
    0.405062920853         0.63108138E-06      0.62464647E-01      0.32720970E-15      0.37898299E-07      0.19852335E-21
    0.408202943495         0.64752043E-06      0.63264887E-01     -0.15800923E-14      0.39080726E-07     -0.97607312E-21
    0.411342966137         0.66429877E-06      0.63582447E-01     -0.29278147E-14      0.39987031E-07     -0.18413040E-20
    0.414482988779         0.68142128E-06      0.64591271E-01     -0.14884056E-14      0.41352841E-07     -0.95291207E-21
    0.417623011422         0.69889282E-06      0.64952783E-01     -0.13403418E-14      0.42329824E-07     -0.87350273E-21
    0.420763034064         0.71671828E-06      0.66231889E-01     -0.13317974E-14      0.43933984E-07     -0.88342889E-21
    0.423903056706         0.73490258E-06      0.66632247E-01      0.12252214E-15      0.44985259E-07      0.82718061E-22
    0.427043079349         0.75345064E-06      0.68271850E-01     -0.77050358E-15      0.46908045E-07     -0.52939559E-21
    0.430183101991         0.77236737E-06      0.68700221E-01     -0.72876574E-15      0.48034276E-07     -0.50954326E-21
    0.433323124633         0.79165771E-06      0.70837656E-01      0.86036739E-15      0.50397885E-07      0.61211365E-21
    0.436463147275         0.81132662E-06      0.71273169E-01     -0.64607876E-14      0.51593710E-07     -0.46768792E-20
    0.439603169918         0.83137904E-06      0.74125911E-01     -0.85764087E-14      0.54592231E-07     -0.63163512E-20
    0.442743192560         0.85181993E-06      0.74528715E-01     -0.23074282E-14      0.55839572E-07     -0.17288075E-20
    0.445883215202         0.87265424E-06      0.78461080E-01     -0.42349081E-14      0.59799548E-07     -0.32276588E-20
    0.449023237844         0.89388696E-06      0.78754501E-01     -0.54288910E-14      0.61053661E-07     -0.42086950E-20
    0.452163260487         0.91552302E-06      0.84420988E-01     -0.21023331E-14      0.66565159E-07     -0.16576699E-20
    0.455303283129         0.93756741E-06      0.84451399E-01     -0.19351245E-14      0.67722208E-07     -0.15517908E-20
    0.458443305771         0.96002506E-06      0.93145065E-01     -0.52501914E-14      0.75959016E-07     -0.42814869E-20
    0.461583328413         0.98290095E-06      0.92581523E-01     -0.17636014E-14      0.76772645E-07     -0.14624553E-20
    0.464723351056         0.10062000E-05      0.10723032E+00     -0.40183515E-14      0.90412808E-07     -0.33881318E-20
    0.467863373698         0.10299272E-05      0.10526524E+00     -0.36744071E-14      0.90239154E-07     -0.31499038E-20
    0.471003396340         0.10540874E-05      0.13408973E+00     -0.63022161E-15      0.11686129E-06     -0.54924793E-21
    0.474143418983         0.10786856E-05      0.12825302E+00     -0.26142714E-15      0.11362537E-06     -0.23161057E-21
    0.477283441625         0.11037267E-05      0.20567799E+00     -0.33140508E-14      0.18522327E-06     -0.29844677E-20
    0.480423464267         0.11292155E-05      0.18321486E+00     -0.24580691E-15      0.16770108E-06     -0.22499313E-21
    0.483563486909         0.11551570E-05      0.76429922E+00     -0.62313822E-14      0.71100633E-06     -0.57968817E-20
    0.486703509552         0.11815559E-05      0.10583978E+01     -0.72796637E-14      0.10006018E-05     -0.68821427E-20
    0.489843532194         0.12084172E-05      0.58619249E-01      0.45686250E-14      0.56314772E-07      0.43890203E-20
    0.492983554836         0.12357457E-05     -0.13645406E+00      0.70502491E-15     -0.13320045E-06      0.68821427E-21
    0.496123577478         0.12635461E-05     -0.15321571E-01      0.34445036E-15     -0.15195922E-07      0.34162559E-21
    0.499263600121         0.12918231E-05     -0.27639953E-01      0.79219475E-15     -0.27850500E-07      0.79822929E-21
    0.502403622763         0.13205817E-05      0.22153201E-02      0.47940555E-15      0.22676266E-08      0.49072490E-21
    0.505543645405         0.13498263E-05      0.51553681E-02     -0.15699857E-14      0.53604525E-08     -0.16324409E-20
    0.508683668048         0.13795618E-05      0.11602666E-01     -0.47427961E-14      0.12253883E-07     -0.50089922E-20
