
 # Omega; pulse ft; projected flux at t=    1000.2500000000000     
    0.000000000000         0.18717486E-09      0.00000000E+00      0.00000000E+00      0.35204997E-12      0.20679515E-24
    0.003140022642         0.20186436E-09      0.13949787E-04      0.25752687E-16      0.34923438E-12      0.64472123E-24
    0.006280045285         0.24594737E-09      0.22829533E-04     -0.17440166E-16      0.34817612E-12     -0.26598220E-24
    0.009420067927         0.31946741E-09      0.26426507E-04      0.20497508E-16      0.34900756E-12      0.27070492E-24
    0.012560090569         0.42249703E-09      0.26700079E-04      0.49519137E-16      0.34975664E-12      0.64867401E-24
    0.015700113211         0.55513782E-09      0.25462668E-04     -0.17838544E-16      0.35061014E-12     -0.24562920E-24
    0.018840135854         0.71752051E-09      0.23676352E-04      0.45062719E-16      0.35114591E-12      0.66832888E-24
    0.021980158496         0.90980495E-09      0.21795950E-04      0.58570913E-17      0.35133047E-12      0.94410873E-25
    0.025120181138         0.11321802E-08      0.20058527E-04      0.84884302E-17      0.35205813E-12      0.14898506E-24
    0.028260203780         0.13848647E-08      0.18509009E-04      0.26841367E-17      0.35321387E-12      0.51222316E-25
    0.031400226423         0.16681061E-08      0.17126069E-04     -0.64266910E-17      0.35429997E-12     -0.13295383E-24
    0.034540249065         0.19821816E-08      0.15895868E-04     -0.17230261E-16      0.35524237E-12     -0.38506352E-24
    0.037680271707         0.23273981E-08      0.14813968E-04      0.89575135E-17      0.35632852E-12      0.21546000E-24
    0.040820294349         0.27040919E-08      0.13855143E-04     -0.45619340E-17      0.35742001E-12     -0.11768385E-24
    0.043960316992         0.31126296E-08      0.13003414E-04     -0.19755306E-16      0.35854739E-12     -0.54471950E-24
    0.047100339634         0.35534072E-08      0.12244243E-04      0.66292971E-17      0.35972899E-12      0.19476502E-24
    0.050240362276         0.40268513E-08      0.11563861E-04     -0.43874763E-17      0.36094267E-12     -0.13694625E-24
    0.053380384919         0.45334185E-08      0.10957923E-04     -0.59537731E-17      0.36240560E-12     -0.19690599E-24
    0.056520407561         0.50735959E-08      0.10407483E-04      0.72758073E-17      0.36381354E-12      0.25433980E-24
    0.059660430203         0.56479014E-08      0.99625332E-05      0.82413441E-17      0.36727642E-12      0.30382347E-24
    0.062800452845         0.62568834E-08      0.96742969E-05     -0.10125394E-18      0.37535071E-12     -0.39285273E-26
    0.065940475488         0.69011217E-08      0.91542154E-05     -0.53073500E-18      0.37308800E-12     -0.21630566E-25
    0.069080498130         0.75812269E-08      0.86018149E-05     -0.90054431E-17      0.36761792E-12     -0.38486788E-24
    0.072220520772         0.82978416E-08      0.82416452E-05     -0.96199233E-17      0.36875760E-12     -0.43042618E-24
    0.075360543414         0.90516395E-08      0.79098123E-05      0.18188914E-17      0.36997463E-12      0.85077071E-25
    0.078500566057         0.98433265E-08      0.76085261E-05     -0.13813229E-17      0.37152854E-12     -0.67450763E-25
    0.081640588699         0.10673641E-07      0.73341719E-05     -0.55021432E-17      0.37340496E-12     -0.28013082E-24
    0.084780611341         0.11543353E-07      0.70533181E-05     -0.41351715E-17      0.37398263E-12     -0.21925600E-24
    0.087920633984         0.12453265E-07      0.67523043E-05     -0.44705743E-17      0.37244914E-12     -0.24659161E-24
    0.091060656626         0.13404215E-07      0.64934580E-05      0.11130340E-17      0.37222812E-12      0.63803070E-25
    0.094200679268         0.14397070E-07      0.62707896E-05      0.79645274E-17      0.37321996E-12      0.47402652E-24
    0.097340701910         0.15432734E-07      0.60594716E-05     -0.82590130E-17      0.37411550E-12     -0.50991653E-24
    0.100480724553         0.16512144E-07      0.58609009E-05      0.70944317E-18      0.37506593E-12      0.45400523E-25
    0.103620747195         0.17636269E-07      0.56691570E-05      0.17026445E-17      0.37575175E-12      0.11285129E-24
    0.106760769837         0.18806114E-07      0.54895825E-05      0.11846640E-17      0.37657305E-12      0.81265295E-25
    0.109900792479         0.20022721E-07      0.53173738E-05     -0.21911036E-17      0.37726107E-12     -0.15545609E-24
    0.113040815122         0.21287162E-07      0.51569750E-05      0.76625012E-18      0.37818130E-12      0.56192140E-25
    0.116180837764         0.22600547E-07      0.50035356E-05      0.24039175E-17      0.37903908E-12      0.18210696E-24
    0.119320860406         0.23964023E-07      0.48599851E-05      0.26105118E-17      0.38010259E-12      0.20416982E-24
    0.122460883048         0.25378770E-07      0.47220403E-05     -0.29248725E-17      0.38108813E-12     -0.23604927E-24
    0.125600905691         0.26846007E-07      0.45923082E-05     -0.21057731E-17      0.38224383E-12     -0.17527543E-24
    0.128740928333         0.28366986E-07      0.44670447E-05     -0.54463085E-17      0.38330052E-12     -0.46732751E-24
    0.131880950975         0.29943001E-07      0.43490854E-05     -0.13989417E-17      0.38453310E-12     -0.12369023E-24
    0.135020973618         0.31575378E-07      0.42345723E-05      0.33287977E-17      0.38563764E-12      0.30314978E-24
    0.138160996260         0.33265483E-07      0.41269487E-05     -0.30924149E-17      0.38695458E-12     -0.28995371E-24
    0.141301018902         0.35014721E-07      0.40215825E-05      0.22554687E-17      0.38808325E-12      0.21765303E-24
    0.144441041544         0.36824533E-07      0.39230982E-05     -0.51294153E-18      0.38949183E-12     -0.50925705E-25
    0.147581064187         0.38696400E-07      0.38254156E-05     -0.77603133E-18      0.39060797E-12     -0.79239500E-25
    0.150721086829         0.40631842E-07      0.37354771E-05     -0.13986115E-17      0.39215803E-12     -0.14682910E-24
    0.153861109471         0.42632417E-07      0.36435955E-05      0.25570366E-17      0.39315499E-12      0.27591199E-24
    0.157001132113         0.44699723E-07      0.35628052E-05      0.13224821E-17      0.39501781E-12      0.14662715E-24
    0.160141154756         0.46835399E-07      0.34732908E-05      0.25112855E-17      0.39558057E-12      0.28601572E-24
    0.163281177398         0.49041122E-07      0.34047817E-05      0.49502911E-17      0.39823194E-12      0.57899866E-24
    0.166421200040         0.51318613E-07      0.33170626E-05     -0.97760015E-18      0.39832950E-12     -0.11739512E-24
    0.169561222683         0.53669630E-07      0.32397858E-05     -0.45946442E-18      0.39933824E-12     -0.56633902E-25
    0.172701245325         0.56095974E-07      0.31859102E-05     -0.25110686E-18      0.40298817E-12     -0.31762695E-25
    0.175841267967         0.58599489E-07      0.31024345E-05     -0.24917958E-17      0.40262263E-12     -0.32337617E-24
    0.178981290609         0.61182058E-07      0.30424539E-05     -0.10325932E-17      0.40500743E-12     -0.13745744E-24
    0.182121313252         0.63845608E-07      0.29752057E-05      0.62545407E-19      0.40617183E-12      0.85386304E-26
    0.185261335894         0.66592107E-07      0.29140424E-05     -0.44243945E-17      0.40790250E-12     -0.61931892E-24
    0.188401358536         0.69423567E-07      0.28529820E-05      0.21263829E-18      0.40939683E-12      0.30513140E-25
    0.191541381178         0.72342043E-07      0.27945729E-05     -0.68528596E-18      0.41102301E-12     -0.10079118E-24
    0.194681403821         0.75349631E-07      0.27373733E-05     -0.41124658E-17      0.41258480E-12     -0.61984272E-24
    0.197821426463         0.78448474E-07      0.26821046E-05     -0.64551127E-18      0.41419937E-12     -0.99686775E-25
    0.200961449105         0.81640757E-07      0.26281959E-05     -0.14815472E-18      0.41579048E-12     -0.23438635E-25
    0.204101471747         0.84928709E-07      0.25759077E-05     -0.40493790E-17      0.41740843E-12     -0.65617450E-24
    0.207241494390         0.88314602E-07      0.25246974E-05      0.47481940E-17      0.41897458E-12      0.78796476E-24
    0.210381517032         0.91800755E-07      0.24748890E-05     -0.34412918E-18      0.42054932E-12     -0.58476681E-25
    0.213521539674         0.95389531E-07      0.24256774E-05      0.29859502E-17      0.42200210E-12      0.51947437E-24
    0.216661562317         0.99083337E-07      0.23775487E-05      0.30860110E-17      0.42341937E-12      0.54958993E-24
    0.219801584959         0.10288463E-06      0.23297678E-05     -0.23757055E-17      0.42467319E-12     -0.43304677E-24
    0.222941607601         0.10679590E-06      0.22829796E-05     -0.51388059E-18      0.42588075E-12     -0.95862377E-25
    0.226081630243         0.11081969E-06      0.22366364E-05      0.92683257E-18      0.42694271E-12      0.17691941E-24
    0.229221652886         0.11495860E-06      0.21914825E-05     -0.12731462E-18      0.42800256E-12     -0.24864896E-25
    0.232361675528         0.11921526E-06      0.21470550E-05     -0.14254956E-18      0.42897606E-12     -0.28481034E-25
    0.235501698170         0.12359235E-06      0.21039482E-05      0.12185671E-17      0.42998679E-12      0.24904023E-24
    0.238641720812         0.12809259E-06      0.20616922E-05      0.85216597E-18      0.43094715E-12      0.17812479E-24
    0.241781743455         0.13271877E-06      0.20207632E-05     -0.30376704E-17      0.43196326E-12     -0.64933981E-24
    0.244921766097         0.13747370E-06      0.19806713E-05     -0.13775370E-17      0.43293947E-12     -0.30110505E-24
    0.248061788739         0.14236024E-06      0.19418944E-05     -0.35244262E-18      0.43398728E-12     -0.78766184E-25
    0.251201811381         0.14738131E-06      0.19038875E-05     -0.65686835E-18      0.43499423E-12     -0.15007921E-24
    0.254341834024         0.15253987E-06      0.18672107E-05      0.37129631E-18      0.43609536E-12      0.86717902E-25
    0.257481856666         0.15783893E-06      0.18311428E-05      0.98802962E-18      0.43713166E-12      0.23586310E-24
    0.260621879308         0.16328153E-06      0.17965785E-05     -0.42286946E-18      0.43832367E-12     -0.10317038E-24
    0.263761901951         0.16887077E-06      0.17622624E-05     -0.57574541E-18      0.43937521E-12     -0.14354744E-24
    0.266901924593         0.17460981E-06      0.17296613E-05      0.10657657E-17      0.44065686E-12      0.27151961E-24
    0.270041947235         0.18050182E-06      0.16971652E-05     -0.70649172E-19      0.44177081E-12     -0.18389925E-25
    0.273181969877         0.18655005E-06      0.16662167E-05      0.68840233E-18      0.44309553E-12      0.18306622E-24
    0.276321992520         0.19275778E-06      0.16354639E-05     -0.23138263E-19      0.44428327E-12     -0.62856437E-26
    0.279462015162         0.19912834E-06      0.16061420E-05     -0.12885111E-17      0.44567347E-12     -0.35753701E-24
    0.282602037804         0.20566511E-06      0.15769515E-05     -0.12980502E-17      0.44691631E-12     -0.36787424E-24
    0.285742060446         0.21237151E-06      0.15491762E-05      0.51271062E-18      0.44837916E-12      0.14839420E-24
    0.288882083089         0.21925100E-06      0.15214340E-05      0.39933278E-18      0.44967283E-12      0.11802621E-24
    0.292022105731         0.22630710E-06      0.14950797E-05     -0.85912854E-18      0.45120026E-12     -0.25927649E-24
    0.295162128373         0.23354337E-06      0.14687423E-05      0.36293152E-18      0.45255883E-12      0.11182892E-24
    0.298302151016         0.24096340E-06      0.14435457E-05     -0.16319996E-17      0.45409611E-12     -0.51337806E-24
    0.301442173658         0.24857086E-06      0.14189514E-05     -0.82462625E-19      0.45565514E-12     -0.26480483E-25
    0.304582196300         0.25636942E-06      0.13940426E-05      0.15590203E-17      0.45694117E-12      0.51101778E-24
    0.307722218942         0.26436283E-06      0.13716506E-05     -0.52746611E-18      0.45888893E-12     -0.17646503E-24
    0.310862241585         0.27255487E-06      0.13476510E-05      0.53021486E-18      0.46013573E-12      0.18103411E-24
    0.314002264227         0.28094936E-06      0.13256526E-05      0.69340972E-18      0.46189955E-12      0.24160601E-24
    0.317142286869         0.28955016E-06      0.13036016E-05      0.25645192E-18      0.46348651E-12      0.91179699E-25
    0.320282309511         0.29836118E-06      0.12821152E-05      0.47787814E-18      0.46511351E-12      0.17336007E-24
    0.323422332154         0.30738639E-06      0.12612682E-05      0.11758803E-17      0.46681479E-12      0.43521141E-24
    0.326562354796         0.31662976E-06      0.12407019E-05      0.23382986E-18      0.46846333E-12      0.88289313E-25
    0.329702377438         0.32609534E-06      0.12207861E-05     -0.89855117E-18      0.47020216E-12     -0.34608906E-24
    0.332842400080         0.33578719E-06      0.12011588E-05     -0.50176205E-18      0.47189835E-12     -0.19712687E-24
    0.335982422723         0.34570944E-06      0.11820961E-05     -0.51114184E-18      0.47366359E-12     -0.20481353E-24
    0.339122445365         0.35586624E-06      0.11633511E-05      0.16498601E-17      0.47540483E-12      0.67421733E-24
    0.342262468007         0.36626178E-06      0.11451109E-05      0.11237020E-17      0.47720217E-12      0.46828046E-24
    0.345402490650         0.37690029E-06      0.11271942E-05      0.10017257E-17      0.47898544E-12      0.42566934E-24
    0.348542513292         0.38778604E-06      0.11096831E-05      0.60299099E-18      0.48079280E-12      0.26125811E-24
    0.351682535934         0.39892335E-06      0.10925929E-05      0.13777436E-17      0.48263583E-12      0.60859672E-24
    0.354822558576         0.41031655E-06      0.10758054E-05     -0.41551314E-18      0.48446685E-12     -0.18711781E-24
    0.357962581219         0.42197002E-06      0.10594431E-05      0.77497439E-18      0.48634465E-12      0.35575734E-24
    0.361102603861         0.43388818E-06      0.10433567E-05      0.13211218E-17      0.48820539E-12      0.61817665E-24
    0.364242626503         0.44607547E-06      0.10276902E-05      0.34511027E-19      0.49011991E-12      0.16458794E-25
    0.367382649145         0.45853638E-06      0.10122660E-05     -0.58194853E-19      0.49200820E-12     -0.28285397E-25
    0.370522671788         0.47127541E-06      0.99726163E-06      0.30066514E-18      0.49395984E-12      0.14892432E-24
    0.373662694430         0.48429711E-06      0.98246675E-06     -0.75839453E-18      0.49587537E-12     -0.38278055E-24
    0.376802717072         0.49760605E-06      0.96809112E-06      0.39239221E-18      0.49786364E-12      0.20179693E-24
    0.379942739715         0.51120685E-06      0.95389628E-06      0.41271739E-18      0.49980686E-12      0.21624886E-24
    0.383082762357         0.52510413E-06      0.94011804E-06     -0.10368469E-18      0.50183131E-12     -0.55346481E-25
    0.386222784999         0.53930256E-06      0.92649447E-06      0.52922229E-19      0.50380209E-12      0.28777646E-25
    0.389362807641         0.55380682E-06      0.91328492E-06      0.39057537E-19      0.50586271E-12      0.21633721E-25
    0.392502830284         0.56862162E-06      0.90020336E-06     -0.78420589E-18      0.50785970E-12     -0.44241844E-24
    0.395642852926         0.58375171E-06      0.88753466E-06      0.19489225E-18      0.50995600E-12      0.11198038E-24
    0.398782875568         0.59920184E-06      0.87496772E-06     -0.72973174E-19      0.51197790E-12     -0.42699463E-25
    0.401922898210         0.61497679E-06      0.86281633E-06     -0.11188082E-17      0.51411098E-12     -0.66664426E-24
    0.405062920853         0.63108138E-06      0.85073360E-06      0.86706626E-18      0.51615365E-12      0.52606294E-24
    0.408202943495         0.64752043E-06      0.83907487E-06      0.24208372E-18      0.51832314E-12      0.14954278E-24
    0.411342966137         0.66429877E-06      0.82744340E-06     -0.15307076E-18      0.52037954E-12     -0.96266274E-25
    0.414482988779         0.68142128E-06      0.81625330E-06      0.17145824E-18      0.52258444E-12      0.10977157E-24
    0.417623011422         0.69889282E-06      0.80503869E-06      0.23897457E-18      0.52464490E-12      0.15574008E-24
    0.420763034064         0.71671828E-06      0.79428919E-06     -0.46665506E-18      0.52688047E-12     -0.30954902E-24
    0.423903056706         0.73490258E-06      0.78345426E-06      0.74517975E-18      0.52893148E-12      0.50309131E-24
    0.427043079349         0.75345064E-06      0.77312630E-06      0.20813478E-18      0.53119760E-12      0.14300470E-24
    0.430183101991         0.77236737E-06      0.76261598E-06      0.74643555E-18      0.53321089E-12      0.52189775E-24
    0.433323124633         0.79165771E-06      0.75268320E-06      0.29646589E-18      0.53550107E-12      0.21092247E-24
    0.436463147275         0.81132662E-06      0.74241959E-06     -0.42439504E-19      0.53742778E-12     -0.30721399E-25
    0.439603169918         0.83137904E-06      0.73284816E-06     -0.15120154E-17      0.53972782E-12     -0.11135687E-23
    0.442743192560         0.85181993E-06      0.72272290E-06     -0.11293019E-17      0.54148978E-12     -0.84611327E-24
    0.445883215202         0.87265424E-06      0.71347916E-06      0.60413169E-19      0.54378211E-12      0.46044233E-25
    0.449023237844         0.89388696E-06      0.70332394E-06     -0.34991368E-18      0.54524504E-12     -0.27126718E-24
    0.452163260487         0.91552302E-06      0.69435514E-06     -0.45711055E-18      0.54749253E-12     -0.36042739E-24
    0.455303283129         0.93756741E-06      0.68385093E-06     -0.60966112E-18      0.54838518E-12     -0.48889181E-24
    0.458443305771         0.96002506E-06      0.67504605E-06     -0.82361992E-18      0.55049437E-12     -0.67165511E-24
    0.461583328413         0.98290095E-06      0.66356511E-06     -0.76773848E-19      0.55025719E-12     -0.63664230E-25
    0.464723351056         0.10062000E-05      0.65472236E-06     -0.48591081E-18      0.55203872E-12     -0.40970280E-24
    0.467863373698         0.10299272E-05      0.64075554E-06     -0.41293465E-18      0.54929088E-12     -0.35399029E-24
    0.471003396340         0.10540874E-05      0.63132321E-06     -0.30178755E-18      0.55020799E-12     -0.26301254E-24
    0.474143418983         0.10786856E-05      0.61011849E-06     -0.69252959E-18      0.54053260E-12     -0.61354446E-24
    0.477283441625         0.11037267E-05      0.59782098E-06     -0.47566253E-18      0.53836754E-12     -0.42835778E-24
    0.480423464267         0.11292155E-05      0.54334877E-06      0.25648277E-20      0.49734054E-12      0.23476501E-26
    0.483563486909         0.11551570E-05      0.49619811E-06     -0.10411816E-17      0.46159931E-12     -0.96858235E-24
    0.486703509552         0.11815559E-05      0.85813333E-06     -0.51742452E-18      0.81127319E-12     -0.48916949E-24
    0.489843532194         0.12084172E-05      0.91586217E-06      0.21975078E-18      0.87985721E-12      0.21111180E-24
    0.492983554836         0.12357457E-05      0.70139552E-06     -0.25270548E-18      0.68467143E-12     -0.24667996E-24
    0.496123577478         0.12635461E-05      0.68571225E-06     -0.33202497E-18      0.68008887E-12     -0.32930210E-24
    0.499263600121         0.12918231E-05      0.65504065E-06     -0.21066824E-18      0.66003042E-12     -0.21227300E-24
    0.502403622763         0.13205817E-05      0.64249192E-06     -0.54521127E-18      0.65766195E-12     -0.55808438E-24
    0.505543645405         0.13498263E-05      0.63335202E-06     -0.37482436E-18      0.65854724E-12     -0.38973515E-24
    0.508683668048         0.13795618E-05      0.61942730E-06     -0.34093834E-18      0.65419353E-12     -0.36007398E-24
