 
 # Omega; pulse ft; proj flux t=    1000.25000000000     
    0.000000000000         0.64285036E-11      0.00000000E+00      0.00000000E+00      0.00000000E+00      0.00000000E+00      0.00000000E+00      0.00000000E+00
    0.003140022642         0.21245158E-10      0.43750751E-04     -0.14382865E-12      0.18346591E-13     -0.60313603E-22      0.57608712E-16     -0.18938608E-24
    0.006280045285         0.65709671E-10      0.61103447E-04     -0.91677541E-13      0.39625514E-13     -0.59452778E-22      0.18203372E-15     -0.37606915E-24
    0.009420067927         0.13986570E-09      0.70711300E-04     -0.82346531E-14      0.65071178E-13     -0.75778353E-23      0.38635869E-15     -0.39986372E-24
    0.012560090569         0.24378600E-09      0.61062224E-04     -0.30773736E-14      0.73456679E-13     -0.37020212E-23      0.61701433E-15     -0.41148815E-24
    0.015700113211         0.37757252E-09      0.54916606E-04     -0.98407951E-14      0.81854764E-13     -0.14667985E-22      0.87404014E-15     -0.45754596E-24
    0.018840135854         0.54135636E-09      0.48529066E-04     -0.27398848E-14      0.86425882E-13     -0.48794872E-23      0.11454194E-14     -0.47286766E-24
    0.021980158496         0.73529789E-09      0.43894974E-04     -0.38154720E-14      0.91010179E-13     -0.79108553E-23      0.14311934E-14     -0.49770792E-24
    0.025120181138         0.95958676E-09      0.41153514E-04     -0.63545324E-14      0.97434123E-13     -0.15044846E-22      0.17371387E-14     -0.54494908E-24
    0.028260203780         0.12144420E-08      0.39006551E-04      0.11269289E-14      0.10389191E-12      0.30015163E-23      0.20633617E-14     -0.53552425E-24
    0.031400226423         0.15001122E-08      0.35610048E-04     -0.34157550E-14      0.10544020E-12     -0.10113940E-22      0.23944463E-14     -0.56728225E-24
    0.034540249065         0.18168754E-08      0.32828575E-04     -0.70823319E-15      0.10702726E-12     -0.23089718E-23      0.27305143E-14     -0.57453248E-24
    0.037680271707         0.21650394E-08      0.30247510E-04     -0.20020703E-15      0.10771696E-12     -0.71297413E-24      0.30687480E-14     -0.57677123E-24
    0.040820294349         0.25449417E-08      0.28062311E-04     -0.17812280E-14      0.10843458E-12     -0.68827803E-23      0.34092350E-14     -0.59838332E-24
    0.043960316992         0.29569499E-08      0.26273629E-04     -0.12073926E-14      0.10953323E-12     -0.50335495E-23      0.37531718E-14     -0.61418878E-24
    0.047100339634         0.34014614E-08      0.24722420E-04     -0.43471524E-15      0.11065605E-12     -0.19457590E-23      0.41006344E-14     -0.62029850E-24
    0.050240362276         0.38789041E-08      0.23400029E-04     -0.37980229E-15      0.11197352E-12     -0.18174252E-23      0.44522338E-14     -0.62600526E-24
    0.053380384919         0.43897362E-08      0.22231992E-04     -0.58982775E-15      0.11331249E-12     -0.30062466E-23      0.48080375E-14     -0.63544494E-24
    0.056520407561         0.49344463E-08      0.21194303E-04      0.50083838E-16      0.11468192E-12      0.27100258E-24      0.51681413E-14     -0.63459399E-24
    0.059660430203         0.55135541E-08      0.20265176E-04     -0.30906488E-15      0.11607490E-12     -0.17702621E-23      0.55326191E-14     -0.64015265E-24
    0.062800452845         0.61276098E-08      0.19428537E-04     -0.44129448E-15      0.11749276E-12     -0.26686984E-23      0.59015491E-14     -0.64853242E-24
    0.065940475488         0.67771950E-08      0.18670074E-04     -0.89285132E-15      0.11892869E-12     -0.56874780E-23      0.62749878E-14     -0.66639123E-24
    0.069080498130         0.74629227E-08      0.18077657E-04     -0.99974716E-15      0.12104262E-12     -0.66940097E-23      0.66550644E-14     -0.68741058E-24
    0.072220520772         0.81854373E-08      0.17525112E-04     -0.87069117E-15      0.12310757E-12     -0.61162902E-23      0.70416250E-14     -0.70661587E-24
    0.075360543414         0.89454151E-08      0.16413116E-04     -0.52649051E-15      0.12075085E-12     -0.38733764E-23      0.74207854E-14     -0.71877835E-24
    0.078500566057         0.97435644E-08      0.15407371E-04     -0.91833150E-15      0.11852673E-12     -0.70645944E-23      0.77929620E-14     -0.74096134E-24
    0.081640588699         0.10580626E-07      0.14752092E-04     -0.78369888E-15      0.11849541E-12     -0.62950203E-23      0.81650402E-14     -0.76072785E-24
    0.084780611341         0.11457373E-07      0.14140907E-04     -0.11409935E-15      0.11844273E-12     -0.95568402E-24      0.85369531E-14     -0.76372872E-24
    0.087920633984         0.12374611E-07      0.13266111E-04     -0.31255291E-15      0.11572496E-12     -0.27265091E-23      0.89003321E-14     -0.77229002E-24
    0.091060656626         0.13333179E-07      0.12464020E-04     -0.29742117E-15      0.11311072E-12     -0.26990908E-23      0.92555023E-14     -0.78076522E-24
    0.094200679268         0.14333950E-07      0.11781949E-04     -0.75372548E-16      0.11111474E-12     -0.71083324E-24      0.96044051E-14     -0.78299726E-24
    0.097340701910         0.15377830E-07      0.11157024E-04     -0.32501299E-15      0.10924249E-12     -0.31823209E-23      0.99474290E-14     -0.79298982E-24
    0.100480724553         0.16465758E-07      0.10938101E-04     -0.23585905E-15      0.11109220E-12     -0.23954891E-23      0.10296261E-13     -0.80051171E-24
    0.103620747195         0.17598710E-07      0.10734420E-04      0.24595168E-15      0.11299399E-12      0.25889674E-23      0.10651065E-13     -0.79238229E-24
    0.106760769837         0.18777693E-07      0.10726657E-04     -0.63300623E-16      0.11693314E-12     -0.69005101E-24      0.11018237E-13     -0.79454907E-24
    0.109900792479         0.20003751E-07      0.10717825E-04     -0.71272922E-16      0.12090937E-12     -0.80404037E-24      0.11397896E-13     -0.79707377E-24
    0.113040815122         0.21277963E-07      0.10794784E-04      0.47697391E-16      0.12593644E-12      0.55645760E-24      0.11793339E-13     -0.79532648E-24
    0.116180837764         0.22601444E-07      0.10864082E-04     -0.10839117E-15      0.13098977E-12     -0.13068876E-23      0.12204650E-13     -0.79943014E-24
    0.119320860406         0.23975342E-07      0.10911930E-04     -0.13722816E-15      0.13589162E-12     -0.17089696E-23      0.12631352E-13     -0.80479634E-24
    0.122460883048         0.25400844E-07      0.10953605E-04      0.80674796E-16      0.14081552E-12      0.10371255E-23      0.13073516E-13     -0.80153974E-24
    0.125600905691         0.26879174E-07      0.10913024E-04     -0.62179184E-16      0.14474746E-12     -0.82472818E-24      0.13528027E-13     -0.80412941E-24
    0.128740928333         0.28411589E-07      0.10871201E-04     -0.22045940E-16      0.14869593E-12     -0.30154364E-24      0.13994935E-13     -0.80507626E-24
    0.131880950975         0.29999386E-07      0.10779614E-04     -0.13073949E-16      0.15197642E-12     -0.18432309E-24      0.14472145E-13     -0.80565504E-24
    0.135020973618         0.31643900E-07      0.10689843E-04     -0.26230917E-15      0.15527544E-12     -0.38101749E-23      0.14959713E-13     -0.81761908E-24
    0.138160996260         0.33346502E-07      0.10586504E-04     -0.27729240E-15      0.15836531E-12     -0.41480641E-23      0.15456984E-13     -0.83064409E-24
    0.141301018902         0.35108601E-07      0.10485695E-04     -0.64915371E-16      0.16147605E-12     -0.99967412E-24      0.15964022E-13     -0.83378309E-24
    0.144441041544         0.36931646E-07      0.10380190E-04     -0.13774426E-15      0.16449626E-12     -0.21828517E-23      0.16480544E-13     -0.84063729E-24
    0.147581064187         0.38817124E-07      0.10277404E-04     -0.49790772E-16      0.16754013E-12     -0.81167890E-24      0.17006624E-13     -0.84318599E-24
    0.150721086829         0.40766561E-07      0.10169647E-04     -0.99247195E-16      0.17048204E-12     -0.16637612E-23      0.17541941E-13     -0.84841023E-24
    0.153861109471         0.42781523E-07      0.10065070E-04     -0.16389255E-15      0.17345501E-12     -0.28244199E-23      0.18086594E-13     -0.85727898E-24
    0.157001132113         0.44863615E-07      0.99563182E-05     -0.13083105E-15      0.17633273E-12     -0.23171010E-23      0.18640283E-13     -0.86455473E-24
    0.160141154756         0.47014483E-07      0.98513068E-05     -0.41173137E-16      0.17925250E-12     -0.74917855E-24      0.19203140E-13     -0.86690716E-24
    0.163281177398         0.49235812E-07      0.97448301E-05     -0.42870566E-16      0.18212180E-12     -0.80121095E-24      0.19775006E-13     -0.86942298E-24
    0.166421200040         0.51529331E-07      0.96424764E-05     -0.50169470E-16      0.18504490E-12     -0.96278218E-24      0.20356052E-13     -0.87244614E-24
    0.169561222683         0.53896806E-07      0.95408901E-05     -0.60385099E-17      0.18796114E-12     -0.11896219E-24      0.20946254E-13     -0.87281968E-24
    0.172701245325         0.56340048E-07      0.94450618E-05     -0.60044208E-16      0.19097179E-12     -0.12140471E-23      0.21545909E-13     -0.87663182E-24
    0.175841267967         0.58860908E-07      0.93503348E-05     -0.48814217E-16      0.19398850E-12     -0.10127334E-23      0.22155038E-13     -0.87981183E-24
    0.178981290609         0.61461278E-07      0.92615856E-05     -0.96918503E-17      0.19711604E-12     -0.20627345E-24      0.22773987E-13     -0.88045953E-24
    0.182121313252         0.64143096E-07      0.91771574E-05     -0.20934539E-16      0.20032724E-12     -0.45697793E-24      0.23403019E-13     -0.88189445E-24
    0.185261335894         0.66908339E-07      0.90963532E-05     -0.41643081E-16      0.20361298E-12     -0.93213967E-24      0.24042368E-13     -0.88482139E-24
    0.188401358536         0.69759030E-07      0.90217055E-05     -0.22839093E-16      0.20703688E-12     -0.52412869E-24      0.24692469E-13     -0.88646717E-24
    0.191541381178         0.72697233E-07      0.89504590E-05     -0.67107353E-16      0.21054418E-12     -0.15785853E-23      0.25353582E-13     -0.89142396E-24
    0.194681403821         0.75725056E-07      0.88854409E-05     -0.40447979E-16      0.21420855E-12     -0.97511230E-24      0.26026202E-13     -0.89448583E-24
    0.197821426463         0.78844653E-07      0.88239524E-05     -0.12402809E-16      0.21797403E-12     -0.30638087E-24      0.26710645E-13     -0.89544788E-24
    0.200961449105         0.82058219E-07      0.87687330E-05     -0.28379893E-16      0.22191612E-12     -0.71822870E-24      0.27407467E-13     -0.89770313E-24
    0.204101471747         0.85367996E-07      0.87169722E-05     -0.25130506E-16      0.22597338E-12     -0.65146765E-24      0.28117028E-13     -0.89974875E-24
    0.207241494390         0.88776268E-07      0.86716613E-05      0.57158691E-16      0.23023172E-12      0.15175574E-23      0.28839961E-13     -0.89498359E-24
    0.210381517032         0.92285368E-07      0.86298524E-05      0.23807824E-16      0.23462339E-12      0.64727324E-24      0.29576684E-13     -0.89295114E-24
    0.213521539674         0.95897669E-07      0.85942042E-05      0.26950612E-16      0.23922948E-12      0.75020104E-24      0.30327870E-13     -0.89059549E-24
    0.216661562317         0.99615594E-07      0.85619109E-05     -0.39390661E-17      0.24398259E-12     -0.11224872E-24      0.31093981E-13     -0.89094795E-24
    0.219801584959         0.10344161E-06      0.85356209E-05     -0.38545321E-16      0.24896726E-12     -0.11242911E-23      0.31875744E-13     -0.89447825E-24
    0.222941607601         0.10737822E-06      0.85125308E-05     -0.29894172E-16      0.25411275E-12     -0.89238918E-24      0.32673663E-13     -0.89728037E-24
    0.226081630243         0.11142800E-06      0.84952884E-05     -0.44217606E-16      0.25950747E-12     -0.13507251E-23      0.33488523E-13     -0.90152168E-24
    0.229221652886         0.11559354E-06      0.84811931E-05     -0.31428745E-16      0.26508036E-12     -0.98230789E-24      0.34320881E-13     -0.90460615E-24
    0.232361675528         0.11987749E-06      0.84726256E-05     -0.35888264E-16      0.27091550E-12     -0.11475412E-23      0.35171562E-13     -0.90820946E-24
    0.235501698170         0.12428256E-06      0.84671770E-05     -0.19388426E-16      0.27694751E-12     -0.63416369E-24      0.36041183E-13     -0.91020074E-24
    0.238641720812         0.12881148E-06      0.84672146E-05     -0.11783459E-16      0.28326404E-12     -0.39420639E-24      0.36930639E-13     -0.91143856E-24
    0.241781743455         0.13346705E-06      0.84702909E-05     -0.19536516E-16      0.28979544E-12     -0.66840600E-24      0.37840603E-13     -0.91353737E-24
    0.244921766097         0.13825210E-06      0.84784474E-05     -0.49701876E-16      0.29662199E-12     -0.17388407E-23      0.38772003E-13     -0.91899737E-24
    0.248061788739         0.14316951E-06      0.84898613E-05     -0.68983559E-16      0.30369241E-12     -0.24676237E-23      0.39725604E-13     -0.92674577E-24
    0.251201811381         0.14822222E-06      0.85062419E-05     -0.52233323E-16      0.31107918E-12     -0.19102090E-23      0.40702399E-13     -0.93274386E-24
    0.254341834024         0.15341320E-06      0.85259098E-05     -0.18770524E-16      0.31873396E-12     -0.70172023E-24      0.41703231E-13     -0.93494728E-24
    0.257481856666         0.15874548E-06      0.85504309E-05     -0.36352166E-16      0.32672730E-12     -0.13890814E-23      0.42729162E-13     -0.93930903E-24
    0.260621879308         0.16422213E-06      0.85783695E-05     -0.23715210E-16      0.33501807E-12     -0.92616946E-24      0.43781127E-13     -0.94221722E-24
    0.263761901951         0.16984627E-06      0.86110685E-05      0.92916970E-17      0.34367161E-12      0.37083580E-24      0.44860263E-13     -0.94105279E-24
    0.266901924593         0.17562106E-06      0.86473722E-05      0.14995778E-16      0.35265635E-12      0.61155646E-24      0.45967612E-13     -0.93913249E-24
    0.270041947235         0.18154971E-06      0.86885070E-05      0.23767720E-16      0.36203633E-12      0.99036325E-24      0.47104415E-13     -0.93602273E-24
    0.273181969877         0.18763548E-06      0.87333698E-05     -0.13800898E-16      0.37178123E-12     -0.58750689E-24      0.48271816E-13     -0.93786751E-24
    0.276321992520         0.19388169E-06      0.87832578E-05     -0.15949532E-16      0.38196155E-12     -0.69360461E-24      0.49471184E-13     -0.94004544E-24
    0.279462015162         0.20029168E-06      0.88371103E-05     -0.11051737E-16      0.39254827E-12     -0.49092293E-24      0.50703794E-13     -0.94158695E-24
    0.282602037804         0.20686884E-06      0.88966295E-05     -0.38543119E-16      0.40363422E-12     -0.17486759E-23      0.51971215E-13     -0.94707784E-24
    0.285742060446         0.21361663E-06      0.89603522E-05     -0.57049687E-16      0.41517257E-12     -0.26433632E-23      0.53274866E-13     -0.95537806E-24
    0.288882083089         0.22053854E-06      0.90291108E-05     -0.53229011E-16      0.42721997E-12     -0.25185754E-23      0.54616347E-13     -0.96328644E-24
    0.292022105731         0.22763810E-06      0.91026152E-05     -0.22019632E-16      0.43978264E-12     -0.10638538E-23      0.55997274E-13     -0.96662696E-24
    0.295162128373         0.23491890E-06      0.91819494E-05     -0.36307715E-16      0.45293397E-12     -0.17910137E-23      0.57419497E-13     -0.97225079E-24
    0.298302151016         0.24238456E-06      0.92664830E-05     -0.26337356E-16      0.46666602E-12     -0.13263661E-23      0.58884839E-13     -0.97641561E-24
    0.301442173658         0.25003877E-06      0.93573779E-05     -0.48157100E-17      0.48106103E-12     -0.24757474E-24      0.60395381E-13     -0.97719300E-24
    0.304582196300         0.25788523E-06      0.94539881E-05     -0.18404274E-16      0.49611194E-12     -0.96579139E-24      0.61953184E-13     -0.98022561E-24
    0.307722218942         0.26592771E-06      0.95575541E-05     -0.87438455E-17      0.51191067E-12     -0.46832775E-24      0.63560595E-13     -0.98169617E-24
    0.310862241585         0.27417002E-06      0.96672042E-05      0.48837991E-17      0.52843986E-12      0.26696385E-24      0.65219908E-13     -0.98085789E-24
    0.314002264227         0.28261602E-06      0.97852715E-05     -0.96831848E-17      0.54585784E-12     -0.54016307E-24      0.66933914E-13     -0.98255402E-24
    0.317142286869         0.29126959E-06      0.99100387E-05     -0.60445439E-18      0.56410379E-12     -0.34407031E-25      0.68705213E-13     -0.98266206E-24
    0.320282309511         0.30013468E-06      0.10043987E-04     -0.29111304E-17      0.58335381E-12     -0.16907818E-24      0.70536957E-13     -0.98319296E-24
    0.323422332154         0.30921526E-06      0.10185309E-04     -0.14960727E-16      0.60354242E-12     -0.88651540E-24      0.72432094E-13     -0.98597664E-24
    0.326562354796         0.31851537E-06      0.10337325E-04     -0.78077794E-18      0.62490664E-12     -0.47199183E-25      0.74394315E-13     -0.98612485E-24
    0.329702377438         0.32803906E-06      0.10497534E-04      0.79560399E-17      0.64734149E-12      0.49061759E-24      0.76426982E-13     -0.98458430E-24
    0.332842400080         0.33779045E-06      0.10669927E-04     -0.29969338E-18      0.67113954E-12     -0.18850746E-25      0.78534375E-13     -0.98464349E-24
    0.335982422723         0.34777368E-06      0.10851838E-04     -0.35495848E-18      0.69618736E-12     -0.22771959E-25      0.80720419E-13     -0.98471500E-24
    0.339122445365         0.35799293E-06      0.11048295E-04     -0.71248013E-17      0.72286280E-12     -0.46615822E-24      0.82990225E-13     -0.98617874E-24
    0.342262468007         0.36845245E-06      0.11253689E-04     -0.13755547E-16      0.75086133E-12     -0.91778868E-24      0.85347947E-13     -0.98906062E-24
    0.345402490650         0.37915648E-06      0.11478383E-04     -0.12978928E-16      0.78093776E-12     -0.88302809E-24      0.87800109E-13     -0.99183335E-24
    0.348542513292         0.39010935E-06      0.11712774E-04     -0.59173760E-17      0.81251808E-12     -0.41048986E-24      0.90351434E-13     -0.99312230E-24
    0.351682535934         0.40131538E-06      0.11969000E-04     -0.22879114E-16      0.84651671E-12     -0.16181429E-23      0.93009516E-13     -0.99820330E-24
    0.354822558576         0.41277896E-06      0.12236974E-04     -0.11648434E-16      0.88231375E-12     -0.83987869E-24      0.95780001E-13     -0.10008405E-23
    0.357962581219         0.42450450E-06      0.12531253E-04     -0.49973920E-17      0.92104714E-12     -0.36730832E-24      0.98672110E-13     -0.10019939E-23
    0.361102603861         0.43649646E-06      0.12838347E-04     -0.15119611E-16      0.96183792E-12     -0.11327483E-23      0.10169230E-12     -0.10055508E-23
    0.364242626503         0.44875932E-06      0.13178005E-04     -0.66302643E-17      0.10062713E-11     -0.50628637E-24      0.10485202E-12     -0.10071405E-23
    0.367382649145         0.46129760E-06      0.13531624E-04     -0.46917367E-18      0.10530649E-11     -0.36512272E-25      0.10815866E-12     -0.10072552E-23
    0.370522671788         0.47411586E-06      0.13925891E-04     -0.11085850E-16      0.11044228E-11     -0.87918723E-24      0.11162658E-12     -0.10100158E-23
    0.373662694430         0.48721866E-06      0.14335447E-04     -0.44997652E-17      0.11585054E-11     -0.36364423E-24      0.11526431E-12     -0.10111577E-23
    0.376802717072         0.50061064E-06      0.14796380E-04     -0.59576051E-17      0.12183840E-11     -0.49056938E-24      0.11909006E-12     -0.10126981E-23
    0.379942739715         0.51429644E-06      0.15273803E-04     -0.10196066E-16      0.12814015E-11     -0.85540283E-24      0.12311369E-12     -0.10153841E-23
    0.383082762357         0.52828072E-06      0.15816913E-04     -0.31580687E-17      0.13518750E-11     -0.26992083E-24      0.12735861E-12     -0.10162316E-23
