 
 # Omega; pulse ft; proj flux t=    1000.25000000000     
    0.000000000000         0.64285036E-11      0.00000000E+00      0.00000000E+00      0.71055578E-10     -0.74145214E-21      0.22311612E-12     -0.23281765E-23
    0.003140022642         0.21245158E-10      0.15746660E+00     -0.23504075E-11      0.66032589E-10     -0.98562798E-21      0.43045995E-12     -0.54230707E-23
    0.006280045285         0.65709671E-10      0.99825903E-01     -0.14556519E-11      0.64736981E-10     -0.94398858E-21      0.63373553E-12     -0.83872162E-23
    0.009420067927         0.13986570E-09      0.71921982E-01     -0.80205609E-12      0.66185293E-10     -0.73808196E-21      0.84155885E-12     -0.10704810E-22
    0.012560090569         0.24378600E-09      0.55802324E-01     -0.72791243E-12      0.67129120E-10     -0.87566463E-21      0.10523458E-11     -0.13454417E-22
    0.015700113211         0.37757252E-09      0.45681785E-01     -0.68561493E-12      0.68090001E-10     -0.10219286E-20      0.12661500E-11     -0.16663296E-22
    0.018840135854         0.54135636E-09      0.38742575E-01     -0.40264286E-12      0.68997026E-10     -0.71707056E-21      0.14828022E-11     -0.18914914E-22
    0.021980158496         0.73529789E-09      0.33723575E-01     -0.47322387E-12      0.69921184E-10     -0.98116447E-21      0.17023563E-11     -0.21995792E-22
    0.025120181138         0.95958676E-09      0.29909905E-01     -0.52762599E-12      0.70814011E-10     -0.12491953E-20      0.19247139E-11     -0.25918294E-22
    0.028260203780         0.12144420E-08      0.26928978E-01     -0.29184330E-12      0.71723924E-10     -0.77730938E-21      0.21499286E-11     -0.28359063E-22
    0.031400226423         0.15001122E-08      0.24546320E-01     -0.31311157E-12      0.72680856E-10     -0.92711319E-21      0.23781482E-11     -0.31270219E-22
    0.034540249065         0.18168754E-08      0.22592392E-01     -0.30319469E-12      0.73655396E-10     -0.98847104E-21      0.26094278E-11     -0.34374041E-22
    0.037680271707         0.21650394E-08      0.20962040E-01     -0.18497851E-12      0.74649687E-10     -0.65874259E-21      0.28438295E-11     -0.36442507E-22
    0.040820294349         0.25449417E-08      0.19581082E-01     -0.25364628E-12      0.75662567E-10     -0.98010561E-21      0.30814116E-11     -0.39520061E-22
    0.043960316992         0.29569499E-08      0.18394856E-01     -0.23981073E-12      0.76687081E-10     -0.99975693E-21      0.33222108E-11     -0.42659320E-22
    0.047100339634         0.34014614E-08      0.17366500E-01     -0.14058925E-12      0.77731400E-10     -0.62926896E-21      0.35662892E-11     -0.44635239E-22
    0.050240362276         0.38789041E-08      0.16465865E-01     -0.18915681E-12      0.78792248E-10     -0.90515080E-21      0.38136986E-11     -0.47477433E-22
    0.053380384919         0.43897362E-08      0.15671426E-01     -0.17419245E-12      0.79874455E-10     -0.88782779E-21      0.40645062E-11     -0.50265233E-22
    0.056520407561         0.49344463E-08      0.14965524E-01     -0.10217002E-12      0.80978132E-10     -0.55283977E-21      0.43187794E-11     -0.52001162E-22
    0.059660430203         0.55135541E-08      0.14334350E-01     -0.13696510E-12      0.82104306E-10     -0.78450885E-21      0.45765888E-11     -0.54464538E-22
    0.062800452845         0.61276098E-08      0.13766754E-01     -0.14602530E-12      0.83253511E-10     -0.88307810E-21      0.48380067E-11     -0.57237423E-22
    0.065940475488         0.67771950E-08      0.13253778E-01     -0.16418886E-12      0.84426787E-10     -0.10458858E-20      0.51031087E-11     -0.60521528E-22
    0.069080498130         0.74629227E-08      0.12788592E-01     -0.17720478E-12      0.85628608E-10     -0.11865105E-20      0.53719845E-11     -0.64247198E-22
    0.072220520772         0.81854373E-08      0.12364458E-01     -0.17794471E-12      0.86855841E-10     -0.12499971E-20      0.56447138E-11     -0.68172217E-22
    0.075360543414         0.89454151E-08      0.11975061E-01     -0.12077634E-12      0.88100200E-10     -0.88854826E-21      0.59213504E-11     -0.70962279E-22
    0.078500566057         0.97435644E-08      0.11617569E-01     -0.15848469E-12      0.89372312E-10     -0.12192003E-20      0.62019815E-11     -0.74790595E-22
    0.081640588699         0.10580626E-07      0.11292068E-01     -0.14279622E-12      0.90702943E-10     -0.11470032E-20      0.64867908E-11     -0.78392211E-22
    0.084780611341         0.11457373E-07      0.10991346E-01     -0.93684743E-13      0.92062345E-10     -0.78469347E-21      0.67758686E-11     -0.80856167E-22
    0.087920633984         0.12374611E-07      0.10714736E-01     -0.12319736E-12      0.93468413E-10     -0.10746940E-20      0.70693616E-11     -0.84230730E-22
    0.091060656626         0.13333179E-07      0.10457833E-01     -0.11392326E-12      0.94904610E-10     -0.10338512E-20      0.73673642E-11     -0.87477046E-22
    0.094200679268         0.14333950E-07      0.10217859E-01     -0.68616104E-13      0.96363912E-10     -0.64711369E-21      0.76699491E-11     -0.89508998E-22
    0.097340701910         0.15377830E-07      0.99940346E-02     -0.10263807E-12      0.97855243E-10     -0.10049669E-20      0.79772167E-11     -0.92664617E-22
    0.100480724553         0.16465758E-07      0.97812608E-02     -0.94838870E-13      0.99342823E-10     -0.96322563E-21      0.82891554E-11     -0.95689167E-22
    0.103620747195         0.17598710E-07      0.95822026E-02     -0.58762273E-13      0.10086538E-09     -0.61855081E-21      0.86058750E-11     -0.97631430E-22
    0.106760769837         0.18777693E-07      0.93931680E-02     -0.73239732E-13      0.10239654E-09     -0.79839895E-21      0.89274025E-11     -0.10013842E-21
    0.109900792479         0.20003751E-07      0.92158747E-02     -0.62792548E-13      0.10396565E-09     -0.70837202E-21      0.92538570E-11     -0.10236273E-21
    0.113040815122         0.21277963E-07      0.90485387E-02     -0.71854964E-13      0.10556402E-09     -0.83828989E-21      0.95853304E-11     -0.10499497E-21
    0.116180837764         0.22601444E-07      0.88912425E-02     -0.78707878E-13      0.10720297E-09     -0.94899201E-21      0.99219501E-11     -0.10797483E-21
    0.119320860406         0.23975342E-07      0.87432726E-02     -0.80275328E-13      0.10888427E-09     -0.99970807E-21      0.10263849E-10     -0.11111394E-21
    0.122460883048         0.25400844E-07      0.86039309E-02     -0.44811114E-13      0.11060897E-09     -0.57607521E-21      0.10611164E-10     -0.11292283E-21
    0.125600905691         0.26879174E-07      0.84731987E-02     -0.58737943E-13      0.11238626E-09     -0.77908447E-21      0.10964059E-10     -0.11536917E-21
    0.128740928333         0.28411589E-07      0.83499013E-02     -0.57656817E-13      0.11420968E-09     -0.78862806E-21      0.11322680E-10     -0.11784548E-21
    0.131880950975         0.29999386E-07      0.82338436E-02     -0.57071706E-13      0.11608486E-09     -0.80462557E-21      0.11687189E-10     -0.12037202E-21
    0.135020973618         0.31643900E-07      0.81242915E-02     -0.76240738E-13      0.11800949E-09     -0.11074357E-20      0.12057742E-10     -0.12384939E-21
    0.138160996260         0.33346502E-07      0.80207910E-02     -0.80525482E-13      0.11998438E-09     -0.12045944E-20      0.12434495E-10     -0.12763185E-21
    0.141301018902         0.35108601E-07      0.79230602E-02     -0.38740149E-13      0.12201237E-09     -0.59658482E-21      0.12817617E-10     -0.12950514E-21
    0.144441041544         0.36931646E-07      0.78306206E-02     -0.54515557E-13      0.12409289E-09     -0.86391533E-21      0.13207272E-10     -0.13221785E-21
    0.147581064187         0.38817124E-07      0.77433454E-02     -0.58244752E-13      0.12623042E-09     -0.94949393E-21      0.13603638E-10     -0.13519928E-21
    0.150721086829         0.40766561E-07      0.76608051E-02     -0.54315443E-13      0.12842428E-09     -0.91053379E-21      0.14006893E-10     -0.13805838E-21
    0.153861109471         0.42781523E-07      0.75829242E-02     -0.62845440E-13      0.13067929E-09     -0.10830383E-20      0.14417229E-10     -0.14145915E-21
    0.157001132113         0.44863615E-07      0.75092905E-02     -0.60687042E-13      0.13299431E-09     -0.10748061E-20      0.14834834E-10     -0.14483406E-21
    0.160141154756         0.47014483E-07      0.74399307E-02     -0.33125462E-13      0.13537556E-09     -0.60274459E-21      0.15259916E-10     -0.14672669E-21
    0.163281177398         0.49235812E-07      0.73743835E-02     -0.49129021E-13      0.13782036E-09     -0.91817565E-21      0.15692676E-10     -0.14960979E-21
    0.166421200040         0.51529331E-07      0.73127653E-02     -0.48195156E-13      0.14033635E-09     -0.92489391E-21      0.16133335E-10     -0.15251397E-21
    0.169561222683         0.53896806E-07      0.72546332E-02     -0.41475787E-13      0.14292053E-09     -0.81709734E-21      0.16582109E-10     -0.15507968E-21
    0.172701245325         0.56340048E-07      0.72000970E-02     -0.36450501E-13      0.14558035E-09     -0.73700073E-21      0.17039234E-10     -0.15739388E-21
    0.175841267967         0.58860908E-07      0.71488182E-02     -0.41741059E-13      0.14831432E-09     -0.86598882E-21      0.17504944E-10     -0.16011310E-21
    0.178981290609         0.61461278E-07      0.71008883E-02     -0.40595798E-13      0.15112952E-09     -0.86400790E-21      0.17979495E-10     -0.16282611E-21
    0.182121313252         0.64143096E-07      0.70559245E-02     -0.39254588E-13      0.15402306E-09     -0.85688441E-21      0.18463130E-10     -0.16551674E-21
    0.185261335894         0.66908339E-07      0.70142025E-02     -0.36481634E-13      0.15700607E-09     -0.81660571E-21      0.18956133E-10     -0.16808090E-21
    0.188401358536         0.69759030E-07      0.69752278E-02     -0.38819824E-13      0.16007278E-09     -0.89086653E-21      0.19458765E-10     -0.17087824E-21
    0.191541381178         0.72697233E-07      0.69393579E-02     -0.33370556E-13      0.16323648E-09     -0.78498506E-21      0.19971331E-10     -0.17334311E-21
    0.194681403821         0.75725056E-07      0.69060933E-02     -0.40823324E-13      0.16649081E-09     -0.98416104E-21      0.20494116E-10     -0.17643340E-21
    0.197821426463         0.78844653E-07      0.68757976E-02     -0.35174086E-13      0.16984966E-09     -0.86888923E-21      0.21027448E-10     -0.17916173E-21
    0.200961449105         0.82058219E-07      0.68480030E-02     -0.31884383E-13      0.17330694E-09     -0.80691916E-21      0.21571636E-10     -0.18169548E-21
    0.204101471747         0.85367996E-07      0.68230906E-02     -0.32421445E-13      0.17687757E-09     -0.84047343E-21      0.22127035E-10     -0.18433458E-21
    0.207241494390         0.88776268E-07      0.68005972E-02     -0.21611521E-13      0.18055516E-09     -0.57378367E-21      0.22693983E-10     -0.18613628E-21
    0.210381517032         0.92285368E-07      0.67809236E-02     -0.19925195E-13      0.18435579E-09     -0.54171459E-21      0.23272864E-10     -0.18783727E-21
    0.213521539674         0.95897669E-07      0.67636180E-02     -0.20246813E-13      0.18827303E-09     -0.56359315E-21      0.23864046E-10     -0.18960697E-21
    0.216661562317         0.99615594E-07      0.67490929E-02     -0.30037275E-13      0.19232402E-09     -0.85595051E-21      0.24467947E-10     -0.19229467E-21
    0.219801584959         0.10344161E-06      0.67369092E-02     -0.31929057E-13      0.19650238E-09     -0.93130773E-21      0.25084969E-10     -0.19521900E-21
    0.222941607601         0.10737822E-06      0.67274928E-02     -0.25332415E-13      0.20082649E-09     -0.75621339E-21      0.25715569E-10     -0.19759353E-21
    0.226081630243         0.11142800E-06      0.67204217E-02     -0.32611089E-13      0.20529022E-09     -0.99617821E-21      0.26360185E-10     -0.20072155E-21
    0.229221652886         0.11559354E-06      0.67161229E-02     -0.27907214E-13      0.20991295E-09     -0.87224219E-21      0.27019316E-10     -0.20346041E-21
    0.232361675528         0.11987749E-06      0.67141890E-02     -0.26905939E-13      0.21468880E-09     -0.86032787E-21      0.27693444E-10     -0.20616186E-21
    0.235501698170         0.12428256E-06      0.67150609E-02     -0.19827837E-13      0.21963866E-09     -0.64853612E-21      0.28383115E-10     -0.20819828E-21
    0.238641720812         0.12881148E-06      0.67183536E-02     -0.21448207E-13      0.22475726E-09     -0.71753300E-21      0.29088857E-10     -0.21045135E-21
    0.241781743455         0.13346705E-06      0.67244952E-02     -0.20401008E-13      0.23006625E-09     -0.69798300E-21      0.29811271E-10     -0.21264303E-21
    0.244921766097         0.13825210E-06      0.67331287E-02     -0.32483100E-13      0.23556130E-09     -0.11364347E-20      0.30550938E-10     -0.21621146E-21
    0.248061788739         0.14316951E-06      0.67446859E-02     -0.31549656E-13      0.24126542E-09     -0.11285686E-20      0.31308517E-10     -0.21975519E-21
    0.251201811381         0.14822222E-06      0.67588497E-02     -0.36427797E-13      0.24717583E-09     -0.13321899E-20      0.32084655E-10     -0.22393830E-21
    0.254341834024         0.15341320E-06      0.67760178E-02     -0.24218745E-13      0.25331572E-09     -0.90539739E-21      0.32880072E-10     -0.22678127E-21
    0.257481856666         0.15874548E-06      0.67959355E-02     -0.25289131E-13      0.25968488E-09     -0.96634306E-21      0.33695489E-10     -0.22981560E-21
    0.260621879308         0.16422213E-06      0.68189767E-02     -0.25737902E-13      0.26630707E-09     -0.10051633E-20      0.34531699E-10     -0.23297184E-21
    0.263761901951         0.16984627E-06      0.68449462E-02     -0.84410961E-14      0.27318488E-09     -0.33688794E-21      0.35389505E-10     -0.23402968E-21
    0.266901924593         0.17562106E-06      0.68741588E-02     -0.10327338E-13      0.28034132E-09     -0.42116855E-21      0.36269784E-10     -0.23535215E-21
    0.270041947235         0.18154971E-06      0.69065175E-02     -0.96786246E-14      0.28778365E-09     -0.40329296E-21      0.37173431E-10     -0.23661850E-21
    0.273181969877         0.18763548E-06      0.69422891E-02     -0.17919317E-13      0.29553458E-09     -0.76282879E-21      0.38101416E-10     -0.23901380E-21
    0.276321992520         0.19388169E-06      0.69814732E-02     -0.18421352E-13      0.30360652E-09     -0.80109777E-21      0.39054747E-10     -0.24152927E-21
    0.279462015162         0.20029168E-06      0.70242497E-02     -0.18822793E-13      0.31202021E-09     -0.83611664E-21      0.40034498E-10     -0.24415469E-21
    0.282602037804         0.20686884E-06      0.70707618E-02     -0.28309162E-13      0.32079580E-09     -0.12843680E-20      0.41041804E-10     -0.24818764E-21
    0.285742060446         0.21361663E-06      0.71210734E-02     -0.28037582E-13      0.32995068E-09     -0.12991046E-20      0.42077857E-10     -0.25226686E-21
    0.288882083089         0.22053854E-06      0.71755234E-02     -0.29014664E-13      0.33951592E-09     -0.13728532E-20      0.43143944E-10     -0.25657765E-21
    0.292022105731         0.22763810E-06      0.72340172E-02     -0.15468165E-13      0.34950342E-09     -0.74732702E-21      0.44241393E-10     -0.25892427E-21
    0.295162128373         0.23491890E-06      0.72971193E-02     -0.17413431E-13      0.35995768E-09     -0.85898258E-21      0.45371668E-10     -0.26162150E-21
    0.298302151016         0.24238456E-06      0.73645387E-02     -0.17184718E-13      0.37088289E-09     -0.86543342E-21      0.46536249E-10     -0.26433898E-21
    0.301442173658         0.25003877E-06      0.74371345E-02     -0.14622608E-13      0.38234168E-09     -0.75174552E-21      0.47736810E-10     -0.26669947E-21
    0.304582196300         0.25788523E-06      0.75143630E-02     -0.16823618E-13      0.39432726E-09     -0.88284412E-21      0.48975007E-10     -0.26947162E-21
    0.307722218942         0.26592771E-06      0.75974638E-02     -0.18579030E-13      0.40692658E-09     -0.99510856E-21      0.50252766E-10     -0.27259629E-21
    0.310862241585         0.27417002E-06      0.76855503E-02     -0.10003526E-13      0.42011640E-09     -0.54682425E-21      0.51571941E-10     -0.27431333E-21
    0.314002264227         0.28261602E-06      0.77803430E-02     -0.11685146E-13      0.43401567E-09     -0.65183971E-21      0.52934760E-10     -0.27636012E-21
    0.317142286869         0.29126959E-06      0.78805240E-02     -0.11128438E-13      0.44857882E-09     -0.63345810E-21      0.54343307E-10     -0.27834919E-21
    0.320282309511         0.30013468E-06      0.79884212E-02     -0.13930589E-13      0.46396675E-09     -0.80908727E-21      0.55800173E-10     -0.28088974E-21
    0.323422332154         0.30921526E-06      0.81021671E-02     -0.15769125E-13      0.48010341E-09     -0.93441796E-21      0.57307709E-10     -0.28382384E-21
    0.326562354796         0.31851537E-06      0.82248897E-02     -0.16871788E-13      0.49720677E-09     -0.10199246E-20      0.58868949E-10     -0.28702642E-21
    0.329702377438         0.32803906E-06      0.83539697E-02     -0.11255109E-13      0.51515634E-09     -0.69405818E-21      0.60486552E-10     -0.28920578E-21
    0.332842400080         0.33779045E-06      0.84935578E-02     -0.98350037E-14      0.53424571E-09     -0.61862280E-21      0.62164096E-10     -0.29114827E-21
    0.335982422723         0.34777368E-06      0.86400918E-02     -0.12121731E-13      0.55429528E-09     -0.77765586E-21      0.63904595E-10     -0.29359013E-21
    0.339122445365         0.35799293E-06      0.87990393E-02     -0.13806352E-13      0.57569950E-09     -0.90331567E-21      0.65712305E-10     -0.29642656E-21
    0.342262468007         0.36845245E-06      0.89655670E-02     -0.15983091E-13      0.59819476E-09     -0.10664134E-20      0.67590650E-10     -0.29977512E-21
    0.345402490650         0.37915648E-06      0.91469183E-02     -0.15436114E-13      0.62231532E-09     -0.10502040E-20      0.69544734E-10     -0.30307279E-21
    0.348542513292         0.39010935E-06      0.93365575E-02     -0.14142300E-13      0.64767934E-09     -0.98105493E-21      0.71578462E-10     -0.30615332E-21
    0.351682535934         0.40131538E-06      0.95440371E-02     -0.14620470E-13      0.67500936E-09     -0.10340440E-20      0.73698007E-10     -0.30940024E-21
    0.354822558576         0.41277896E-06      0.97606161E-02     -0.15344441E-13      0.70376268E-09     -0.11063692E-20      0.75907837E-10     -0.31287427E-21
    0.357962581219         0.42450450E-06      0.99988855E-02     -0.14058327E-13      0.73491810E-09     -0.10332870E-20      0.78215497E-10     -0.31611881E-21
    0.361102603861         0.43649646E-06      0.10247143E-01     -0.13537891E-13      0.76770711E-09     -0.10142472E-20      0.80626115E-10     -0.31930357E-21
    0.364242626503         0.44875932E-06      0.10522055E-01     -0.14509780E-13      0.80346312E-09     -0.11079654E-20      0.83149007E-10     -0.32278261E-21
    0.367382649145         0.46129760E-06      0.10807919E-01     -0.80891355E-14      0.84109941E-09     -0.62951683E-21      0.85790078E-10     -0.32475931E-21
    0.370522671788         0.47411586E-06      0.11126907E-01     -0.96823655E-14      0.88244331E-09     -0.76788086E-21      0.88560970E-10     -0.32717047E-21
    0.373662694430         0.48721866E-06      0.11457894E-01     -0.91532081E-14      0.92595881E-09     -0.73970778E-21      0.91468502E-10     -0.32949317E-21
    0.376802717072         0.50061064E-06      0.11830586E-01     -0.11262685E-13      0.97417051E-09     -0.92740760E-21      0.94527419E-10     -0.33240525E-21
    0.379942739715         0.51429644E-06      0.12216350E-01     -0.10623585E-13      0.10248953E-08     -0.89126971E-21      0.97745614E-10     -0.33520386E-21
    0.383082762357         0.52828072E-06      0.12655331E-01     -0.11543017E-13      0.10816539E-08     -0.98658423E-21      0.10114203E-09     -0.33830175E-21
