
 # Omega; pulse ft; projected flux at t=    1000.2500000000000     
    0.000000000000         0.18717486E-09      0.00000000E+00      0.00000000E+00      0.58667018E-08      0.10574438E-20
    0.003140022642         0.20186436E-09      0.23625775E+00     -0.32997787E-13      0.59147376E-08     -0.82610308E-21
    0.006280045285         0.24594737E-09      0.39105546E+00     -0.77090822E-13      0.59640368E-08     -0.11757220E-20
    0.009420067927         0.31946741E-09      0.45538075E+00      0.77611674E-13      0.60140875E-08      0.10249959E-20
    0.012560090569         0.42249703E-09      0.46297588E+00     -0.42336044E-14      0.60647345E-08     -0.55457936E-22
    0.015700113211         0.55513782E-09      0.44417617E+00     -0.71405962E-13      0.61161176E-08     -0.98322984E-21
    0.018840135854         0.71752051E-09      0.41589593E+00      0.91907388E-13      0.61681866E-08      0.13630860E-20
    0.021980158496         0.90980495E-09      0.38594033E+00     -0.59616095E-13      0.62209997E-08     -0.96095610E-21
    0.025120181138         0.11321802E-08      0.35749215E+00     -0.11202813E-12      0.62745393E-08     -0.19662666E-20
    0.028260203780         0.13848647E-08      0.33164148E+00      0.69723323E-13      0.63288301E-08      0.13305545E-20
    0.031400226423         0.16681061E-08      0.30858464E+00     -0.22958717E-13      0.63839243E-08     -0.47496437E-21
    0.034540249065         0.19821816E-08      0.28815802E+00     -0.63076389E-13      0.64397830E-08     -0.14096372E-20
    0.037680271707         0.23273981E-08      0.27008398E+00      0.49187595E-13      0.64964786E-08      0.11831363E-20
    0.040820294349         0.27040919E-08      0.25405980E+00     -0.17834656E-13      0.65539605E-08     -0.46007921E-21
    0.043960316992         0.31126296E-08      0.23980850E+00      0.31282885E-14      0.66123181E-08      0.86257321E-22
    0.047100339634         0.35534072E-08      0.22708016E+00      0.13787482E-13      0.66714875E-08      0.40506848E-21
    0.050240362276         0.40268513E-08      0.21566583E+00     -0.11236032E-13      0.67315753E-08     -0.35071016E-21
    0.053380384919         0.45334185E-08      0.20538238E+00     -0.21927040E-13      0.67925031E-08     -0.72518143E-21
    0.056520407561         0.50735959E-08      0.19608111E+00      0.46569671E-13      0.68543913E-08      0.16279322E-20
    0.059660430203         0.56479014E-08      0.18763078E+00      0.67144397E-14      0.69171524E-08      0.24753296E-21
    0.062800452845         0.62568834E-08      0.17992622E+00      0.97786614E-15      0.69809138E-08      0.37939992E-22
    0.065940475488         0.69011217E-08      0.17287291E+00      0.21794346E-13      0.70455857E-08      0.88824750E-21
    0.069080498130         0.75812269E-08      0.16639575E+00      0.13654958E-13      0.71112967E-08      0.58357535E-21
    0.072220520772         0.82978416E-08      0.16042592E+00      0.17698864E-13      0.71779692E-08      0.79190387E-21
    0.075360543414         0.90516395E-08      0.15490872E+00     -0.91274898E-14      0.72457215E-08     -0.42693044E-21
    0.078500566057         0.98433265E-08      0.14979323E+00     -0.47540976E-14      0.73144865E-08     -0.23214522E-21
    0.081640588699         0.10673641E-07      0.14503821E+00     -0.37132841E-13      0.73843356E-08     -0.18905457E-20
    0.084780611341         0.11543353E-07      0.14060697E+00     -0.13299821E-13      0.74552947E-08     -0.70518610E-21
    0.087920633984         0.12453265E-07      0.13646653E+00     -0.25865329E-13      0.75273327E-08     -0.14267010E-20
    0.091060656626         0.13404215E-07      0.13259048E+00     -0.20485625E-13      0.76005580E-08     -0.11743089E-20
    0.094200679268         0.14397070E-07      0.12895387E+00     -0.85405232E-14      0.76749754E-08     -0.50830819E-21
    0.097340701910         0.15432734E-07      0.12553309E+00     -0.98565442E-14      0.77504901E-08     -0.60854909E-21
    0.100480724553         0.16512144E-07      0.12231282E+00     -0.22408332E-13      0.78273582E-08     -0.14340119E-20
    0.103620747195         0.17636269E-07      0.11927170E+00      0.18613767E-13      0.79053291E-08      0.12337206E-20
    0.106760769837         0.18806114E-07      0.11639886E+00      0.10062893E-13      0.79847008E-08      0.69029191E-21
    0.109900792479         0.20022721E-07      0.11367748E+00     -0.11433318E-13      0.80652761E-08     -0.81117975E-21
    0.113040815122         0.21287162E-07      0.11109842E+00      0.82641021E-14      0.81472849E-08      0.60603917E-21
    0.116180837764         0.22600547E-07      0.10864827E+00      0.19840303E-14      0.82305677E-08      0.15029872E-21
    0.119320860406         0.23964023E-07      0.10631990E+00     -0.97597386E-14      0.83153484E-08     -0.76331550E-21
    0.122460883048         0.25378770E-07      0.10410185E+00      0.17377952E-13      0.84014487E-08      0.14024724E-20
    0.125600905691         0.26846007E-07      0.10198945E+00      0.15886389E-13      0.84891603E-08      0.13223142E-20
    0.128740928333         0.28366986E-07      0.99971379E-01      0.15857254E-13      0.85781728E-08      0.13606520E-20
    0.131880950975         0.29943001E-07      0.98046108E-01     -0.71804139E-15      0.86689431E-08     -0.63487069E-22
    0.135020973618         0.31575378E-07      0.96204207E-01     -0.58730887E-14      0.87612066E-08     -0.53485545E-21
    0.138160996260         0.33265483E-07      0.94439818E-01     -0.18650866E-13      0.88549490E-08     -0.17487588E-20
    0.141301018902         0.35014721E-07      0.92751527E-01      0.14824295E-13      0.89505348E-08      0.14305465E-20
    0.144441041544         0.36824533E-07      0.91131757E-01      0.50349647E-14      0.90477153E-08      0.49987982E-21
    0.147581064187         0.38696400E-07      0.89577139E-01      0.52124817E-14      0.91465995E-08      0.53223940E-21
    0.150721086829         0.40631842E-07      0.88085232E-01     -0.12064076E-13      0.92473680E-08     -0.12665114E-20
    0.153861109471         0.42632417E-07      0.86650434E-01     -0.13599680E-13      0.93498443E-08     -0.14674467E-20
    0.157001132113         0.44699723E-07      0.85271425E-01     -0.14444185E-13      0.94542724E-08     -0.16014657E-20
    0.160141154756         0.46835399E-07      0.83943892E-01      0.92769674E-14      0.95605507E-08      0.10565738E-20
    0.163281177398         0.49041122E-07      0.82666176E-01      0.10522517E-14      0.96688466E-08      0.12307404E-21
    0.166421200040         0.51318613E-07      0.81434862E-01      0.37648129E-14      0.97791062E-08      0.45209759E-21
    0.169561222683         0.53669630E-07      0.80248459E-01      0.12251125E-13      0.98914806E-08      0.15100821E-20
    0.172701245325         0.56095974E-07      0.79104025E-01     -0.40398817E-14      0.10005928E-07     -0.51100767E-21
    0.175841267967         0.58599489E-07      0.78000331E-01     -0.14482080E-14      0.10122598E-07     -0.18794315E-21
    0.178981290609         0.61182058E-07      0.76934772E-01      0.48412482E-14      0.10241455E-07      0.64446054E-21
    0.182121313252         0.63845608E-07      0.75906385E-01      0.28724599E-14      0.10362657E-07      0.39214508E-21
    0.185261335894         0.66592107E-07      0.74912800E-01     -0.60351667E-14      0.10486161E-07     -0.84479197E-21
    0.188401358536         0.69423567E-07      0.73953301E-01      0.82408331E-14      0.10612141E-07      0.11825419E-20
    0.191541381178         0.72342043E-07      0.73025734E-01      0.31530064E-14      0.10740553E-07      0.46374106E-21
    0.194681403821         0.75349631E-07      0.72129554E-01     -0.28578637E-14      0.10871575E-07     -0.43074548E-21
    0.197821426463         0.78448474E-07      0.71262817E-01      0.81064337E-14      0.11005169E-07      0.12518825E-20
    0.200961449105         0.81640757E-07      0.70425123E-01     -0.48394562E-14      0.11141520E-07     -0.76562019E-21
    0.204101471747         0.84928709E-07      0.69614698E-01     -0.48455493E-14      0.11280592E-07     -0.78518853E-21
    0.207241494390         0.88314602E-07      0.68831273E-01      0.98624786E-14      0.11422578E-07      0.16366824E-20
    0.210381517032         0.91800755E-07      0.68073214E-01      0.76198050E-14      0.11567446E-07      0.12948071E-20
    0.213521539674         0.95389531E-07      0.67340373E-01      0.21925803E-15      0.11715399E-07      0.38144952E-22
    0.216661562317         0.99083337E-07      0.66631231E-01      0.50264112E-14      0.11866404E-07      0.89515720E-21
    0.219801584959         0.10288463E-06      0.65945749E-01     -0.25901113E-15      0.12020679E-07     -0.47212896E-22
    0.222941607601         0.10679590E-06      0.65282502E-01     -0.83947229E-15      0.12178191E-07     -0.15660021E-21
    0.226081630243         0.11081969E-06      0.64641558E-01     -0.11037003E-14      0.12339172E-07     -0.21068100E-21
    0.229221652886         0.11495860E-06      0.64021562E-01      0.48950078E-14      0.12503587E-07      0.95600850E-21
    0.232361675528         0.11921526E-06      0.63422686E-01     -0.20780283E-15      0.12671689E-07     -0.41518469E-22
    0.235501698170         0.12359235E-06      0.62843627E-01      0.16076594E-14      0.12843439E-07      0.32855958E-21
    0.238641720812         0.12809259E-06      0.62284660E-01      0.10647084E-14      0.13019110E-07      0.22255168E-21
    0.241781743455         0.13271877E-06      0.61744520E-01     -0.14170745E-14      0.13198659E-07     -0.30291729E-21
    0.244921766097         0.13747370E-06      0.61223580E-01      0.22331237E-14      0.13382384E-07      0.48812107E-21
    0.248061788739         0.14236024E-06      0.60720599E-01      0.17987225E-14      0.13570237E-07      0.40199028E-21
    0.251201811381         0.14738131E-06      0.60236055E-01     -0.10363103E-13      0.13762544E-07     -0.23677292E-20
    0.254341834024         0.15253987E-06      0.59768713E-01     -0.42463897E-14      0.13959248E-07     -0.99176318E-21
    0.257481856666         0.15783893E-06      0.59319154E-01     -0.74024996E-14      0.14160709E-07     -0.17671297E-20
    0.260621879308         0.16328153E-06      0.58886147E-01     -0.32587096E-14      0.14366860E-07     -0.79504990E-21
    0.263761901951         0.16887077E-06      0.58470374E-01     -0.11186388E-14      0.14578097E-07     -0.27890406E-21
    0.266901924593         0.17460981E-06      0.58070591E-01     -0.11033360E-14      0.14794344E-07     -0.28109119E-21
    0.270041947235         0.18050182E-06      0.57687598E-01     -0.16104563E-14      0.15016038E-07     -0.41920054E-21
    0.273181969877         0.18655005E-06      0.57320114E-01      0.39974036E-14      0.15243087E-07      0.10630260E-20
    0.276321992520         0.19275778E-06      0.56969066E-01     -0.10069327E-16      0.15475978E-07     -0.27353914E-23
    0.279462015162         0.19912834E-06      0.56633133E-01     -0.49222636E-14      0.15714603E-07     -0.13658333E-20
    0.282602037804         0.20566511E-06      0.56313372E-01      0.36582829E-14      0.15959505E-07      0.10367765E-20
    0.285742060446         0.21237151E-06      0.56008406E-01     -0.77041695E-15      0.16210553E-07     -0.22298233E-21
    0.288882083089         0.21925100E-06      0.55719431E-01     -0.30982984E-14      0.16468354E-07     -0.91572855E-21
    0.292022105731         0.22630710E-06      0.55445007E-01      0.60039620E-14      0.16732754E-07      0.18119363E-20
    0.295162128373         0.23354337E-06      0.55186482E-01      0.44941986E-14      0.17004433E-07      0.13847829E-20
    0.298302151016         0.24096340E-06      0.54942334E-01     -0.27930623E-15      0.17283208E-07     -0.87861351E-22
    0.301442173658         0.24857086E-06      0.54714076E-01      0.33022903E-14      0.17569840E-07      0.10604348E-20
    0.304582196300         0.25636942E-06      0.54500098E-01     -0.51983260E-15      0.17864116E-07     -0.17039144E-21
    0.307722218942         0.26436283E-06      0.54302087E-01     -0.39896045E-14      0.18166891E-07     -0.13347316E-20
    0.310862241585         0.27255487E-06      0.54118330E-01      0.25233283E-14      0.18477912E-07      0.86155355E-21
    0.314002264227         0.28094936E-06      0.53950704E-01      0.34308853E-14      0.18798142E-07      0.11954296E-20
    0.317142286869         0.28955016E-06      0.53797388E-01      0.80631188E-15      0.19127288E-07      0.28667859E-21
    0.320282309511         0.29836118E-06      0.53660457E-01      0.20537390E-14      0.19466429E-07      0.74503584E-21
    0.323422332154         0.30738639E-06      0.53537974E-01     -0.19947429E-14      0.19815229E-07     -0.73828508E-21
    0.326562354796         0.31662976E-06      0.53432222E-01     -0.56077537E-14      0.20174900E-07     -0.21173716E-20
    0.329702377438         0.32609534E-06      0.53341149E-01      0.66356299E-14      0.20545060E-07      0.25558020E-20
    0.332842400080         0.33578719E-06      0.53267250E-01      0.24999318E-14      0.20927064E-07      0.98214629E-21
    0.335982422723         0.34570944E-06      0.53208367E-01      0.18607011E-14      0.21320489E-07      0.74557928E-21
    0.339122445365         0.35586624E-06      0.53167199E-01     -0.52221619E-15      0.21726840E-07     -0.21340428E-21
    0.342262468007         0.36626178E-06      0.53141502E-01     -0.13273504E-14      0.22145663E-07     -0.55314685E-21
    0.345402490650         0.37690029E-06      0.53134167E-01     -0.23546506E-14      0.22578622E-07     -0.10005759E-20
    0.348542513292         0.38778604E-06      0.53142896E-01     -0.13540000E-14      0.23025241E-07     -0.58664805E-21
    0.351682535934         0.39892335E-06      0.53170736E-01     -0.22800649E-14      0.23487342E-07     -0.10071831E-20
    0.354822558576         0.41031655E-06      0.53215418E-01     -0.55401779E-14      0.23964470E-07     -0.24949053E-20
    0.357962581219         0.42197002E-06      0.53280047E-01      0.34724431E-15      0.24458573E-07      0.15940489E-21
    0.361102603861         0.43388818E-06      0.53362512E-01      0.13631827E-15      0.24969279E-07      0.63785770E-22
    0.364242626503         0.44607547E-06      0.53465858E-01     -0.25264315E-14      0.25498619E-07     -0.12048907E-20
    0.367382649145         0.45853638E-06      0.53588301E-01      0.25529103E-14      0.26046399E-07      0.12408328E-20
    0.370522671788         0.47127541E-06      0.53732635E-01     -0.10911962E-14      0.26614645E-07     -0.54048717E-21
    0.373662694430         0.48429711E-06      0.53897685E-01      0.11012954E-15      0.27203500E-07      0.55585113E-22
    0.376802717072         0.49760605E-06      0.54085664E-01      0.36118011E-15      0.27814825E-07      0.18574537E-21
    0.379942739715         0.51120685E-06      0.54296457E-01     -0.15990531E-14      0.28449363E-07     -0.83784553E-21
    0.383082762357         0.52510413E-06      0.54531181E-01     -0.94880618E-16      0.29108530E-07     -0.50646901E-22
    0.386222784999         0.53930256E-06      0.54791474E-01     -0.31177070E-14      0.29794090E-07     -0.16953229E-20
    0.389362807641         0.55380682E-06      0.55076542E-01     -0.49546021E-14      0.30506546E-07     -0.27443226E-20
    0.392502830284         0.56862162E-06      0.55390854E-01     -0.41513791E-14      0.31249364E-07     -0.23420465E-20
    0.395642852926         0.58375171E-06      0.55730422E-01     -0.49798291E-15      0.32021356E-07     -0.28612896E-21
    0.398782875568         0.59920184E-06      0.56104236E-01      0.11754428E-14      0.32828786E-07      0.68779765E-21
    0.401922898210         0.61497679E-06      0.56503071E-01     -0.13153847E-14      0.33667477E-07     -0.78377482E-21
    0.405062920853         0.63108138E-06      0.56943119E-01      0.14768726E-14      0.34548299E-07      0.89604219E-21
    0.408202943495         0.64752043E-06      0.57406619E-01      0.17375543E-15      0.35461888E-07      0.10733423E-21
    0.411342966137         0.66429877E-06      0.57921317E-01      0.98130842E-15      0.36426743E-07      0.61714533E-21
    0.414482988779         0.68142128E-06      0.58455475E-01      0.18239778E-14      0.37424561E-07      0.11677532E-20
    0.417623011422         0.69889282E-06      0.59055596E-01     -0.14873362E-14      0.38486619E-07     -0.96929916E-21
    0.420763034064         0.71671828E-06      0.59666796E-01     -0.13417043E-14      0.39579123E-07     -0.89000054E-21
    0.423903056706         0.73490258E-06      0.60366616E-01      0.16132931E-14      0.40755160E-07      0.10891785E-20
    0.427043079349         0.75345064E-06      0.61061038E-01      0.27774995E-15      0.41953659E-07      0.19083571E-21
    0.430183101991         0.77236737E-06      0.61880434E-01     -0.28457363E-15      0.43265972E-07     -0.19897008E-21
    0.433323124633         0.79165771E-06      0.62662531E-01      0.10347691E-14      0.44581641E-07      0.73619281E-21
    0.436463147275         0.81132662E-06      0.63631236E-01     -0.27272957E-14      0.46061815E-07     -0.19742535E-20
    0.439603169918         0.83137904E-06      0.64499728E-01     -0.26887291E-14      0.47502742E-07     -0.19801945E-20
    0.442743192560         0.85181993E-06      0.65667144E-01     -0.13328813E-14      0.49200167E-07     -0.99864225E-21
    0.445883215202         0.87265424E-06      0.66603811E-01     -0.25983520E-14      0.50762465E-07     -0.19803484E-20
    0.449023237844         0.89388696E-06      0.68065743E-01     -0.21391606E-14      0.52767305E-07     -0.16583635E-20
    0.452163260487         0.91552302E-06      0.68999049E-01     -0.41552178E-15      0.54405104E-07     -0.32763503E-21
    0.455303283129         0.93756741E-06      0.70990174E-01     -0.28919457E-14      0.56927551E-07     -0.23190729E-20
    0.458443305771         0.96002506E-06      0.71642848E-01     -0.34902598E-14      0.58424139E-07     -0.28462774E-20
    0.461583328413         0.98290095E-06      0.75004273E-01     -0.11576549E-14      0.62196821E-07     -0.95997800E-21
    0.464723351056         0.10062000E-05      0.73866626E-01     -0.91341444E-15      0.62281725E-07     -0.77015872E-21
    0.467863373698         0.10299272E-05      0.84955669E-01     -0.24912875E-14      0.72828671E-07     -0.21356686E-20
    0.471003396340         0.10540874E-05      0.69897184E-01      0.94215674E-15      0.60916482E-07      0.82110423E-21
    0.474143418983         0.10786856E-05      0.58274181E-01     -0.62557624E-15      0.51627831E-07     -0.55422734E-21
    0.477283441625         0.11037267E-05      0.85476896E-01      0.19623928E-14      0.76976198E-07      0.17672324E-20
    0.480423464267         0.11292155E-05      0.85026739E-01     -0.12893031E-14      0.77827071E-07     -0.11801310E-20
    0.483563486909         0.11551570E-05      0.88110513E-01     -0.15776419E-14      0.81966762E-07     -0.14676365E-20
    0.486703509552         0.11815559E-05      0.90945670E-01     -0.17656613E-14      0.85979394E-07     -0.16692437E-20
    0.489843532194         0.12084172E-05      0.94784309E-01      0.25072126E-14      0.91058088E-07      0.24086475E-20
    0.492983554836         0.12357457E-05      0.97789440E-01      0.13397858E-14      0.95457745E-07      0.13078399E-20
    0.496123577478         0.12635461E-05      0.10286732E+00      0.17399413E-14      0.10202373E-06      0.17256724E-20
    0.499263600121         0.12918231E-05      0.10615248E+00      0.26090331E-14      0.10696110E-06      0.26289074E-20
    0.502403622763         0.13205817E-05      0.11287364E+00     -0.39306723E-14      0.11553872E-06     -0.40234803E-20
    0.505543645405         0.13498263E-05      0.11654028E+00     -0.28727205E-14      0.12117634E-06     -0.29869995E-20
    0.508683668048         0.13795618E-05      0.12563890E+00     -0.81335636E-14      0.13269056E-06     -0.85900714E-20
