 
 # Omega; pulse ft; proj flux t=    1000.25000000000     
    0.000000000000         0.13861783E-10      0.00000000E+00      0.00000000E+00     -0.78959161E-13     -0.77548182E-25     -0.19729925E-16     -0.19377357E-28
    0.003140022642         0.28547099E-10     -0.66799183E-05     -0.13945494E-16     -0.47299101E-13     -0.98745121E-25     -0.31548791E-16     -0.44051300E-28
    0.006280045285         0.72617464E-10      0.21151204E-05     -0.90728910E-17      0.19048726E-13     -0.81710250E-25     -0.26788989E-16     -0.64468654E-28
    0.009420067927         0.14611614E-09      0.21408767E-05     -0.46822305E-17      0.25863564E-13     -0.56565222E-25     -0.20326330E-16     -0.78602892E-28
    0.012560090569         0.24911526E-09      0.21342748E-05     -0.10583642E-16      0.32969354E-13     -0.16349152E-24     -0.12088110E-16     -0.11945535E-27
    0.015700113211         0.38171583E-09      0.18104524E-05     -0.22260468E-17      0.34282858E-13     -0.42152585E-25     -0.35216789E-17     -0.12998823E-27
    0.018840135854         0.54404780E-09      0.16389350E-05     -0.55320217E-17      0.36861016E-13     -0.12441978E-24      0.56889697E-17     -0.16107763E-27
    0.021980158496         0.73627010E-09      0.14340351E-05     -0.45838951E-17      0.37412667E-13     -0.11958964E-24      0.15037462E-16     -0.19096010E-27
    0.025120181138         0.95857070E-09      0.13051743E-05     -0.51694631E-17      0.38790239E-13     -0.15363825E-24      0.24730175E-16     -0.22935046E-27
    0.028260203780         0.12111667E-08      0.11712634E-05     -0.23612225E-17      0.39096308E-13     -0.78816671E-25      0.34499368E-16     -0.24904478E-27
    0.031400226423         0.14943044E-08      0.10883619E-05     -0.23713571E-17      0.40339652E-13     -0.87893304E-25      0.44579241E-16     -0.27100713E-27
    0.034540249065         0.18082594E-08      0.10039627E-05     -0.18011846E-17      0.40935998E-13     -0.73442260E-25      0.54808126E-16     -0.28935852E-27
    0.037680271707         0.21533368E-08      0.92477522E-06     -0.15433929E-17      0.41161070E-13     -0.68695290E-25      0.65093251E-16     -0.30652376E-27
    0.040820294349         0.25298710E-08      0.85253155E-06     -0.31008382E-17      0.41151459E-13     -0.14967659E-24      0.75375974E-16     -0.34392421E-27
    0.043960316992         0.29382263E-08      0.80060025E-06     -0.15592154E-17      0.41676639E-13     -0.81167673E-25      0.85789927E-16     -0.36420598E-27
    0.047100339634         0.33787968E-08      0.74887353E-06     -0.13359933E-17      0.41840711E-13     -0.74643991E-25      0.96244877E-16     -0.38285766E-27
    0.050240362276         0.38520063E-08      0.70808254E-06     -0.18899557E-17      0.42283473E-13     -0.11285957E-24      0.10681046E-15     -0.41105845E-27
    0.053380384919         0.43583091E-08      0.66762787E-06     -0.10131881E-17      0.42454460E-13     -0.64428637E-25      0.11741877E-15     -0.42715756E-27
    0.056520407561         0.48981894E-08      0.63474080E-06     -0.80525254E-18      0.42842937E-13     -0.54351925E-25      0.12812416E-15     -0.44073875E-27
    0.059660430203         0.54721621E-08      0.60206378E-06     -0.84137930E-18      0.43009818E-13     -0.60105876E-25      0.13887124E-15     -0.45575771E-27
    0.062800452845         0.60807727E-08      0.57500602E-06     -0.12921107E-17      0.43363160E-13     -0.97442466E-25      0.14970661E-15     -0.48010615E-27
    0.065940475488         0.67245976E-08      0.54798406E-06     -0.18121800E-17      0.43524590E-13     -0.14393556E-24      0.16058232E-15     -0.51607206E-27
    0.069080498130         0.74042442E-08      0.52526627E-06     -0.12354432E-17      0.43848761E-13     -0.10313370E-24      0.17153903E-15     -0.54184260E-27
    0.072220520772         0.81203513E-08      0.50227334E-06     -0.26486727E-17      0.43985230E-13     -0.23195035E-24      0.18252984E-15     -0.59980121E-27
    0.075360543414         0.88735891E-08      0.48362034E-06     -0.64110772E-18      0.44351916E-13     -0.58794789E-25      0.19361228E-15     -0.61449256E-27
    0.078500566057         0.96646596E-08      0.46468359E-06     -0.13725776E-17      0.44557791E-13     -0.13161434E-24      0.20474616E-15     -0.64737970E-27
    0.081640588699         0.10494297E-07      0.44794786E-06     -0.11602184E-17      0.44846363E-13     -0.11615543E-24      0.21595215E-15     -0.67640404E-27
    0.084780611341         0.11363267E-07      0.43109296E-06     -0.64718815E-18      0.45001827E-13     -0.67560020E-25      0.22719698E-15     -0.69328561E-27
    0.087920633984         0.12272369E-07      0.41669838E-06     -0.38217409E-18      0.45301434E-13     -0.41548121E-25      0.23851668E-15     -0.70366745E-27
    0.091060656626         0.13222435E-07      0.40198421E-06     -0.33762534E-18      0.45461334E-13     -0.38182840E-25      0.24987634E-15     -0.71320839E-27
    0.094200679268         0.14214328E-07      0.38935602E-06     -0.11275801E-17      0.45758495E-13     -0.13251719E-24      0.26131024E-15     -0.74632113E-27
    0.097340701910         0.15248947E-07      0.37634810E-06     -0.11699753E-17      0.45918496E-13     -0.14274951E-24      0.27278413E-15     -0.78199067E-27
    0.100480724553         0.16327224E-07      0.36515879E-06     -0.10513184E-17      0.46212972E-13     -0.13305046E-24      0.28433160E-15     -0.81523666E-27
    0.103620747195         0.17450124E-07      0.35354212E-06     -0.67283378E-18      0.46370899E-13     -0.88249475E-25      0.29591853E-15     -0.83728801E-27
    0.106760769837         0.18618647E-07      0.34360086E-06     -0.58889906E-18      0.46670581E-13     -0.79988918E-25      0.30758034E-15     -0.85727524E-27
    0.109900792479         0.19833827E-07      0.33319271E-06     -0.51785691E-18      0.46833189E-13     -0.72789379E-25      0.31928279E-15     -0.87546349E-27
    0.113040815122         0.21096733E-07      0.32426584E-06     -0.45770006E-18      0.47133932E-13     -0.66529373E-25      0.33106038E-15     -0.89208753E-27
    0.116180837764         0.22408470E-07      0.31484933E-06     -0.52108792E-18      0.47296935E-13     -0.78278273E-25      0.34287871E-15     -0.91164731E-27
    0.119320860406         0.23770176E-07      0.30679493E-06     -0.48022054E-18      0.47601073E-13     -0.74509096E-25      0.35477303E-15     -0.93026528E-27
    0.122460883048         0.25183029E-07      0.29822519E-06     -0.93040895E-18      0.47764743E-13     -0.14901740E-24      0.36670825E-15     -0.96750101E-27
    0.125600905691         0.26648238E-07      0.29092471E-06     -0.88167970E-18      0.48073848E-13     -0.14569314E-24      0.37872070E-15     -0.10039061E-26
    0.128740928333         0.28167053E-07      0.28308274E-06     -0.63289916E-18      0.48238157E-13     -0.10784794E-24      0.39077422E-15     -0.10308546E-26
    0.131880950975         0.29740759E-07      0.27643926E-06     -0.77698966E-18      0.48553690E-13     -0.13647018E-24      0.40290657E-15     -0.10649551E-26
    0.135020973618         0.31370676E-07      0.26922907E-06     -0.65667163E-18      0.48718862E-13     -0.11882927E-24      0.41508020E-15     -0.10946476E-26
    0.138160996260         0.33058166E-07      0.26316137E-06     -0.79441657E-18      0.49041977E-13     -0.14804513E-24      0.42733457E-15     -0.11316404E-26
    0.141301018902         0.34804624E-07      0.25650020E-06     -0.76825667E-18      0.49207567E-13     -0.14738407E-24      0.43963031E-15     -0.11684680E-26
    0.144441041544         0.36611487E-07      0.25093692E-06     -0.88383044E-18      0.49538614E-13     -0.17448104E-24      0.45200878E-15     -0.12120664E-26
    0.147581064187         0.38480227E-07      0.24476427E-06     -0.79497738E-18      0.49705855E-13     -0.16144117E-24      0.46442903E-15     -0.12524065E-26
    0.150721086829         0.40412359E-07      0.23963421E-06     -0.34967445E-18      0.50042793E-13     -0.73022487E-25      0.47693348E-15     -0.12706530E-26
    0.153861109471         0.42409432E-07      0.23392718E-06     -0.23171518E-18      0.50218858E-13     -0.49743991E-25      0.48948192E-15     -0.12830828E-26
    0.157001132113         0.44473040E-07      0.22912093E-06     -0.35124591E-18      0.50548856E-13     -0.77492173E-25      0.50211282E-15     -0.13024462E-26
    0.160141154756         0.46604811E-07      0.22397391E-06     -0.37466420E-18      0.50766564E-13     -0.84922454E-25      0.51479811E-15     -0.13236662E-26
    0.163281177398         0.48806419E-07      0.21920400E-06     -0.48013983E-18      0.51031910E-13     -0.11177922E-24      0.52754972E-15     -0.13515970E-26
    0.166421200040         0.51079573E-07      0.21510970E-06     -0.26974241E-18      0.51422259E-13     -0.64482279E-25      0.54039886E-15     -0.13677095E-26
    0.169561222683         0.53426027E-07      0.20957893E-06     -0.41412535E-18      0.51431182E-13     -0.10162737E-24      0.55325023E-15     -0.13931037E-26
    0.172701245325         0.55847574E-07      0.20731563E-06     -0.51509670E-18      0.52214776E-13     -0.12973291E-24      0.56629740E-15     -0.14255207E-26
    0.175841267967         0.58346049E-07      0.20137269E-06     -0.29378587E-18      0.52040775E-13     -0.75923129E-25      0.57930109E-15     -0.14444920E-26
    0.178981290609         0.60923329E-07      0.19846797E-06     -0.41193658E-18      0.52616136E-13     -0.10920911E-24      0.59244855E-15     -0.14717806E-26
    0.182121313252         0.63581331E-07      0.19463796E-06     -0.25683535E-18      0.52923544E-13     -0.69835489E-25      0.60567282E-15     -0.14892308E-26
    0.185261335894         0.66322018E-07      0.19027626E-06     -0.24423988E-18      0.53053017E-13     -0.68099207E-25      0.61892945E-15     -0.15062471E-26
    0.188401358536         0.69147392E-07      0.18731326E-06     -0.34833852E-18      0.53544250E-13     -0.99573968E-25      0.63230882E-15     -0.15311281E-26
    0.191541381178         0.72059501E-07      0.18307531E-06     -0.29382671E-18      0.53642739E-13     -0.86093913E-25      0.64571280E-15     -0.15526409E-26
    0.194681403821         0.75060434E-07      0.18019851E-06     -0.44305530E-18      0.54111594E-13     -0.13304455E-24      0.65923394E-15     -0.15858854E-26
    0.197821426463         0.78152324E-07      0.17635816E-06     -0.40311206E-18      0.54264606E-13     -0.12403576E-24      0.67279331E-15     -0.16168788E-26
    0.200961449105         0.81337348E-07      0.17352988E-06     -0.39144545E-18      0.54702108E-13     -0.12339599E-24      0.68646201E-15     -0.16477124E-26
    0.204101471747         0.84617728E-07      0.17002622E-06     -0.18830066E-18      0.54901431E-13     -0.60802243E-25      0.70018050E-15     -0.16629054E-26
    0.207241494390         0.87995729E-07      0.16728331E-06     -0.43517987E-18      0.55321000E-13     -0.14391505E-24      0.71400384E-15     -0.16988661E-26
    0.210381517032         0.91473660E-07      0.16405328E-06      0.29660367E-18      0.55555356E-13      0.10044250E-24      0.72788574E-15     -0.16737681E-26
    0.213521539674         0.95053876E-07      0.16141817E-06      0.15661118E-18      0.55967137E-13      0.54300452E-25      0.74187053E-15     -0.16601997E-26
    0.216661562317         0.98738776E-07      0.15841564E-06     -0.66426119E-19      0.56228494E-13     -0.23577475E-25      0.75592063E-15     -0.16660912E-26
    0.219801584959         0.10253081E-06      0.15589539E-06     -0.99691933E-19      0.56638190E-13     -0.36218971E-25      0.77007310E-15     -0.16751414E-26
    0.222941607601         0.10643245E-06      0.15309153E-06     -0.14007698E-18      0.56922851E-13     -0.52083752E-25      0.78429670E-15     -0.16881558E-26
    0.226081630243         0.11044626E-06      0.15068779E-06     -0.17324081E-18      0.57334540E-13     -0.65915640E-25      0.79862318E-15     -0.17046265E-26
    0.229221652886         0.11457479E-06      0.14806040E-06     -0.62186654E-19      0.57640122E-13     -0.24209352E-25      0.81302600E-15     -0.17106758E-26
    0.232361675528         0.11882069E-06      0.14577103E-06     -0.50257082E-18      0.58056567E-13     -0.20016004E-24      0.82753289E-15     -0.17606908E-26
    0.235501698170         0.12318663E-06      0.14330364E-06     -0.21089102E-18      0.58382042E-13     -0.85917208E-25      0.84212111E-15     -0.17821594E-26
    0.238641720812         0.12767532E-06      0.14112488E-06     -0.59320275E-19      0.58805330E-13     -0.24718168E-25      0.85681509E-15     -0.17883358E-26
    0.241781743455         0.13228953E-06      0.13880439E-06     -0.20956892E-18      0.59150403E-13     -0.89306154E-25      0.87159531E-15     -0.18106512E-26
    0.244921766097         0.13703207E-06      0.13673177E-06     -0.11469403E-18      0.59582237E-13     -0.49979072E-25      0.88648342E-15     -0.18231397E-26
    0.248061788739         0.14190580E-06      0.13454771E-06     -0.21961519E-18      0.59947231E-13     -0.97848729E-25      0.90146274E-15     -0.18475897E-26
    0.251201811381         0.14691362E-06      0.13257606E-06     -0.25428655E-18      0.60388876E-13     -0.11582845E-24      0.91655241E-15     -0.18765323E-26
    0.254341834024         0.15205849E-06      0.13051933E-06     -0.16566874E-18      0.60774340E-13     -0.77141130E-25      0.93173840E-15     -0.18958080E-26
    0.257481856666         0.15734340E-06      0.12864495E-06     -0.13534910E-19      0.61227591E-13     -0.64418382E-26      0.94703765E-15     -0.18974176E-26
    0.260621879308         0.16277140E-06      0.12670680E-06     -0.15168763E-18      0.61633905E-13     -0.73785316E-25      0.96243843E-15     -0.19158547E-26
    0.263761901951         0.16834557E-06      0.12492416E-06     -0.10472480E-18      0.62099575E-13     -0.52058509E-25      0.97795556E-15     -0.19288629E-26
    0.266901924593         0.17406906E-06      0.12309764E-06     -0.10099622E-18      0.62527655E-13     -0.51301202E-25      0.99357967E-15     -0.19416817E-26
    0.270041947235         0.17994505E-06      0.12140381E-06     -0.11159120E-18      0.63007685E-13     -0.57915012E-25      0.10093237E-14     -0.19561533E-26
    0.273181969877         0.18597676E-06      0.11968248E-06     -0.13173476E-18      0.63458495E-13     -0.69848900E-25      0.10251804E-14     -0.19736068E-26
    0.276321992520         0.19216747E-06      0.11807490E-06     -0.11436018E-18      0.63955009E-13     -0.61942936E-25      0.10411612E-14     -0.19890848E-26
    0.279462015162         0.19852052E-06      0.11645303E-06     -0.16552652E-18      0.64429676E-13     -0.91580440E-25      0.10572605E-14     -0.20119684E-26
    0.282602037804         0.20503926E-06      0.11492734E-06     -0.82006765E-19      0.64943789E-13     -0.46340845E-25      0.10734884E-14     -0.20235478E-26
    0.285742060446         0.21172710E-06      0.11340010E-06     -0.73696551E-19      0.65443764E-13     -0.42530647E-25      0.10898411E-14     -0.20341752E-26
    0.288882083089         0.21858752E-06      0.11195259E-06     -0.57044768E-19      0.65976831E-13     -0.33618096E-25      0.11063271E-14     -0.20425755E-26
    0.292022105731         0.22562402E-06      0.11051380E-06     -0.22142071E-18      0.66502601E-13     -0.13324176E-24      0.11229444E-14     -0.20758693E-26
    0.295162128373         0.23284014E-06      0.10913831E-06     -0.23720860E-18      0.67054355E-13     -0.14574047E-24      0.11396997E-14     -0.21122862E-26
    0.298302151016         0.24023948E-06      0.10777559E-06     -0.17620435E-18      0.67602219E-13     -0.11052415E-24      0.11565918E-14     -0.21399034E-26
    0.301442173658         0.24782569E-06      0.10652131E-06     -0.12237558E-18      0.68207381E-13     -0.78359131E-25      0.11736351E-14     -0.21594834E-26
    0.304582196300         0.25560245E-06      0.10528819E-06     -0.64390502E-19      0.68816521E-13     -0.42085729E-25      0.11908306E-14     -0.21699996E-26
    0.307722218942         0.26357350E-06      0.10405464E-06     -0.18036596E-18      0.69415569E-13     -0.12032338E-24      0.12081758E-14     -0.22000654E-26
    0.310862241585         0.27174260E-06      0.10285991E-06     -0.12118716E-18      0.70030693E-13     -0.82508540E-25      0.12256748E-14     -0.22206823E-26
    0.314002264227         0.28011357E-06      0.10171200E-06     -0.10528053E-18      0.70668536E-13     -0.73147916E-25      0.12433331E-14     -0.22389601E-26
    0.317142286869         0.28869027E-06      0.10059891E-06     -0.11462819E-18      0.71322049E-13     -0.81268450E-25      0.12611547E-14     -0.22592671E-26
    0.320282309511         0.29747662E-06      0.99526296E-07     -0.63692086E-19      0.71996314E-13     -0.46074210E-25      0.12791448E-14     -0.22707798E-26
    0.323422332154         0.30647655E-06      0.98487544E-07     -0.60698398E-19      0.72687727E-13     -0.44797833E-25      0.12973076E-14     -0.22819737E-26
    0.326562354796         0.31569405E-06      0.97489649E-07     -0.15239590E-18      0.73402579E-13     -0.11474297E-24      0.13156491E-14     -0.23106451E-26
    0.329702377438         0.32513315E-06      0.96521250E-07     -0.11156874E-18      0.74133524E-13     -0.85690805E-25      0.13341732E-14     -0.23320571E-26
    0.332842400080         0.33479793E-06      0.95600011E-07     -0.12156389E-18      0.74895305E-13     -0.95236022E-25      0.13528877E-14     -0.23558542E-26
    0.335982422723         0.34469248E-06      0.94699277E-07     -0.12962954E-18      0.75668384E-13     -0.10357901E-24      0.13717953E-14     -0.23817360E-26
    0.339122445365         0.35482098E-06      0.93849250E-07     -0.18828458E-19      0.76477926E-13     -0.15343345E-25      0.13909052E-14     -0.23855700E-26
    0.342262468007         0.36518760E-06      0.93031014E-07     -0.51275933E-19      0.77310242E-13     -0.42611111E-25      0.14102231E-14     -0.23962174E-26
    0.345402490650         0.37579657E-06      0.92244975E-07     -0.39255775E-19      0.78166848E-13     -0.33264687E-25      0.14297551E-14     -0.24045294E-26
    0.348542513292         0.38665215E-06      0.91496669E-07     -0.12250437E-18      0.79053754E-13     -0.10584462E-24      0.14495086E-14     -0.24309774E-26
    0.351682535934         0.39775867E-06      0.90796372E-07     -0.10469615E-18      0.79981563E-13     -0.92225728E-25      0.14694940E-14     -0.24540223E-26
    0.354822558576         0.40912044E-06      0.90110158E-07     -0.72540879E-19      0.80921933E-13     -0.65144134E-25      0.14897144E-14     -0.24703002E-26
    0.357962581219         0.42074186E-06      0.89496668E-07     -0.66880372E-19      0.81928970E-13     -0.61225073E-25      0.15101864E-14     -0.24855988E-26
    0.361102603861         0.43262732E-06      0.88876327E-07     -0.99105082E-19      0.82931966E-13     -0.92476586E-25      0.15309091E-14     -0.25087064E-26
    0.364242626503         0.44478129E-06      0.88353156E-07     -0.90961212E-19      0.84029222E-13     -0.86509642E-25      0.15519059E-14     -0.25303230E-26
    0.367382649145         0.45720823E-06      0.87800364E-07     -0.11573815E-18      0.85102879E-13     -0.11218233E-24      0.15731709E-14     -0.25583545E-26
    0.370522671788         0.46991265E-06      0.87374773E-07     -0.82383461E-19      0.86305992E-13     -0.81375736E-25      0.15947367E-14     -0.25786883E-26
    0.373662694430         0.48289911E-06      0.86891374E-07     -0.35249427E-19      0.87459275E-13     -0.35479808E-25      0.16165906E-14     -0.25875538E-26
    0.376802717072         0.49617218E-06      0.86571022E-07     -0.63411422E-19      0.88785790E-13     -0.65033693E-25      0.16387759E-14     -0.26038041E-26
    0.379942739715         0.50973645E-06      0.86158288E-07     -0.74242153E-19      0.90027905E-13     -0.77576581E-25      0.16612716E-14     -0.26231886E-26
    0.383082762357         0.52359657E-06      0.85959558E-07     -0.12998200E-18      0.91506280E-13     -0.13836936E-24      0.16841368E-14     -0.26577636E-26
