 
 # eight columns.
 # Omega (column 1); |pulse ft|^2 (2); cross section (Mb) (3); flux (5); flux in
 tegral domega (7)
 
  0.0000      0.642850E-11      0.000000E+00      0.000000E+00     -0.340086E-12     -0.269619E-21     -0.106788E-14     -0.846610E-24
  0.0031      0.212452E-10     -0.182409E-01     -0.143827E-11     -0.764920E-11     -0.603130E-21     -0.250865E-13     -0.274045E-23
  0.0063      0.657097E-10     -0.954289E-02     -0.109031E-11     -0.618855E-11     -0.707067E-21     -0.445187E-13     -0.496066E-23
  0.0094      0.139866E-09     -0.441388E-02     -0.421513E-12     -0.406182E-11     -0.387892E-21     -0.572729E-13     -0.617865E-23
  0.0126      0.243786E-09     -0.302309E-02     -0.495349E-12     -0.363672E-11     -0.595895E-21     -0.686923E-13     -0.804977E-23
  0.0157      0.377573E-09     -0.215484E-02     -0.418690E-12     -0.321185E-11     -0.624069E-21     -0.787776E-13     -0.100094E-22
  0.0188      0.541356E-09     -0.172433E-02     -0.285835E-12     -0.307087E-11     -0.509046E-21     -0.884202E-13     -0.116078E-22
  0.0220      0.735298E-09     -0.141301E-02     -0.218592E-12     -0.292969E-11     -0.453221E-21     -0.976195E-13     -0.130309E-22
  0.0251      0.959587E-09     -0.117013E-02     -0.305375E-12     -0.277037E-11     -0.723000E-21     -0.106319E-12     -0.153011E-22
  0.0283      0.121444E-08     -0.980661E-03     -0.129062E-12     -0.261194E-11     -0.343750E-21     -0.114520E-12     -0.163805E-22
  0.0314      0.150011E-08     -0.861849E-03     -0.239188E-12     -0.255191E-11     -0.708228E-21     -0.122533E-12     -0.186044E-22
  0.0345      0.181688E-08     -0.764398E-03     -0.974422E-13     -0.249208E-11     -0.317680E-21     -0.130358E-12     -0.196019E-22
  0.0377      0.216504E-08     -0.687374E-03     -0.872370E-13     -0.244787E-11     -0.310667E-21     -0.138045E-12     -0.205774E-22
  0.0408      0.254494E-08     -0.622169E-03     -0.200089E-12     -0.240410E-11     -0.773157E-21     -0.145594E-12     -0.230051E-22
  0.0440      0.295695E-08     -0.570353E-03     -0.170557E-12     -0.237777E-11     -0.711041E-21     -0.153060E-12     -0.252378E-22
  0.0471      0.340146E-08     -0.525385E-03     -0.444551E-13     -0.235159E-11     -0.198978E-21     -0.160444E-12     -0.258626E-22
  0.0502      0.387890E-08     -0.484824E-03     -0.942264E-13     -0.231997E-11     -0.450891E-21     -0.167729E-12     -0.272784E-22
  0.0534      0.438974E-08     -0.449074E-03     -0.905916E-13     -0.228885E-11     -0.461729E-21     -0.174916E-12     -0.287283E-22
  0.0565      0.493445E-08     -0.417929E-03     -0.465593E-13     -0.226140E-11     -0.251931E-21     -0.182017E-12     -0.295193E-22
  0.0597      0.551355E-08     -0.390341E-03     -0.988653E-13     -0.223580E-11     -0.566281E-21     -0.189037E-12     -0.312975E-22
  0.0628      0.612761E-08     -0.372261E-03     -0.736021E-13     -0.225123E-11     -0.445104E-21     -0.196106E-12     -0.326951E-22
  0.0659      0.677720E-08     -0.355160E-03     -0.968148E-13     -0.226238E-11     -0.616712E-21     -0.203210E-12     -0.346316E-22
  0.0691      0.746292E-08     -0.332096E-03     -0.109476E-12     -0.222362E-11     -0.733019E-21     -0.210192E-12     -0.369333E-22
  0.0722      0.818544E-08     -0.311438E-03     -0.129377E-12     -0.218774E-11     -0.908825E-21     -0.217062E-12     -0.397870E-22
  0.0754      0.894542E-08     -0.294914E-03     -0.776085E-13     -0.216967E-11     -0.570964E-21     -0.223874E-12     -0.415799E-22
  0.0785      0.974356E-08     -0.279635E-03     -0.749087E-13     -0.215119E-11     -0.576262E-21     -0.230629E-12     -0.433893E-22
  0.0816      0.105806E-07     -0.265620E-03     -0.845135E-13     -0.213358E-11     -0.678850E-21     -0.237329E-12     -0.455209E-22
  0.0848      0.114574E-07     -0.252570E-03     -0.573256E-13     -0.211550E-11     -0.480153E-21     -0.243971E-12     -0.470286E-22
  0.0879      0.123746E-07     -0.240522E-03     -0.376699E-13     -0.209816E-11     -0.328608E-21     -0.250560E-12     -0.480605E-22
  0.0911      0.133332E-07     -0.229295E-03     -0.500380E-13     -0.208084E-11     -0.454094E-21     -0.257094E-12     -0.494863E-22
  0.0942      0.143340E-07     -0.219013E-03     -0.250022E-13     -0.206550E-11     -0.235794E-21     -0.263579E-12     -0.502267E-22
  0.0973      0.153778E-07     -0.209304E-03     -0.445656E-13     -0.204937E-11     -0.436358E-21     -0.270014E-12     -0.515969E-22
  0.1005      0.164658E-07     -0.200170E-03     -0.424172E-13     -0.203301E-11     -0.430808E-21     -0.276398E-12     -0.529496E-22
  0.1036      0.175987E-07     -0.191494E-03     -0.205126E-13     -0.201573E-11     -0.215922E-21     -0.282727E-12     -0.536276E-22
  0.1068      0.187777E-07     -0.183314E-03     -0.326162E-13     -0.199834E-11     -0.355555E-21     -0.289002E-12     -0.547441E-22
  0.1099      0.200038E-07     -0.175495E-03     -0.252917E-13     -0.197979E-11     -0.285320E-21     -0.295219E-12     -0.556400E-22
  0.1130      0.212780E-07     -0.168114E-03     -0.204787E-13     -0.196128E-11     -0.238913E-21     -0.301377E-12     -0.563902E-22
  0.1162      0.226014E-07     -0.161009E-03     -0.408395E-13     -0.194130E-11     -0.492408E-21     -0.307473E-12     -0.579364E-22
  0.1193      0.239753E-07     -0.154311E-03     -0.251782E-13     -0.192171E-11     -0.313557E-21     -0.313507E-12     -0.589209E-22
  0.1225      0.254008E-07     -0.147814E-03     -0.105631E-13     -0.190024E-11     -0.135795E-21     -0.319474E-12     -0.593473E-22
  0.1256      0.268792E-07     -0.141658E-03     -0.256952E-13     -0.187892E-11     -0.340814E-21     -0.325374E-12     -0.604175E-22
  0.1287      0.284116E-07     -0.135639E-03     -0.276376E-13     -0.185527E-11     -0.378027E-21     -0.331200E-12     -0.616045E-22
  0.1319      0.299994E-07     -0.129942E-03     -0.510658E-13     -0.183199E-11     -0.719952E-21     -0.336952E-12     -0.638652E-22
  0.1350      0.316439E-07     -0.124322E-03     -0.492665E-13     -0.180584E-11     -0.715622E-21     -0.342622E-12     -0.661123E-22
  0.1382      0.333465E-07     -0.118972E-03     -0.476442E-13     -0.177973E-11     -0.712718E-21     -0.348211E-12     -0.683502E-22
  0.1413      0.351086E-07     -0.113653E-03     -0.290556E-13     -0.175022E-11     -0.447447E-21     -0.353706E-12     -0.697552E-22
  0.1444      0.369316E-07     -0.108694E-03     -0.177676E-13     -0.172248E-11     -0.281566E-21     -0.359115E-12     -0.706393E-22
  0.1476      0.388171E-07     -0.103704E-03     -0.325924E-13     -0.169056E-11     -0.531315E-21     -0.364424E-12     -0.723077E-22
  0.1507      0.407666E-07     -0.989382E-04     -0.381934E-13     -0.165858E-11     -0.640267E-21     -0.369632E-12     -0.743181E-22
  0.1539      0.427815E-07     -0.941097E-04     -0.314976E-13     -0.162183E-11     -0.542809E-21     -0.374724E-12     -0.760226E-22
  0.1570      0.448636E-07     -0.895336E-04     -0.361715E-13     -0.158570E-11     -0.640621E-21     -0.379703E-12     -0.780341E-22
  0.1601      0.470145E-07     -0.848596E-04     -0.166019E-13     -0.154409E-11     -0.302086E-21     -0.384552E-12     -0.789827E-22
  0.1633      0.492358E-07     -0.804040E-04     -0.994385E-14     -0.150268E-11     -0.185841E-21     -0.389270E-12     -0.795662E-22
  0.1664      0.515293E-07     -0.758065E-04     -0.281859E-13     -0.145477E-11     -0.540904E-21     -0.393838E-12     -0.812647E-22
  0.1696      0.538968E-07     -0.715134E-04     -0.148734E-13     -0.140886E-11     -0.293014E-21     -0.398262E-12     -0.821847E-22
  0.1727      0.563400E-07     -0.670358E-04     -0.236891E-13     -0.135541E-11     -0.478975E-21     -0.402518E-12     -0.836887E-22
  0.1758      0.588609E-07     -0.628240E-04     -0.232462E-13     -0.130339E-11     -0.482282E-21     -0.406611E-12     -0.852031E-22
  0.1790      0.614613E-07     -0.583916E-04     -0.266325E-13     -0.124276E-11     -0.566824E-21     -0.410513E-12     -0.869830E-22
  0.1821      0.641431E-07     -0.541630E-04     -0.116839E-13     -0.118232E-11     -0.255047E-21     -0.414225E-12     -0.877838E-22
  0.1853      0.669083E-07     -0.496738E-04     -0.223807E-13     -0.111190E-11     -0.500971E-21     -0.417717E-12     -0.893569E-22
  0.1884      0.697590E-07     -0.452434E-04     -0.179612E-13     -0.103828E-11     -0.412187E-21     -0.420977E-12     -0.906511E-22
  0.1915      0.726972E-07     -0.404725E-04     -0.271872E-13     -0.952045E-12     -0.639533E-21     -0.423967E-12     -0.926593E-22
  0.1947      0.757251E-07     -0.363648E-04     -0.316121E-13     -0.876677E-12     -0.762098E-21     -0.426719E-12     -0.950523E-22
  0.1978      0.788447E-07     -0.315897E-04     -0.146682E-13     -0.780347E-12     -0.362342E-21     -0.429170E-12     -0.961901E-22
  0.2010      0.820582E-07     -0.282398E-04     -0.946328E-14     -0.714684E-12     -0.239494E-21     -0.431414E-12     -0.969421E-22
  0.2041      0.853680E-07     -0.245254E-04     -0.187841E-13     -0.635780E-12     -0.486946E-21     -0.433410E-12     -0.984711E-22
  0.2072      0.887763E-07     -0.217432E-04     -0.182720E-14     -0.577280E-12     -0.485121E-22     -0.435223E-12     -0.986234E-22
  0.2104      0.922854E-07     -0.185472E-04     -0.132708E-16     -0.504249E-12     -0.360800E-24     -0.436806E-12     -0.986246E-22
  0.2135      0.958977E-07     -0.159222E-04     -0.845003E-14     -0.443214E-12     -0.235216E-21     -0.438198E-12     -0.993631E-22
  0.2167      0.996156E-07     -0.126431E-04     -0.117170E-13     -0.360282E-12     -0.333891E-21     -0.439329E-12     -0.100412E-21
  0.2198      0.103442E-06     -0.958749E-05     -0.157002E-13     -0.279648E-12     -0.457944E-21     -0.440207E-12     -0.101850E-21
  0.2229      0.107378E-06     -0.581760E-05     -0.224383E-13     -0.173665E-12     -0.669818E-21     -0.440753E-12     -0.103953E-21
  0.2261      0.111428E-06     -0.235418E-05     -0.177438E-13     -0.719136E-13     -0.542022E-21     -0.440978E-12     -0.105655E-21
  0.2292      0.115594E-06      0.188320E-05     -0.168033E-13      0.588596E-13     -0.525187E-21     -0.440794E-12     -0.107304E-21
  0.2324      0.119877E-06      0.552965E-05     -0.198992E-13      0.176813E-12     -0.636283E-21     -0.440238E-12     -0.109302E-21
  0.2355      0.124283E-06      0.100424E-04     -0.158272E-13      0.328469E-12     -0.517681E-21     -0.439207E-12     -0.110927E-21
  0.2386      0.128811E-06      0.138395E-04     -0.807302E-14      0.462989E-12     -0.270077E-21     -0.437753E-12     -0.111775E-21
  0.2418      0.133467E-06      0.186098E-04     -0.191378E-13      0.636700E-12     -0.654764E-21     -0.435754E-12     -0.113831E-21
  0.2449      0.138252E-06      0.225635E-04     -0.217361E-13      0.789395E-12     -0.760446E-21     -0.433275E-12     -0.116219E-21
  0.2481      0.143170E-06      0.276102E-04     -0.266806E-13      0.987649E-12     -0.954396E-21     -0.430174E-12     -0.119216E-21
  0.2512      0.148222E-06      0.317134E-04     -0.218199E-13      0.115978E-11     -0.797970E-21     -0.426532E-12     -0.121722E-21
  0.2543      0.153413E-06      0.370451E-04     -0.106926E-13      0.138490E-11     -0.399734E-21     -0.422184E-12     -0.122977E-21
  0.2575      0.158745E-06      0.413020E-04     -0.214903E-13      0.157822E-11     -0.821182E-21     -0.417228E-12     -0.125555E-21
  0.2606      0.164222E-06      0.469478E-04     -0.216431E-13      0.183349E-11     -0.845247E-21     -0.411471E-12     -0.128209E-21
  0.2638      0.169846E-06      0.513917E-04     -0.638595E-16      0.205106E-11     -0.254866E-23     -0.405030E-12     -0.128217E-21
  0.2669      0.175621E-06      0.573895E-04      0.868506E-15      0.234045E-11      0.354193E-22     -0.397681E-12     -0.128106E-21
  0.2700      0.181550E-06      0.619909E-04     -0.462009E-14      0.258306E-11     -0.192512E-21     -0.389570E-12     -0.128711E-21
  0.2732      0.187635E-06      0.683656E-04     -0.112645E-13      0.291034E-11     -0.479532E-21     -0.380432E-12     -0.130216E-21
  0.2763      0.193882E-06      0.732033E-04     -0.157338E-13      0.318343E-11     -0.684223E-21     -0.370436E-12     -0.132365E-21
  0.2795      0.200292E-06      0.800164E-04     -0.120874E-13      0.355436E-11     -0.536926E-21     -0.359275E-12     -0.134051E-21
  0.2826      0.206869E-06      0.851048E-04     -0.217056E-13      0.386115E-11     -0.984769E-21     -0.347151E-12     -0.137143E-21
  0.2857      0.213617E-06      0.924200E-04     -0.193147E-13      0.428223E-11     -0.894936E-21     -0.333705E-12     -0.139953E-21
  0.2889      0.220539E-06      0.977899E-04     -0.241456E-13      0.462701E-11     -0.114247E-20     -0.319176E-12     -0.143541E-21
  0.2920      0.227638E-06      0.105697E-03     -0.163297E-13      0.510661E-11     -0.788950E-21     -0.303141E-12     -0.146018E-21
  0.2952      0.234919E-06      0.111386E-03     -0.107295E-13      0.549454E-11     -0.529273E-21     -0.285888E-12     -0.147680E-21
  0.2983      0.242385E-06      0.119983E-03     -0.143969E-13      0.604240E-11     -0.725038E-21     -0.266915E-12     -0.149956E-21
  0.3014      0.250039E-06      0.126041E-03     -0.731706E-14      0.647976E-11     -0.376168E-21     -0.246568E-12     -0.151138E-21
  0.3046      0.257885E-06      0.135443E-03     -0.427669E-14      0.710758E-11     -0.224426E-21     -0.224250E-12     -0.151842E-21
  0.3077      0.265928E-06      0.141931E-03     -0.932420E-14      0.760196E-11     -0.499412E-21     -0.200380E-12     -0.153410E-21
  0.3109      0.274170E-06      0.152270E-03     -0.181086E-14      0.832358E-11     -0.989873E-22     -0.174244E-12     -0.153721E-21
  0.3140      0.282616E-06      0.159260E-03     -0.381739E-14      0.888411E-11     -0.212948E-21     -0.146347E-12     -0.154390E-21
  0.3171      0.291270E-06      0.170699E-03     -0.459518E-14      0.971659E-11     -0.261569E-21     -0.115837E-12     -0.155211E-21
  0.3203      0.300135E-06      0.178266E-03     -0.630672E-14      0.103537E-10     -0.366293E-21     -0.833262E-13     -0.156361E-21
  0.3234      0.309215E-06      0.191000E-03     -0.891635E-14      0.113180E-10     -0.528349E-21     -0.477875E-13     -0.158020E-21
  0.3266      0.318515E-06      0.199240E-03     -0.676576E-14      0.120443E-10     -0.409000E-21     -0.996806E-14     -0.159305E-21
  0.3297      0.328039E-06      0.213499E-03     -0.165608E-14      0.131656E-10     -0.102124E-21      0.313723E-13     -0.159625E-21
  0.3328      0.337790E-06      0.222522E-03     -0.109842E-14      0.139966E-10     -0.690910E-22      0.753221E-13     -0.159842E-21
  0.3360      0.347774E-06      0.238588E-03     -0.424587E-14      0.153063E-10     -0.272389E-21      0.123384E-12     -0.160698E-21
  0.3391      0.357993E-06      0.248522E-03     -0.969467E-14      0.162602E-10     -0.634298E-21      0.174442E-12     -0.162689E-21
  0.3423      0.368452E-06      0.266739E-03     -0.992814E-14      0.177972E-10     -0.662419E-21      0.230325E-12     -0.164769E-21
  0.3454      0.379156E-06      0.277737E-03     -0.141486E-13      0.188960E-10     -0.962606E-21      0.289659E-12     -0.167792E-21
  0.3485      0.390109E-06      0.298529E-03     -0.106813E-13      0.207090E-10     -0.740964E-21      0.354686E-12     -0.170119E-21
  0.3517      0.401315E-06      0.310773E-03     -0.119520E-13      0.219797E-10     -0.845318E-21      0.423702E-12     -0.172773E-21
  0.3548      0.412779E-06      0.334664E-03     -0.128538E-13      0.241301E-10     -0.926788E-21      0.499471E-12     -0.175683E-21
  0.3580      0.424505E-06      0.348372E-03     -0.914811E-14      0.256053E-10     -0.672386E-21      0.579873E-12     -0.177794E-21
  0.3611      0.436496E-06      0.376023E-03     -0.858818E-14      0.281713E-10     -0.643419E-21      0.668331E-12     -0.179815E-21
  0.3642      0.448759E-06      0.391461E-03     -0.115815E-13      0.298919E-10     -0.884365E-21      0.762192E-12     -0.182592E-21
  0.3674      0.461298E-06      0.423704E-03     -0.550999E-14      0.329737E-10     -0.428801E-21      0.865731E-12     -0.183938E-21
  0.3705      0.474116E-06      0.441196E-03     -0.599950E-14      0.349900E-10     -0.475803E-21      0.975600E-12     -0.185432E-21
  0.3737      0.487219E-06      0.479099E-03     -0.486554E-14      0.387179E-10     -0.393204E-21      0.109717E-11     -0.186667E-21
  0.3768      0.500611E-06      0.499045E-03     -0.438090E-14      0.410930E-10     -0.360738E-21      0.122621E-11     -0.187800E-21
  0.3799      0.514296E-06      0.543984E-03     -0.430417E-14      0.456378E-10     -0.361100E-21      0.136951E-11     -0.188933E-21
  0.3831      0.528281E-06      0.566889E-03     -0.689517E-14      0.484521E-10     -0.589332E-21      0.152165E-11     -0.190784E-21
  0.3862      0.542568E-06      0.620674E-03     -0.387640E-14      0.540409E-10     -0.337511E-21      0.169134E-11     -0.191844E-21
  0.3894      0.557164E-06      0.647166E-03     -0.104709E-13      0.573967E-10     -0.928654E-21      0.187157E-11     -0.194760E-21
  0.3925      0.572072E-06      0.712209E-03     -0.120559E-13      0.643366E-10     -0.108906E-20      0.207359E-11     -0.198179E-21
  0.3956      0.587297E-06      0.743084E-03     -0.614126E-14      0.683652E-10     -0.565008E-21      0.228826E-11     -0.199954E-21
  0.3988      0.602845E-06      0.822662E-03     -0.537281E-14      0.770785E-10     -0.503400E-21      0.253028E-11     -0.201534E-21
  0.4019      0.618720E-06      0.858933E-03     -0.732210E-14      0.819509E-10     -0.698602E-21      0.278761E-11     -0.203728E-21
  0.4051      0.634927E-06      0.957563E-03     -0.348527E-14      0.930275E-10     -0.338595E-21      0.307972E-11     -0.204791E-21
  0.4082      0.651471E-06      0.100056E-02     -0.582616E-14      0.989707E-10     -0.576293E-21      0.339049E-11     -0.206601E-21
  0.4113      0.668356E-06      0.112461E-02     -0.595004E-14      0.113253E-09     -0.599192E-21      0.374611E-11     -0.208482E-21
  0.4145      0.685588E-06      0.117606E-02     -0.365895E-14      0.120567E-09     -0.375108E-21      0.412469E-11     -0.209660E-21
  0.4176      0.703172E-06      0.133472E-02     -0.246564E-14      0.139286E-09     -0.257306E-21      0.456205E-11     -0.210468E-21
  0.4208      0.721112E-06      0.139697E-02     -0.628819E-14      0.148387E-09     -0.667934E-21      0.502799E-11     -0.212565E-21
  0.4239      0.739413E-06      0.160406E-02     -0.644074E-15      0.173414E-09     -0.696304E-22      0.557251E-11     -0.212784E-21
  0.4270      0.758081E-06      0.167999E-02     -0.212823E-14      0.184839E-09     -0.234156E-21      0.615291E-11     -0.213519E-21
  0.4302      0.777120E-06      0.195658E-02     -0.632888E-14      0.219066E-09     -0.708605E-21      0.684078E-11     -0.215744E-21
  0.4333      0.796536E-06      0.205024E-02     -0.324757E-14      0.233582E-09     -0.369994E-21      0.757424E-11     -0.216906E-21
  0.4365      0.816333E-06      0.243068E-02     -0.555592E-14      0.281767E-09     -0.644048E-21      0.845899E-11     -0.218928E-21
  0.4396      0.836516E-06      0.254693E-02     -0.767141E-14      0.300382E-09     -0.904756E-21      0.940220E-11     -0.221769E-21
  0.4427      0.857091E-06      0.308960E-02     -0.278316E-14      0.370698E-09     -0.333930E-21      0.105662E-10     -0.222818E-21
  0.4459      0.878062E-06      0.323377E-02     -0.295343E-14      0.394689E-09     -0.360474E-21      0.118055E-10     -0.223950E-21
  0.4490      0.899435E-06      0.404573E-02     -0.380253E-14      0.502273E-09     -0.472080E-21      0.133827E-10     -0.225432E-21
  0.4522      0.921214E-06      0.421988E-02     -0.382682E-14      0.532853E-09     -0.483221E-21      0.150558E-10     -0.226949E-21
  0.4553      0.943404E-06      0.551715E-02     -0.208205E-14      0.708523E-09     -0.267381E-21      0.172806E-10     -0.227789E-21
  0.4584      0.966011E-06      0.570388E-02     -0.518691E-14      0.744919E-09     -0.677404E-21      0.196197E-10     -0.229916E-21
