 
 # Omega; pulse ft; projected flux at t=    1000.25000000000     
    0.000000000000         0.18717486E-09      0.00000000E+00      0.00000000E+00      0.49986990E-12     -0.10339758E-23
    0.003140022642         0.20186436E-09      0.18569539E-04     -0.16023506E-16      0.46489037E-12     -0.40115017E-24
    0.006280045285         0.24594737E-09      0.25835782E-04     -0.32677078E-16      0.39402482E-12     -0.49836229E-24
    0.009420067927         0.31946741E-09      0.28461374E-04     -0.35944935E-16      0.37588149E-12     -0.47471480E-24
    0.012560090569         0.42249703E-09      0.28425125E-04     -0.57961471E-16      0.37235382E-12     -0.75926403E-24
    0.015700113211         0.55513782E-09      0.26857218E-04     -0.10765733E-15      0.36981251E-12     -0.14823959E-23
    0.018840135854         0.71752051E-09      0.24943253E-04     -0.82946875E-16      0.36993543E-12     -0.12301919E-23
    0.021980158496         0.90980495E-09      0.22948798E-04     -0.78898563E-16      0.36991331E-12     -0.12717716E-23
    0.025120181138         0.11321802E-08      0.21066978E-04     -0.31114116E-16      0.36975800E-12     -0.54610079E-24
    0.028260203780         0.13848647E-08      0.19357226E-04     -0.46587993E-16      0.36940071E-12     -0.88905492E-24
    0.031400226423         0.16681061E-08      0.17899963E-04     -0.41977897E-16      0.37031011E-12     -0.86842857E-24
    0.034540249065         0.19821816E-08      0.16590395E-04      0.31418754E-17      0.37076373E-12      0.70214931E-25
    0.037680271707         0.23273981E-08      0.15409364E-04     -0.23017794E-16      0.37064991E-12     -0.55365966E-24
    0.040820294349         0.27040919E-08      0.14355674E-04     -0.19936650E-16      0.37033219E-12     -0.51430418E-24
    0.043960316992         0.31126296E-08      0.13451343E-04     -0.23153607E-16      0.37089828E-12     -0.63842198E-24
    0.047100339634         0.35534072E-08      0.12621762E-04     -0.25478010E-16      0.37082028E-12     -0.74852960E-24
    0.050240362276         0.40268513E-08      0.11890347E-04     -0.28914732E-16      0.37113327E-12     -0.90251525E-24
    0.053380384919         0.45334185E-08      0.11187387E-04     -0.37095922E-16      0.36999454E-12     -0.12268538E-23
    0.056520407561         0.50735959E-08      0.10568927E-04     -0.68764677E-17      0.36945713E-12     -0.24038012E-24
    0.059660430203         0.56479014E-08      0.98130289E-05     -0.83761099E-17      0.36176483E-12     -0.30879171E-24
    0.062800452845         0.62568834E-08      0.98458917E-05     -0.27818159E-16      0.38200838E-12     -0.10793100E-23
    0.065940475488         0.69011217E-08      0.10053295E-04     -0.33319125E-16      0.40973077E-12     -0.13579499E-23
    0.069080498130         0.75812269E-08      0.93214015E-05     -0.31848847E-16      0.39837107E-12     -0.13611322E-23
    0.072220520772         0.82978416E-08      0.87585578E-05     -0.24844942E-16      0.39188593E-12     -0.11116423E-23
    0.075360543414         0.90516395E-08      0.83731817E-05     -0.14595453E-16      0.39164833E-12     -0.68268969E-24
    0.078500566057         0.98433265E-08      0.80199257E-05     -0.14096977E-16      0.39161741E-12     -0.68836318E-24
    0.081640588699         0.10673641E-07      0.77224763E-05     -0.14583156E-16      0.39317472E-12     -0.74247273E-24
    0.084780611341         0.11543353E-07      0.74523994E-05     -0.13641573E-16      0.39514281E-12     -0.72330656E-24
    0.087920633984         0.12453265E-07      0.71804656E-05     -0.79240741E-17      0.39606602E-12     -0.43708258E-24
    0.091060656626         0.13404215E-07      0.69098301E-05     -0.97790662E-17      0.39609605E-12     -0.56057087E-24
    0.094200679268         0.14397070E-07      0.66600968E-05     -0.16435105E-16      0.39639044E-12     -0.97817175E-24
    0.097340701910         0.15432734E-07      0.64259949E-05     -0.17218513E-16      0.39674487E-12     -0.10630816E-23
    0.100480724553         0.16512144E-07      0.62117602E-05     -0.11693633E-16      0.39751903E-12     -0.74832923E-24
    0.103620747195         0.17636269E-07      0.60082948E-05     -0.10257857E-16      0.39822981E-12     -0.67989082E-24
    0.106760769837         0.18806114E-07      0.58186444E-05     -0.13863430E-16      0.39914596E-12     -0.95100022E-24
    0.109900792479         0.20022721E-07      0.56359609E-05     -0.10430491E-16      0.39986443E-12     -0.74003042E-24
    0.113040815122         0.21287162E-07      0.54650430E-05     -0.83411454E-17      0.40077314E-12     -0.61168906E-24
    0.116180837764         0.22600547E-07      0.52990297E-05     -0.92025070E-17      0.40142401E-12     -0.69712900E-24
    0.119320860406         0.23964023E-07      0.51441122E-05     -0.32497451E-17      0.40232435E-12     -0.25416467E-24
    0.122460883048         0.25378770E-07      0.49932773E-05     -0.14796867E-16      0.40297807E-12     -0.11941682E-23
    0.125600905691         0.26846007E-07      0.48524622E-05     -0.10938859E-16      0.40389793E-12     -0.91050326E-24
    0.128740928333         0.28366986E-07      0.47153602E-05     -0.15702110E-16      0.40460755E-12     -0.13473397E-23
    0.131880950975         0.29943001E-07      0.45870887E-05     -0.11473613E-16      0.40557664E-12     -0.10144625E-23
    0.135020973618         0.31575378E-07      0.44619815E-05     -0.11396815E-16      0.40634753E-12     -0.10378948E-23
    0.138160996260         0.33265483E-07      0.43446857E-05     -0.13216347E-16      0.40737022E-12     -0.12392027E-23
    0.141301018902         0.35014721E-07      0.42299516E-05     -0.16442356E-16      0.40819090E-12     -0.15866896E-23
    0.144441041544         0.36824533E-07      0.41219914E-05     -0.13557179E-16      0.40923829E-12     -0.13459797E-23
    0.147581064187         0.38696400E-07      0.40158228E-05     -0.14858379E-16      0.41005019E-12     -0.15171688E-23
    0.150721086829         0.40631842E-07      0.39161757E-05     -0.43737720E-17      0.41112814E-12     -0.45916753E-24
    0.153861109471         0.42632417E-07      0.38178718E-05     -0.49221784E-17      0.41195993E-12     -0.53111796E-24
    0.157001132113         0.44699723E-07      0.37255390E-05     -0.55602991E-17      0.41306054E-12     -0.61648533E-24
    0.160141154756         0.46835399E-07      0.36342621E-05     -0.45009866E-17      0.41391394E-12     -0.51262706E-24
    0.163281177398         0.49041122E-07      0.35486847E-05     -0.12983008E-17      0.41506320E-12     -0.15185257E-24
    0.166421200040         0.51318613E-07      0.34635198E-05     -0.40065209E-17      0.41591681E-12     -0.48112311E-24
    0.169561222683         0.53669630E-07      0.33842796E-05     -0.76093738E-17      0.41714864E-12     -0.93793668E-24
    0.172701245325         0.56095974E-07      0.33048230E-05     -0.79474100E-17      0.41802954E-12     -0.10052739E-23
    0.175841267967         0.58599489E-07      0.32317967E-05     -0.70354414E-17      0.41941079E-12     -0.91303392E-24
    0.178981290609         0.61182058E-07      0.31577916E-05     -0.52184806E-17      0.42036103E-12     -0.69467722E-24
    0.182121313252         0.63845608E-07      0.30910954E-05     -0.88540813E-17      0.42199296E-12     -0.12087495E-23
    0.185261335894         0.66592107E-07      0.30213570E-05     -0.57474974E-17      0.42292422E-12     -0.80452453E-24
    0.188401358536         0.69423567E-07      0.29612075E-05     -0.77830010E-17      0.42492695E-12     -0.11168440E-23
    0.191541381178         0.72342043E-07      0.28944050E-05     -0.73843199E-17      0.42570622E-12     -0.10860785E-23
    0.194681403821         0.75349631E-07      0.28391700E-05     -0.39700632E-17      0.42792791E-12     -0.59837940E-24
    0.197821426463         0.78448474E-07      0.27810233E-05     -0.67531447E-17      0.42947546E-12     -0.10428930E-23
    0.200961449105         0.81640757E-07      0.27171848E-05     -0.81151212E-17      0.42986886E-12     -0.12838427E-23
    0.204101471747         0.84928709E-07      0.26721025E-05     -0.21924870E-17      0.43299615E-12     -0.35527771E-24
    0.207241494390         0.88314602E-07      0.26122991E-05     -0.18868726E-17      0.43351211E-12     -0.31312729E-24
    0.210381517032         0.91800755E-07      0.25636225E-05     -0.79049437E-17      0.43562750E-12     -0.13432597E-23
    0.213521539674         0.95389531E-07      0.25121052E-05      0.13933636E-17      0.43703818E-12      0.24240749E-24
    0.216661562317         0.99083337E-07      0.24633194E-05     -0.41767776E-17      0.43869434E-12     -0.74384535E-24
    0.219801584959         0.10288463E-06      0.24157024E-05      0.21147965E-17      0.44033747E-12      0.38548793E-24
    0.222941607601         0.10679590E-06      0.23683979E-05     -0.55234552E-18      0.44181519E-12     -0.10303786E-24
    0.226081630243         0.11081969E-06      0.23233833E-05     -0.30774848E-17      0.44350148E-12     -0.58744894E-24
    0.229221652886         0.11495860E-06      0.22779300E-05     -0.84421871E-18      0.44488601E-12     -0.16487824E-24
    0.232361675528         0.11921526E-06      0.22351229E-05     -0.11428286E-17      0.44657180E-12     -0.22833421E-24
    0.235501698170         0.12359235E-06      0.21917141E-05     -0.21661665E-17      0.44792362E-12     -0.44270243E-24
    0.238641720812         0.12809259E-06      0.21509322E-05     -0.58891386E-17      0.44960062E-12     -0.12309827E-23
    0.241781743455         0.13271877E-06      0.21095709E-05     -0.22165795E-18      0.45094700E-12     -0.47382141E-25
    0.244921766097         0.13747370E-06      0.20706558E-05     -0.24751030E-17      0.45260847E-12     -0.54101343E-24
    0.248061788739         0.14236024E-06      0.20312586E-05     -0.20109646E-17      0.45395898E-12     -0.44942352E-24
    0.251201811381         0.14738131E-06      0.19940852E-05     -0.13321050E-17      0.45560231E-12     -0.30435516E-24
    0.254341834024         0.15253987E-06      0.19565694E-05     -0.47505175E-17      0.45696546E-12     -0.11095045E-23
    0.257481856666         0.15783893E-06      0.19210515E-05     -0.48036840E-17      0.45859471E-12     -0.11467387E-23
    0.260621879308         0.16328153E-06      0.18853392E-05     -0.20826347E-17      0.45997923E-12     -0.50811478E-24
    0.263761901951         0.16887077E-06      0.18514040E-05     -0.37380674E-17      0.46160038E-12     -0.93199183E-24
    0.266901924593         0.17460981E-06      0.18174387E-05     -0.20124799E-17      0.46301945E-12     -0.51270910E-24
    0.270041947235         0.18050182E-06      0.17850439E-05     -0.26600359E-17      0.46464556E-12     -0.69240530E-24
    0.273181969877         0.18655005E-06      0.17527023E-05     -0.12950260E-17      0.46609456E-12     -0.34438512E-24
    0.276321992520         0.19275778E-06      0.17217580E-05     -0.34936919E-17      0.46772557E-12     -0.94908171E-24
    0.279462015162         0.19912834E-06      0.16909779E-05     -0.28686851E-17      0.46921378E-12     -0.79600483E-24
    0.282602037804         0.20566511E-06      0.16614247E-05     -0.14583803E-17      0.47085645E-12     -0.41331263E-24
    0.285742060446         0.21237151E-06      0.16321183E-05     -0.15979198E-17      0.47238518E-12     -0.46248706E-24
    0.288882083089         0.21925100E-06      0.16038946E-05     -0.20203224E-17      0.47404476E-12     -0.59712353E-24
    0.292022105731         0.22630710E-06      0.15759795E-05     -0.45812940E-17      0.47561500E-12     -0.13825892E-23
    0.295162128373         0.23354337E-06      0.15490263E-05     -0.29979946E-17      0.47729648E-12     -0.92376243E-24
    0.298302151016         0.24096340E-06      0.15224135E-05     -0.45250534E-17      0.47890555E-12     -0.14234459E-23
    0.301442173658         0.24857086E-06      0.14967015E-05     -0.21483125E-17      0.48062232E-12     -0.68986833E-24
    0.304582196300         0.25636942E-06      0.14713786E-05     -0.83178295E-18      0.48229048E-12     -0.27264295E-24
    0.307722218942         0.26436283E-06      0.14468034E-05     -0.22165951E-17      0.48403148E-12     -0.74156712E-24
    0.310862241585         0.27255487E-06      0.14226002E-05     -0.28738732E-17      0.48572602E-12     -0.98124199E-24
    0.314002264227         0.28094936E-06      0.13991811E-05     -0.18747637E-17      0.48751921E-12     -0.65322732E-24
    0.317142286869         0.28955016E-06      0.13760673E-05     -0.28663046E-17      0.48925116E-12     -0.10190947E-23
    0.320282309511         0.29836118E-06      0.13537011E-05      0.99089694E-19      0.49108276E-12      0.35946814E-25
    0.323422332154         0.30738639E-06      0.13316839E-05     -0.30009995E-19      0.49287673E-12     -0.11107162E-25
    0.326562354796         0.31662976E-06      0.13102879E-05     -0.10779239E-17      0.49473758E-12     -0.40700174E-24
    0.329702377438         0.32609534E-06      0.12892965E-05     -0.25756173E-17      0.49658986E-12     -0.99203361E-24
    0.332842400080         0.33578719E-06      0.12688517E-05     -0.17350596E-17      0.49849282E-12     -0.68165155E-24
    0.335982422723         0.34570944E-06      0.12488147E-05     -0.22407145E-17      0.50039761E-12     -0.89784993E-24
    0.339122445365         0.35586624E-06      0.12292868E-05      0.49795092E-18      0.50234954E-12      0.20348825E-24
    0.342262468007         0.36626178E-06      0.12101494E-05     -0.46764129E-19      0.50430568E-12     -0.19488020E-25
    0.345402490650         0.37690029E-06      0.11914995E-05     -0.68747048E-18      0.50631107E-12     -0.29213097E-24
    0.348542513292         0.38778604E-06      0.11732119E-05     -0.17988644E-17      0.50831794E-12     -0.77939457E-24
    0.351682535934         0.39892335E-06      0.11554033E-05     -0.14274896E-17      0.51038138E-12     -0.63057123E-24
    0.354822558576         0.41031655E-06      0.11379181E-05     -0.22026821E-17      0.51243802E-12     -0.99193263E-24
    0.357962581219         0.42197002E-06      0.11209165E-05     -0.11680156E-17      0.51456444E-12     -0.53618560E-24
    0.361102603861         0.43388818E-06      0.11041875E-05     -0.97312594E-18      0.51666920E-12     -0.45534314E-24
    0.364242626503         0.44607547E-06      0.10879600E-05     -0.10600496E-17      0.51886342E-12     -0.50555256E-24
    0.367382649145         0.45853638E-06      0.10719458E-05     -0.20850948E-17      0.52101535E-12     -0.10134528E-23
    0.370522671788         0.47127541E-06      0.10564594E-05     -0.15832890E-17      0.52328145E-12     -0.78422871E-24
    0.373662694430         0.48429711E-06      0.10411223E-05     -0.16149925E-17      0.52548028E-12     -0.81512682E-24
    0.376802717072         0.49760605E-06      0.10263406E-05     -0.12926265E-17      0.52781980E-12     -0.66476362E-24
    0.379942739715         0.51120685E-06      0.10116525E-05     -0.13438308E-17      0.53006901E-12     -0.70411831E-24
    0.383082762357         0.52510413E-06      0.99753094E-06     -0.17934023E-17      0.53247809E-12     -0.95731111E-24
    0.386222784999         0.53930256E-06      0.98347479E-06     -0.10472102E-17      0.53478641E-12     -0.56944398E-24
    0.389362807641         0.55380682E-06      0.96996155E-06     -0.18813473E-17      0.53725553E-12     -0.10420663E-23
    0.392502830284         0.56862162E-06      0.95652525E-06     -0.24357768E-17      0.53963432E-12     -0.13741705E-23
    0.395642852926         0.58375171E-06      0.94357088E-06     -0.13048027E-17      0.54215306E-12     -0.74970816E-24
    0.398782875568         0.59920184E-06      0.93073029E-06     -0.29766929E-17      0.54460676E-12     -0.17417796E-23
    0.401922898210         0.61497679E-06      0.91835435E-06     -0.27523142E-17      0.54720343E-12     -0.16399724E-23
    0.405062920853         0.63108138E-06      0.90599679E-06     -0.14479813E-17      0.54968271E-12     -0.87851337E-24
    0.408202943495         0.64752043E-06      0.89430845E-06     -0.26360931E-17      0.55244267E-12     -0.16283982E-23
    0.411342966137         0.66429877E-06      0.88228153E-06     -0.24119232E-17      0.55486727E-12     -0.15168596E-23
    0.414482988779         0.68142128E-06      0.87134331E-06     -0.91742086E-18      0.55785435E-12     -0.58735428E-24
    0.417623011422         0.69889282E-06      0.85955990E-06     -0.11698114E-17      0.56017645E-12     -0.76236780E-24
    0.420763034064         0.71671828E-06      0.84938343E-06     -0.10802042E-17      0.56342645E-12     -0.71653814E-24
    0.423903056706         0.73490258E-06      0.83777984E-06     -0.38777988E-18      0.56560817E-12     -0.26180085E-24
    0.427043079349         0.75345064E-06      0.82838940E-06     -0.10600729E-17      0.56916763E-12     -0.72835212E-24
    0.430183101991         0.77236737E-06      0.81683569E-06     -0.12517314E-17      0.57112059E-12     -0.87519384E-24
    0.433323124633         0.79165771E-06      0.80832317E-06     -0.17331661E-17      0.57508647E-12     -0.12330716E-23
    0.436463147275         0.81132662E-06      0.79661040E-06     -0.15282755E-17      0.57665580E-12     -0.11062985E-23
    0.439603169918         0.83137904E-06      0.78912282E-06     -0.20614247E-17      0.58117296E-12     -0.15181975E-23
    0.442743192560         0.85181993E-06      0.77691859E-06     -0.60211691E-18      0.58209512E-12     -0.45112746E-24
    0.445883215202         0.87265424E-06      0.77079826E-06     -0.13996711E-17      0.58746818E-12     -0.10667671E-23
    0.449023237844         0.89388696E-06      0.75750434E-06     -0.68631404E-18      0.58724787E-12     -0.53205828E-24
    0.452163260487         0.91552302E-06      0.75328818E-06     -0.10690778E-17      0.59396068E-12     -0.84295783E-24
    0.455303283129         0.93756741E-06      0.73778189E-06     -0.12616935E-17      0.59163282E-12     -0.10117614E-23
    0.458443305771         0.96002506E-06      0.73652182E-06     -0.12442985E-17      0.60062734E-12     -0.10147149E-23
    0.461583328413         0.98290095E-06      0.71636687E-06     -0.17067721E-17      0.59404271E-12     -0.14153301E-23
    0.464723351056         0.10062000E-05      0.72034923E-06     -0.16574858E-17      0.60737297E-12     -0.13975334E-23
    0.467863373698         0.10299272E-05      0.68939692E-06     -0.14183420E-17      0.59098894E-12     -0.12158808E-23
    0.471003396340         0.10540874E-05      0.70433713E-06     -0.11663673E-17      0.61384075E-12     -0.10165072E-23
    0.474143418983         0.10786856E-05      0.64126462E-06     -0.94788652E-18      0.56812642E-12     -0.83977714E-24
    0.477283441625         0.11037267E-05      0.68543890E-06     -0.99998734E-18      0.61727184E-12     -0.90053837E-24
    0.480423464267         0.11292155E-05      0.44783570E-06     -0.15647517E-17      0.40991506E-12     -0.14322559E-23
    0.483563486909         0.11551570E-05      0.57023307E-06     -0.13238674E-17      0.53047198E-12     -0.12315570E-23
    0.486703509552         0.11815559E-05      0.12797701E-05     -0.11356211E-17      0.12098857E-11     -0.10736081E-23
    0.489843532194         0.12084172E-05      0.56111519E-06     -0.13159559E-17      0.53905627E-12     -0.12642222E-23
    0.492983554836         0.12357457E-05      0.38348154E-06     -0.16480938E-17      0.37433780E-12     -0.16087966E-23
    0.496123577478         0.12635461E-05      0.61841349E-06     -0.10125934E-17      0.61334201E-12     -0.10042894E-23
    0.499263600121         0.12918231E-05      0.57555071E-06     -0.14559884E-17      0.57993496E-12     -0.14670793E-23
    0.502403622763         0.13205817E-05      0.60661534E-06     -0.89515464E-18      0.62093827E-12     -0.91629034E-24
    0.505543645405         0.13498263E-05      0.60236996E-06     -0.12959954E-17      0.62633269E-12     -0.13475511E-23
    0.508683668048         0.13795618E-05      0.61821592E-06     -0.95758641E-18      0.65291416E-12     -0.10113323E-23
