
 # Omega; pulse ft; projected flux at t=    1000.2500000000000     
    0.000000000000         0.10847490E-10      0.00000000E+00      0.00000000E+00      0.61266876E-12      0.20679515E-24
    0.003140022642         0.11093634E-10      0.44683600E-03     -0.32702012E-15      0.61476871E-12     -0.44992287E-24
    0.006280045285         0.11830642E-10      0.84080454E-03     -0.87238773E-15      0.61682665E-12     -0.63999654E-24
    0.009420067927         0.13054251E-10      0.11469256E-02     -0.69610294E-15      0.61895019E-12     -0.37565911E-24
    0.012560090569         0.14757372E-10      0.13573190E-02     -0.19847077E-14      0.62104167E-12     -0.90810354E-24
    0.015700113211         0.16930121E-10      0.14840198E-02      0.12889720E-14      0.62318864E-12      0.54128164E-24
    0.018840135854         0.19559852E-10      0.15466584E-02      0.17688090E-14      0.62531448E-12      0.71513002E-24
    0.021980158496         0.22631207E-10      0.15649624E-02     -0.15056407E-15      0.62748500E-12     -0.60369947E-25
    0.025120181138         0.26126176E-10      0.15546082E-02      0.16067925E-14      0.62964618E-12      0.65078185E-24
    0.028260203780         0.30024165E-10      0.15271759E-02     -0.14554447E-14      0.63184020E-12     -0.60216277E-24
    0.031400226423         0.34302079E-10      0.14904072E-02     -0.41373003E-15      0.63403778E-12     -0.17600591E-24
    0.034540249065         0.38934408E-10      0.14494414E-02     -0.20585304E-15      0.63625516E-12     -0.90362439E-25
    0.037680271707         0.43893332E-10      0.14074966E-02      0.38587858E-15      0.63849049E-12      0.17504823E-24
    0.040820294349         0.49148832E-10      0.13665193E-02     -0.11806724E-15      0.64073050E-12     -0.55359103E-25
    0.043960316992         0.54668813E-10      0.13277409E-02     -0.44476938E-15      0.64300554E-12     -0.21539531E-24
    0.047100339634         0.60419233E-10      0.12917118E-02     -0.29779208E-15      0.64526682E-12     -0.14876023E-24
    0.050240362276         0.66364250E-10      0.12589027E-02     -0.78077672E-15      0.64758404E-12     -0.40163433E-24
    0.053380384919         0.72466374E-10      0.12292661E-02     -0.10592732E-15      0.64986521E-12     -0.55999658E-25
    0.056520407561         0.78686628E-10      0.12030382E-02     -0.51893420E-16      0.65222524E-12     -0.28133935E-25
    0.059660430203         0.84984724E-10      0.11799176E-02     -0.19635483E-15      0.65452875E-12     -0.10892276E-24
    0.062800452845         0.91319245E-10      0.11600975E-02      0.49547103E-15      0.65692618E-12      0.28056942E-24
    0.065940475488         0.97647837E-10      0.11432044E-02      0.19684122E-15      0.65926042E-12      0.11351393E-24
    0.069080498130         0.10392742E-09      0.11294222E-02      0.95983213E-16      0.66168841E-12      0.56233161E-25
    0.072220520772         0.11011438E-09      0.11184084E-02      0.11998327E-14      0.66405852E-12      0.71240451E-24
    0.075360543414         0.11616481E-09      0.11103466E-02     -0.47359598E-15      0.66651771E-12     -0.28428969E-24
    0.078500566057         0.12203475E-09      0.11049487E-02     -0.13160207E-14      0.66892189E-12     -0.79670218E-24
    0.081640588699         0.12768041E-09      0.11024313E-02      0.66402193E-15      0.67141682E-12      0.40441112E-24
    0.084780611341         0.13305840E-09      0.11025454E-02      0.15668312E-15      0.67385236E-12      0.95761403E-25
    0.087920633984         0.13812604E-09      0.11055721E-02     -0.51661234E-15      0.67638564E-12     -0.31606185E-24
    0.091060656626         0.14284161E-09      0.11112928E-02      0.24108508E-15      0.67885184E-12      0.14727086E-24
    0.094200679268         0.14716459E-09      0.11200719E-02     -0.10873438E-14      0.68142450E-12     -0.66151351E-24
    0.097340701910         0.15105600E-09      0.11317239E-02     -0.99475630E-15      0.68392195E-12     -0.60114988E-24
    0.100480724553         0.15447866E-09      0.11467108E-02     -0.50923608E-15      0.68653420E-12     -0.30487896E-24
    0.103620747195         0.15739751E-09      0.11648925E-02      0.90542083E-15      0.68906396E-12      0.53557976E-24
    0.106760769837         0.15977989E-09      0.11868470E-02      0.66313161E-15      0.69171579E-12      0.38648505E-24
    0.109900792479         0.16159592E-09      0.12125008E-02      0.10692560E-14      0.69427921E-12      0.61225704E-24
    0.113040815122         0.16281876E-09      0.12425754E-02     -0.34488293E-15      0.69697061E-12     -0.19344763E-24
    0.116180837764         0.16342499E-09      0.12770964E-02     -0.62479786E-15      0.69956840E-12     -0.34225204E-24
    0.119320860406         0.16339494E-09      0.13169747E-02     -0.48631034E-15      0.70229923E-12     -0.25933329E-24
    0.122460883048         0.16271302E-09      0.13623873E-02      0.13259661E-14      0.70493333E-12      0.68608811E-24
    0.125600905691         0.16136811E-09      0.14145029E-02      0.14726131E-14      0.70770345E-12      0.73677715E-24
    0.128740928333         0.15935390E-09      0.14737340E-02      0.96852907E-15      0.71037505E-12      0.46685419E-24
    0.131880950975         0.15666928E-09      0.15416204E-02      0.48745618E-15      0.71318429E-12      0.22550693E-24
    0.135020973618         0.15331870E-09      0.16189478E-02      0.11914254E-14      0.71589488E-12      0.52684549E-24
    0.138160996260         0.14931255E-09      0.17078126E-02      0.69398547E-16      0.71874296E-12      0.29206786E-25
    0.141301018902         0.14466758E-09      0.18096075E-02      0.20923800E-15      0.72149420E-12      0.83423618E-25
    0.144441041544         0.13940727E-09      0.19273006E-02      0.23323014E-14      0.72438062E-12      0.87660117E-24
    0.147581064187         0.13356225E-09      0.20633028E-02     -0.55304744E-15      0.72717445E-12     -0.19491175E-24
    0.150721086829         0.12717068E-09      0.22220086E-02     -0.10799212E-14      0.73009817E-12     -0.35483595E-24
    0.153861109471         0.12027870E-09      0.24076010E-02     -0.11925379E-14      0.73293747E-12     -0.36304010E-24
    0.157001132113         0.11294082E-09      0.26269136E-02     -0.35363767E-14      0.73589607E-12     -0.99067046E-24
    0.160141154756         0.10522036E-09      0.28873484E-02      0.81678724E-15      0.73878581E-12      0.20899134E-24
    0.163281177398         0.97189861E-10      0.32001235E-02     -0.67106521E-15      0.74177830E-12     -0.15555075E-24
    0.166421200040         0.88931555E-10      0.35786277E-02     -0.77823569E-15      0.74470849E-12     -0.16194999E-24
    0.169561222683         0.80537758E-10      0.40428492E-02      0.53880550E-15      0.74779590E-12      0.99661531E-25
    0.172701245325         0.72111337E-10      0.46169299E-02     -0.16894622E-14      0.75073022E-12     -0.27471292E-24
    0.175841267967         0.63766150E-10      0.53381059E-02     -0.10043356E-14      0.75383990E-12     -0.14183088E-24
    0.178981290609         0.55627495E-10      0.62532574E-02      0.53030295E-14      0.75685157E-12      0.64184248E-24
    0.182121313252         0.47832561E-10      0.74304647E-02      0.13023738E-13      0.75997863E-12      0.13320516E-23
    0.185261335894         0.40530887E-10      0.89562821E-02      0.98251927E-14      0.76304758E-12      0.83707608E-24
    0.188401358536         0.33884816E-10      0.10939719E-01     -0.10745870E-14      0.76621352E-12     -0.75263641E-25
    0.191541381178         0.28069961E-10      0.13480725E-01      0.15076897E-14      0.76933411E-12      0.86042637E-25
    0.194681403821         0.23275664E-10      0.16592875E-01     -0.13913640E-13      0.77254144E-12     -0.64779995E-24
    0.197821426463         0.19705465E-10      0.19997047E-01      0.50131215E-13      0.77571426E-12      0.19446620E-23
    0.200961449105         0.17577570E-10      0.22869066E-01      0.44003317E-13      0.77896339E-12      0.14988357E-23
    0.204101471747         0.17125315E-10      0.23938510E-01      0.71395888E-13      0.78218971E-12      0.23328573E-23
    0.207241494390         0.18597645E-10      0.22476666E-01      0.62622537E-13      0.78548098E-12      0.21884390E-23
    0.210381517032         0.22259579E-10      0.19143183E-01      0.62228650E-13      0.78876211E-12      0.25640251E-23
    0.213521539674         0.28392684E-10      0.15296445E-01      0.16943832E-13      0.79209598E-12      0.87740265E-24
    0.216661562317         0.37295552E-10      0.11866045E-01      0.48879571E-15      0.79543322E-12      0.32766127E-25
    0.219801584959         0.49284270E-10      0.91483668E-02      0.11358943E-13      0.79881023E-12      0.99183166E-24
    0.222941607601         0.64692893E-10      0.70990019E-02      0.78805054E-14      0.80220485E-12      0.89051668E-24
    0.226081630243         0.83873922E-10      0.55763378E-02      0.34465391E-14      0.80562566E-12      0.49792900E-24
    0.229221652886         0.10719877E-09      0.44425687E-02      0.15791806E-14      0.80907888E-12      0.28759975E-24
    0.232361675528         0.13505825E-09      0.35897803E-02     -0.20386724E-14      0.81254425E-12     -0.46145208E-24
    0.235501698170         0.16786301E-09      0.29399309E-02      0.50304845E-15      0.81605726E-12      0.13963469E-24
    0.238641720812         0.20604406E-09      0.24375231E-02     -0.10586033E-15      0.81956804E-12     -0.35593404E-25
    0.241781743455         0.25005319E-09      0.20438231E-02      0.29552938E-16      0.82314197E-12      0.11902333E-25
    0.244921766097         0.30036346E-09      0.17310324E-02     -0.49686226E-16      0.82669910E-12     -0.23728936E-25
    0.248061788739         0.35746965E-09      0.14796244E-02      0.63286605E-15      0.83033497E-12      0.35515149E-24
    0.251201811381         0.42188874E-09      0.12750782E-02      0.82871456E-15      0.83393948E-12      0.54200424E-24
    0.254341834024         0.49416037E-09      0.11070920E-02      0.24832805E-15      0.83763800E-12      0.18788773E-24
    0.257481856666         0.57484728E-09      0.96764930E-03     -0.59347566E-16      0.84129127E-12     -0.51597814E-25
    0.260621879308         0.66453577E-09      0.85104516E-03     -0.15939985E-15      0.84505045E-12     -0.15827705E-24
    0.263761901951         0.76383615E-09      0.75262264E-03      0.31741779E-15      0.84876598E-12      0.35796615E-24
    0.266901924593         0.87338321E-09      0.66907924E-03      0.21656797E-15      0.85261552E-12      0.27597510E-24
    0.270041947235         0.99383660E-09      0.59751256E-03      0.14874548E-15      0.85635401E-12      0.21318177E-24
    0.273181969877         0.11258814E-08      0.53599175E-03      0.25085383E-15      0.86024319E-12      0.40260936E-24
    0.276321992520         0.12702283E-08      0.48266799E-03      0.14415839E-15      0.86404699E-12      0.25806480E-24
    0.279462015162         0.14276143E-08      0.43632925E-03     -0.73306442E-16      0.86801047E-12     -0.14583198E-24
    0.282602037804         0.15988030E-08      0.39573822E-03     -0.24389464E-15      0.87186697E-12     -0.53733418E-24
    0.285742060446         0.17845852E-08      0.36013810E-03      0.65596675E-16      0.87590043E-12      0.15953923E-24
    0.288882083089         0.19857789E-08      0.32866749E-03     -0.99704743E-16      0.87981138E-12     -0.26690004E-24
    0.292022105731         0.22032301E-08      0.30084526E-03      0.13303531E-15      0.88391365E-12      0.39087111E-24
    0.295162128373         0.24378129E-08      0.27605383E-03      0.22459343E-15      0.88788366E-12      0.72236940E-24
    0.298302151016         0.26904304E-08      0.25398126E-03      0.15254929E-15      0.89205083E-12      0.53579433E-24
    0.301442173658         0.29620145E-08      0.23417888E-03      0.76016919E-16      0.89609370E-12      0.29088141E-24
    0.304582196300         0.32535265E-08      0.21643281E-03      0.15294931E-15      0.90031702E-12      0.63623841E-24
    0.307722218942         0.35659575E-08      0.20041866E-03      0.23471781E-16      0.90443633E-12      0.10592193E-24
    0.310862241585         0.39003290E-08      0.18598825E-03      0.13295932E-15      0.90874347E-12      0.64964273E-24
    0.314002264227         0.42576927E-08      0.17288581E-03      0.17419708E-15      0.91290045E-12      0.91982444E-24
    0.317142286869         0.46391314E-08      0.16102940E-03      0.95617286E-16      0.91729753E-12      0.54468006E-24
    0.320282309511         0.50457590E-08      0.15020445E-03     -0.75195475E-16      0.92150754E-12     -0.46132586E-24
    0.323422332154         0.54787210E-08      0.14036874E-03     -0.13699405E-16      0.92598111E-12     -0.90371905E-25
    0.326562354796         0.59391947E-08      0.13134620E-03     -0.65339570E-16      0.93025392E-12     -0.46276474E-24
    0.329702377438         0.64283897E-08      0.12311727E-03      0.67161536E-16      0.93480630E-12      0.50994493E-24
    0.332842400080         0.69475481E-08      0.11553520E-03      0.68427126E-16      0.93913877E-12      0.55621636E-24
    0.335982422723         0.74979446E-08      0.10859781E-03      0.41287493E-16      0.94377674E-12      0.35881181E-24
    0.339122445365         0.80808871E-08      0.10217728E-03     -0.58329822E-16      0.94815512E-12     -0.54127218E-24
    0.342262468007         0.86977170E-08      0.96283223E-04     -0.68025591E-16      0.95283819E-12     -0.67319496E-24
    0.345402490650         0.93498090E-08      0.90821505E-04     -0.72566507E-16      0.95738917E-12     -0.76495526E-24
    0.348542513292         0.10038572E-07      0.85774165E-04     -0.17611487E-16      0.96204464E-12     -0.19753077E-24
    0.351682535934         0.10765449E-07      0.81091374E-04     -0.10687591E-16      0.96667066E-12     -0.12740419E-24
    0.354822558576         0.11531917E-07      0.76761029E-04     -0.32590397E-16      0.97152415E-12     -0.41247959E-24
    0.357962581219         0.12339487E-07      0.72718814E-04     -0.20314810E-16      0.97617754E-12     -0.27270606E-24
    0.361102603861         0.13189707E-07      0.68975098E-04     -0.26354197E-16      0.98111385E-12     -0.37486670E-24
    0.364242626503         0.14084158E-07      0.65470488E-04     -0.36340167E-16      0.98584413E-12     -0.54720441E-24
    0.367382649145         0.15024457E-07      0.62216866E-04      0.38777087E-16      0.99085666E-12      0.61755818E-24
    0.370522671788         0.16012256E-07      0.59163706E-04      0.24659935E-16      0.99567055E-12      0.41500395E-24
    0.373662694430         0.17049243E-07      0.56322631E-04     -0.20253505E-16      0.10007621E-11     -0.35987203E-24
    0.376802717072         0.18137141E-07      0.53650635E-04      0.45922704E-17      0.10056624E-11      0.86080502E-25
    0.379942739715         0.19277708E-07      0.51158820E-04     -0.27552449E-16      0.10108351E-11     -0.54440238E-24
    0.383082762357         0.20472742E-07      0.48810436E-04     -0.34048843E-16      0.10158244E-11     -0.70861166E-24
    0.386222784999         0.21724071E-07      0.46615883E-04      0.10256863E-18      0.10210800E-11      0.22466759E-26
    0.389362807641         0.23033564E-07      0.44543692E-04     -0.40293820E-16      0.10261608E-11     -0.92825578E-24
    0.392502830284         0.24403125E-07      0.42603416E-04     -0.37589507E-16      0.10315009E-11     -0.91010567E-24
    0.395642852926         0.25834693E-07      0.40768104E-04     -0.26963338E-16      0.10366760E-11     -0.68564003E-24
    0.398782875568         0.27330244E-07      0.39046363E-04     -0.27152428E-16      0.10421018E-11     -0.72466656E-24
    0.401922898210         0.28891791E-07      0.37415153E-04     -0.34880493E-17      0.10473740E-11     -0.97642047E-25
    0.405062920853         0.30521384E-07      0.35882061E-04     -0.85857192E-17      0.10528867E-11     -0.25193062E-24
    0.408202943495         0.32221107E-07      0.34427477E-04     -0.20692472E-16      0.10582592E-11     -0.63606170E-24
    0.411342966137         0.33993084E-07      0.33057918E-04      0.33742045E-16      0.10638601E-11      0.10858765E-23
    0.414482988779         0.35839473E-07      0.31756793E-04     -0.63542444E-17      0.10693357E-11     -0.21396432E-24
    0.417623011422         0.37762468E-07      0.30529614E-04     -0.89976740E-17      0.10750280E-11     -0.31683178E-24
    0.420763034064         0.39764301E-07      0.29362269E-04     -0.43727262E-17      0.10806074E-11     -0.16092762E-24
    0.423903056706         0.41847240E-07      0.28259459E-04     -0.44174826E-16      0.10863922E-11     -0.16982345E-23
    0.427043079349         0.44013589E-07      0.27209278E-04     -0.41636169E-16      0.10920805E-11     -0.16711229E-23
    0.430183101991         0.46265688E-07      0.26215434E-04     -0.79739860E-16      0.10979568E-11     -0.33396710E-23
    0.433323124633         0.48605914E-07      0.25268178E-04      0.31784348E-18      0.11037576E-11      0.13883952E-25
    0.436463147275         0.51036678E-07      0.24370206E-04     -0.15640755E-16      0.11097281E-11     -0.71222149E-24
    0.439603169918         0.53560430E-07      0.23513622E-04     -0.13672375E-16      0.11156432E-11     -0.64870872E-24
    0.442743192560         0.56179653E-07      0.22700132E-04      0.97400301E-17      0.11217035E-11      0.48129350E-24
    0.445883215202         0.58896866E-07      0.21923846E-04      0.14427934E-18      0.11277435E-11      0.74216034E-26
    0.449023237844         0.61714624E-07      0.21185166E-04     -0.12177688E-17      0.11338972E-11     -0.65178843E-25
    0.452163260487         0.64635518E-07      0.20480020E-04     -0.12860508E-17      0.11400631E-11     -0.71590705E-25
    0.455303283129         0.67662171E-07      0.19807563E-04     -0.11370785E-16      0.11463012E-11     -0.65804883E-24
    0.458443305771         0.70797244E-07      0.19165930E-04     -0.33370620E-17      0.11526121E-11     -0.20068621E-24
    0.461583328413         0.74043431E-07      0.18552198E-04     -0.53422340E-18      0.11589223E-11     -0.33371972E-25
    0.464723351056         0.77403460E-07      0.17967465E-04     -0.86906190E-17      0.11654006E-11     -0.56368845E-24
    0.467863373698         0.80880094E-07      0.17405580E-04     -0.14684871E-16      0.11717464E-11     -0.98858786E-24
    0.471003396340         0.84476127E-07      0.16872695E-04     -0.45409408E-17      0.11784657E-11     -0.31715995E-24
    0.474143418983         0.88194391E-07      0.16355565E-04      0.38285668E-17      0.11847298E-11      0.27732563E-24
    0.477283441625         0.92037747E-07      0.15873139E-04     -0.12796037E-16      0.11919965E-11     -0.96092093E-24
    0.480423464267         0.96009090E-07      0.15388117E-04     -0.32612088E-17      0.11975569E-11     -0.25379864E-24
    0.483563486909         0.10011135E-06      0.14999823E-04     -0.53172478E-17      0.12093124E-11     -0.42868595E-24
    0.486703509552         0.10434748E-06      0.14718344E-04     -0.12441714E-16      0.12288503E-11     -0.10387720E-23
    0.489843532194         0.10872047E-06      0.14195893E-04     -0.16945393E-17      0.12269849E-11     -0.14646307E-24
    0.492983554836         0.11323336E-06      0.13703954E-04      0.46678987E-18      0.12257739E-11      0.41752830E-25
    0.496123577478         0.11788918E-06      0.13332487E-04     -0.10370205E-16      0.12337234E-11     -0.95960827E-24
    0.499263600121         0.12269102E-06      0.12957174E-04      0.25734561E-17      0.12399830E-11      0.24627606E-24
    0.502403622763         0.12764201E-06      0.12606589E-04      0.27116808E-17      0.12472715E-11      0.26828844E-24
    0.505543645405         0.13274526E-06      0.12265646E-04     -0.10330009E-16      0.12542189E-11     -0.10562911E-23
    0.508683668048         0.13800397E-06      0.11940359E-04     -0.34282733E-17      0.12614897E-11     -0.36219444E-24
