
 # Omega; pulse ft; projected flux at t=    1000.2500000000000     
    0.000000000000         0.18717486E-09      0.00000000E+00      0.00000000E+00      0.89868041E-11      0.20679515E-23
    0.003140022642         0.20186436E-09      0.37627636E-03     -0.70871458E-17      0.94201183E-11     -0.17742744E-24
    0.006280045285         0.24594737E-09      0.64679376E-03     -0.37914248E-16      0.98643343E-11     -0.57823504E-24
    0.009420067927         0.31946741E-09      0.75718626E-03      0.17079510E-15      0.99999493E-11      0.22556436E-23
    0.012560090569         0.42249703E-09      0.77133425E-03      0.53901048E-16      0.10104063E-10      0.70607469E-24
    0.015700113211         0.55513782E-09      0.73983783E-03     -0.76303129E-16      0.10187253E-10     -0.10506618E-23
    0.018840135854         0.71752051E-09      0.69365803E-03      0.16777821E-15      0.10287699E-10      0.24883324E-23
    0.021980158496         0.90980495E-09      0.64463592E-03      0.56538158E-16      0.10390932E-10      0.91134260E-24
    0.025120181138         0.11321802E-08      0.59514477E-03     -0.77329073E-16      0.10445710E-10     -0.13572447E-23
    0.028260203780         0.13848647E-08      0.55048174E-03      0.12947086E-15      0.10505035E-10      0.24707376E-23
    0.031400226423         0.16681061E-08      0.51187522E-03     -0.25253606E-16      0.10589551E-10     -0.52244049E-24
    0.034540249065         0.19821816E-08      0.47729720E-03     -0.62775382E-16      0.10666683E-10     -0.14029102E-23
    0.037680271707         0.23273981E-08      0.44695776E-03      0.87438933E-16      0.10750921E-10      0.21032168E-23
    0.040820294349         0.27040919E-08      0.41986621E-03     -0.60865743E-17      0.10831255E-10     -0.15701487E-24
    0.043960316992         0.31126296E-08      0.39597391E-03      0.15398813E-16      0.10918318E-10      0.42459649E-24
    0.047100339634         0.35534072E-08      0.37454642E-03      0.89237395E-16      0.11003963E-10      0.26217445E-23
    0.050240362276         0.40268513E-08      0.35525980E-03      0.42477240E-16      0.11088721E-10      0.13258417E-23
    0.053380384919         0.45334185E-08      0.33785808E-03     -0.18714094E-16      0.11173802E-10     -0.61892133E-24
    0.056520407561         0.50735959E-08      0.32218419E-03      0.95795294E-16      0.11262566E-10      0.33487082E-23
    0.059660430203         0.56479014E-08      0.30799148E-03      0.49598622E-16      0.11354342E-10      0.18284912E-23
    0.062800452845         0.62568834E-08      0.29462945E-03      0.22614519E-16      0.11431257E-10      0.87741527E-24
    0.065940475488         0.69011217E-08      0.28232391E-03      0.74492122E-16      0.11506356E-10      0.30359911E-23
    0.069080498130         0.75812269E-08      0.27162824E-03      0.24751374E-16      0.11608644E-10      0.10578057E-23
    0.072220520772         0.82978416E-08      0.26162112E-03     -0.99646770E-17      0.11705767E-10     -0.44585156E-24
    0.075360543414         0.90516395E-08      0.25231348E-03      0.83069137E-16      0.11801745E-10      0.38854871E-23
    0.078500566057         0.98433265E-08      0.24366523E-03      0.21993639E-16      0.11898308E-10      0.10739615E-23
    0.081640588699         0.10673641E-07      0.23562841E-03     -0.43358205E-16      0.11996558E-10     -0.22074979E-23
    0.084780611341         0.11543353E-07      0.22813143E-03      0.34303504E-16      0.12096037E-10      0.18188482E-23
    0.087920633984         0.12453265E-07      0.22111803E-03     -0.11148405E-16      0.12196610E-10     -0.61493285E-24
    0.091060656626         0.13404215E-07      0.21456263E-03     -0.38875823E-16      0.12299494E-10     -0.22285005E-23
    0.094200679268         0.14397070E-07      0.20837873E-03      0.33350865E-16      0.12402122E-10      0.19849507E-23
    0.097340701910         0.15432734E-07      0.20258529E-03      0.86744705E-17      0.12507741E-10      0.53556713E-24
    0.100480724553         0.16512144E-07      0.19710047E-03     -0.21766513E-16      0.12613363E-10     -0.13929390E-23
    0.103620747195         0.17636269E-07      0.19194926E-03      0.56439209E-16      0.12722398E-10      0.37407910E-23
    0.106760769837         0.18806114E-07      0.18704731E-03      0.23124730E-16      0.12831026E-10      0.15863046E-23
    0.109900792479         0.20022721E-07      0.18243729E-03      0.36490820E-17      0.12943699E-10      0.25889784E-24
    0.113040815122         0.21287162E-07      0.17802635E-03      0.35602748E-16      0.13055374E-10      0.26108898E-23
    0.116180837764         0.22600547E-07      0.17387501E-03      0.65846146E-18      0.13171771E-10      0.49881253E-25
    0.119320860406         0.23964023E-07      0.16988323E-03     -0.61867322E-17      0.13286678E-10     -0.48386835E-24
    0.122460883048         0.25378770E-07      0.16612549E-03      0.41431086E-16      0.13407012E-10      0.33436595E-23
    0.125600905691         0.26846007E-07      0.16249219E-03      0.27889447E-16      0.13525146E-10      0.23213968E-23
    0.128740928333         0.28366986E-07      0.15907264E-03      0.82091420E-17      0.13649433E-10      0.70439599E-24
    0.131880950975         0.29943001E-07      0.15575073E-03      0.42094945E-17      0.13771012E-10      0.37219089E-24
    0.135020973618         0.31575378E-07      0.15262563E-03     -0.14145658E-16      0.13899441E-10     -0.12882288E-23
    0.138160996260         0.33265483E-07      0.14957425E-03     -0.49481869E-16      0.14024512E-10     -0.46395624E-23
    0.141301018902         0.35014721E-07      0.14670462E-03      0.49151868E-16      0.14157016E-10      0.47431619E-23
    0.144441041544         0.36824533E-07      0.14389649E-03      0.25857415E-16      0.14286287E-10      0.25671680E-23
    0.147581064187         0.38696400E-07      0.14125858E-03     -0.46398713E-17      0.14423721E-10     -0.47377093E-24
    0.150721086829         0.40631842E-07      0.13865600E-03      0.16989650E-16      0.14556391E-10      0.17836082E-23
    0.153861109471         0.42632417E-07      0.13621399E-03     -0.11592523E-16      0.14697902E-10     -0.12508683E-23
    0.157001132113         0.44699723E-07      0.13380123E-03     -0.66591990E-17      0.14834902E-10     -0.73832332E-24
    0.160141154756         0.46835399E-07      0.13153837E-03      0.10959868E-16      0.14981189E-10      0.12482430E-23
    0.163281177398         0.49041122E-07      0.12929287E-03      0.10699786E-16      0.15122423E-10      0.12514742E-23
    0.166421200040         0.51318613E-07      0.12718646E-03     -0.11956972E-17      0.15273188E-10     -0.14358531E-24
    0.169561222683         0.53669630E-07      0.12509460E-03      0.10066234E-16      0.15419247E-10      0.12407709E-23
    0.172701245325         0.56095974E-07      0.12313036E-03     -0.85558938E-17      0.15574851E-10     -0.10822414E-23
    0.175841267967         0.58599489E-07      0.12117060E-03      0.25800574E-17      0.15725078E-10      0.33483043E-24
    0.178981290609         0.61182058E-07      0.11932209E-03      0.27534554E-16      0.15883998E-10      0.36653633E-23
    0.182121313252         0.63845608E-07      0.11750429E-03      0.42366308E-17      0.16041557E-10      0.57838019E-24
    0.185261335894         0.66592107E-07      0.11577185E-03     -0.12792535E-16      0.16205539E-10     -0.17906764E-23
    0.188401358536         0.69423567E-07      0.11409920E-03      0.90336308E-17      0.16372991E-10      0.12963067E-23
    0.191541381178         0.72342043E-07      0.11249026E-03     -0.18000824E-17      0.16544956E-10     -0.26475434E-24
    0.194681403821         0.75349631E-07      0.11095537E-03     -0.91325230E-17      0.16723513E-10     -0.13764802E-23
    0.197821426463         0.78448474E-07      0.10947768E-03      0.62677853E-17      0.16906717E-10      0.96793864E-24
    0.200961449105         0.81640757E-07      0.10804487E-03      0.68803788E-18      0.17093105E-10      0.10885018E-24
    0.204101471747         0.84928709E-07      0.10668112E-03     -0.13174239E-16      0.17286954E-10     -0.21347964E-23
    0.207241494390         0.88314602E-07      0.10531976E-03      0.21175626E-16      0.17477858E-10      0.35141040E-23
    0.210381517032         0.91800755E-07      0.10404746E-03      0.16528897E-16      0.17680424E-10      0.28086982E-23
    0.213521539674         0.95389531E-07      0.10274778E-03      0.10458843E-16      0.17875328E-10      0.18195550E-23
    0.216661562317         0.99083337E-07      0.10154598E-03      0.96568337E-17      0.18084397E-10      0.17197925E-23
    0.219801584959         0.10288463E-06      0.10031313E-03      0.36471869E-17      0.18285212E-10      0.66481411E-24
    0.222941607601         0.10679590E-06      0.99176375E-04     -0.47243184E-17      0.18500958E-10     -0.88130278E-24
    0.226081630243         0.11081969E-06      0.98012183E-04      0.10033622E-16      0.18709159E-10      0.19152785E-23
    0.229221652886         0.11495860E-06      0.96938623E-04      0.58732754E-17      0.18932380E-10      0.11470669E-23
    0.232361675528         0.11921526E-06      0.95840628E-04     -0.64405993E-17      0.19148711E-10     -0.12868152E-23
    0.235501698170         0.12359235E-06      0.94827400E-04      0.60375610E-17      0.19380007E-10      0.12339047E-23
    0.238641720812         0.12809259E-06      0.93793369E-04      0.72692399E-17      0.19605247E-10      0.15194597E-23
    0.241781743455         0.13271877E-06      0.92838086E-04     -0.99234739E-17      0.19845295E-10     -0.21212659E-23
    0.244921766097         0.13747370E-06      0.91866038E-04      0.15419915E-16      0.20080280E-10      0.33705187E-23
    0.248061788739         0.14236024E-06      0.90966612E-04      0.44295777E-17      0.20329814E-10      0.98995102E-24
    0.251201811381         0.14738131E-06      0.90054529E-04     -0.13447502E-16      0.20575375E-10     -0.30724428E-23
    0.254341834024         0.15253987E-06      0.89208862E-04      0.13454323E-17      0.20835126E-10      0.31423170E-24
    0.257481856666         0.15783893E-06      0.88354915E-04     -0.62144298E-17      0.21092145E-10     -0.14835129E-23
    0.260621879308         0.16328153E-06      0.87561074E-04     -0.77989254E-17      0.21362880E-10     -0.19027577E-23
    0.263761901951         0.16887077E-06      0.86763818E-04      0.87980257E-17      0.21632346E-10      0.21935634E-23
    0.266901924593         0.17460981E-06      0.86020338E-04      0.68503883E-17      0.21914957E-10      0.17452380E-23
    0.270041947235         0.18050182E-06      0.85277910E-04     -0.25230046E-17      0.22197775E-10     -0.65673617E-24
    0.273181969877         0.18655005E-06      0.84583069E-04      0.90703557E-17      0.22493100E-10      0.24120716E-23
    0.276321992520         0.19275778E-06      0.83894587E-04      0.44410597E-17      0.22790452E-10      0.12064397E-23
    0.279462015162         0.19912834E-06      0.83247248E-04     -0.39038789E-17      0.23099507E-10     -0.10832512E-23
    0.282602037804         0.20566511E-06      0.82611401E-04      0.12465843E-16      0.23412504E-10      0.35328852E-23
    0.285742060446         0.21237151E-06      0.82010339E-04      0.28174881E-17      0.23736311E-10      0.81546761E-24
    0.288882083089         0.21925100E-06      0.81426180E-04     -0.82840519E-17      0.24066203E-10     -0.24484223E-23
    0.292022105731         0.22630710E-06      0.80870369E-04      0.14866245E-16      0.24405877E-10      0.44864855E-23
    0.295162128373         0.23354337E-06      0.80337191E-04      0.12628378E-16      0.24754040E-10      0.38911416E-23
    0.298302151016         0.24096340E-06      0.79825701E-04     -0.43834561E-17      0.25110768E-10     -0.13789036E-23
    0.301442173658         0.24857086E-06      0.79343112E-04      0.13488338E-16      0.25478742E-10      0.43313891E-23
    0.304582196300         0.25636942E-06      0.78875266E-04      0.10843483E-17      0.25853842E-10      0.35542917E-24
    0.307722218942         0.26436283E-06      0.78442991E-04     -0.40202267E-17      0.26243287E-10     -0.13449763E-23
    0.310862241585         0.27255487E-06      0.78018547E-04      0.80013907E-17      0.26638292E-10      0.27319578E-23
    0.314002264227         0.28094936E-06      0.77636191E-04      0.57889677E-17      0.27050919E-10      0.20170605E-23
    0.317142286869         0.28955016E-06      0.77255478E-04     -0.15903995E-19      0.27467649E-10     -0.56545550E-26
    0.320282309511         0.29836118E-06      0.76923533E-04      0.42998247E-17      0.27905586E-10      0.15598494E-23
    0.323422332154         0.30738639E-06      0.76585650E-04      0.35575485E-18      0.28345529E-10      0.13167035E-24
    0.326562354796         0.31662976E-06      0.76305819E-04     -0.60395296E-17      0.28811496E-10     -0.22804012E-23
    0.329702377438         0.32609534E-06      0.76010635E-04      0.99264016E-17      0.29276517E-10      0.38232870E-23
    0.332842400080         0.33578719E-06      0.75784180E-04      0.43466768E-17      0.29773273E-10      0.17076756E-23
    0.335982422723         0.34570944E-06      0.75532169E-04     -0.19091196E-17      0.30265593E-10     -0.76498051E-24
    0.339122445365         0.35586624E-06      0.75360957E-04     -0.28662601E-18      0.30796347E-10     -0.11713007E-24
    0.342262468007         0.36626178E-06      0.75152680E-04      0.21555114E-17      0.31318383E-10      0.89826645E-24
    0.345402490650         0.37690029E-06      0.75039361E-04     -0.36859942E-17      0.31886928E-10     -0.15663117E-23
    0.348542513292         0.38778604E-06      0.74875495E-04     -0.23342414E-17      0.32441331E-10     -0.10113575E-23
    0.351682535934         0.39892335E-06      0.74823606E-04     -0.19950967E-17      0.33052159E-10     -0.88130278E-24
    0.354822558576         0.41031655E-06      0.74705022E-04     -0.65491037E-17      0.33641872E-10     -0.29492543E-23
    0.357962581219         0.42197002E-06      0.74719169E-04      0.52121743E-17      0.34300350E-10      0.23926845E-23
    0.361102603861         0.43388818E-06      0.74646914E-04      0.41415308E-17      0.34928634E-10      0.19378968E-23
    0.364242626503         0.44607547E-06      0.74732920E-04     -0.48086776E-17      0.35641180E-10     -0.22933259E-23
    0.367382649145         0.45853638E-06      0.74708292E-04      0.61775356E-17      0.36311694E-10      0.30025687E-23
    0.370522671788         0.47127541E-06      0.74873699E-04     -0.36351968E-17      0.37086156E-10     -0.18005719E-23
    0.373662694430         0.48429711E-06      0.74898034E-04     -0.13235831E-17      0.37802898E-10     -0.66804528E-24
    0.376802717072         0.49760605E-06      0.75152554E-04     -0.46981040E-17      0.38648969E-10     -0.24161106E-23
    0.379942739715         0.51120685E-06      0.75227269E-04      0.11655237E-17      0.39416346E-10      0.61069194E-24
    0.383082762357         0.52510413E-06      0.75583472E-04     -0.35925741E-17      0.40346160E-10     -0.19177019E-23
    0.386222784999         0.53930256E-06      0.75709954E-04     -0.32889773E-17      0.41168981E-10     -0.17884550E-23
    0.389362807641         0.55380682E-06      0.76184206E-04     -0.51539543E-17      0.42197947E-10     -0.28547425E-23
    0.392502830284         0.56862162E-06      0.76363773E-04     -0.58763090E-17      0.43081468E-10     -0.33151848E-23
    0.395642852926         0.58375171E-06      0.76977453E-04      0.61831280E-17      0.44229387E-10      0.35526761E-23
    0.398782875568         0.59920184E-06      0.77211525E-04      0.39537957E-17      0.45179489E-10      0.23135208E-23
    0.401922898210         0.61497679E-06      0.77992501E-04     -0.20118508E-17      0.46472001E-10     -0.11987657E-23
    0.405062920853         0.63108138E-06      0.78282243E-04      0.27933185E-17      0.47495086E-10      0.16947509E-23
    0.408202943495         0.64752043E-06      0.79268743E-04      0.40119532E-17      0.48966815E-10      0.24783107E-23
    0.411342966137         0.66429877E-06      0.79613347E-04      0.17982353E-18      0.50068871E-10      0.11309110E-24
    0.414482988779         0.68142128E-06      0.80859523E-04      0.18875587E-17      0.51768156E-10      0.12084592E-23
    0.417623011422         0.69889282E-06      0.81255341E-04      0.49878073E-17      0.52954225E-10      0.32505613E-23
    0.420763034064         0.71671828E-06      0.82838186E-04     -0.35607732E-17      0.54949536E-10     -0.23619884E-23
    0.423903056706         0.73490258E-06      0.83277565E-04      0.45443271E-17      0.56222970E-10      0.30680000E-23
    0.427043079349         0.75345064E-06      0.85308777E-04      0.41243386E-17      0.58613732E-10      0.28337398E-23
    0.430183101991         0.77236737E-06      0.85776249E-04     -0.15319719E-17      0.59973606E-10     -0.10711343E-23
    0.433323124633         0.79165771E-06      0.88426971E-04      0.33630809E-17      0.62911910E-10      0.23926845E-23
    0.436463147275         0.81132662E-06      0.88894182E-04     -0.22608364E-17      0.64349329E-10     -0.16365898E-23
    0.439603169918         0.83137904E-06      0.92434917E-04     -0.66928609E-17      0.68076442E-10     -0.49291563E-23
    0.442743192560         0.85181993E-06      0.92848904E-04     -0.11859725E-17      0.69565711E-10     -0.88857292E-24
    0.445883215202         0.87265424E-06      0.97731904E-04     -0.47058679E-18      0.74486915E-10     -0.35866034E-24
    0.449023237844         0.89388696E-06      0.97990985E-04     -0.31801572E-17      0.75966558E-10     -0.24653860E-23
    0.452163260487         0.91552302E-06      0.10502955E-03      0.31554010E-18      0.82814818E-10      0.24880042E-24
    0.455303283129         0.93756741E-06      0.10493074E-03     -0.11564264E-17      0.84144747E-10     -0.92734701E-24
    0.458443305771         0.96002506E-06      0.11573120E-03     -0.73697685E-17      0.94377816E-10     -0.60099841E-23
    0.461583328413         0.98290095E-06      0.11484154E-03      0.14222340E-17      0.95231625E-10      0.11793786E-23
    0.464723351056         0.10062000E-05      0.13304010E-03     -0.80092952E-18      0.11217470E-09     -0.67531542E-24
    0.467863373698         0.10299272E-05      0.13030061E-03     -0.37503642E-17      0.11170084E-09     -0.32150184E-23
    0.471003396340         0.10540874E-05      0.16610548E-03      0.17351263E-17      0.14476351E-09      0.15121896E-23
    0.474143418983         0.10786856E-05      0.15827337E-03     -0.56165988E-18      0.14022180E-09     -0.49760084E-24
    0.477283441625         0.11037267E-05      0.25442201E-03     -0.31430897E-17      0.22911968E-09     -0.28305087E-23
    0.480423464267         0.11292155E-05      0.22464185E-03     -0.84722050E-19      0.20562023E-09     -0.77548182E-25
    0.483563486909         0.11551570E-05      0.94594736E-03     -0.46126277E-17      0.87998855E-09     -0.42909994E-23
    0.486703509552         0.11815559E-05      0.13213783E-02     -0.61247171E-17      0.12492217E-08     -0.57902643E-23
    0.489843532194         0.12084172E-05      0.79649112E-04      0.53074426E-17      0.76517895E-10      0.50987930E-23
    0.492983554836         0.12357457E-05     -0.16774347E-03      0.33895428E-17     -0.16374379E-09      0.33087225E-23
    0.496123577478         0.12635461E-05     -0.17036289E-04      0.18374508E-17     -0.16896578E-10      0.18223823E-23
    0.499263600121         0.12918231E-05     -0.33213708E-04      0.36508813E-17     -0.33466714E-10      0.36786919E-23
    0.502403622763         0.13205817E-05      0.38696873E-05      0.27184607E-17      0.39610554E-11      0.27826469E-23
    0.505543645405         0.13498263E-05      0.71237116E-05      0.15246434E-18      0.74070982E-11      0.15852949E-24
    0.508683668048         0.13795618E-05      0.15226359E-04     -0.23305420E-17      0.16080960E-10     -0.24613470E-23
