 
 # eight columns.
 # Omega (column 1); |pulse ft|^2 (2); cross section (Mb) (3); flux (5); flux in
 tegral domega (7)
 
  0.0000      0.642850E-11      0.000000E+00      0.000000E+00      0.000000E+00      0.000000E+00      0.000000E+00      0.000000E+00
  0.0031      0.212452E-10     -0.177184E-01     -0.201065E-09     -0.743009E-11     -0.843154E-19     -0.233306E-13     -0.264752E-21
  0.0063      0.657097E-10     -0.945882E-02     -0.476816E-10     -0.613404E-11     -0.309215E-19     -0.425917E-13     -0.361846E-21
  0.0094      0.139866E-09     -0.440205E-02     -0.293563E-11     -0.405093E-11     -0.270148E-20     -0.553117E-13     -0.370329E-21
  0.0126      0.243786E-09     -0.301693E-02     -0.930000E-11     -0.362931E-11     -0.111877E-19     -0.667078E-13     -0.405459E-21
  0.0157      0.377573E-09     -0.215221E-02     -0.119190E-10     -0.320793E-11     -0.177657E-19     -0.767807E-13     -0.461243E-21
  0.0188      0.541356E-09     -0.172267E-02     -0.711940E-12     -0.306791E-11     -0.126790E-20     -0.864140E-13     -0.465225E-21
  0.0220      0.735298E-09     -0.141205E-02     -0.500583E-11     -0.292769E-11     -0.103789E-19     -0.956071E-13     -0.497815E-21
  0.0251      0.959587E-09     -0.116945E-02     -0.508171E-11     -0.276876E-11     -0.120313E-19     -0.104301E-12     -0.535593E-21
  0.0283      0.121444E-08     -0.980207E-03      0.313481E-12     -0.261073E-11      0.834940E-21     -0.112499E-12     -0.532972E-21
  0.0314      0.150011E-08     -0.861508E-03     -0.597026E-12     -0.255090E-11     -0.176777E-20     -0.120509E-12     -0.538522E-21
  0.0345      0.181688E-08     -0.764149E-03     -0.189857E-11     -0.249127E-11     -0.618968E-20     -0.128331E-12     -0.557958E-21
  0.0377      0.216504E-08     -0.687179E-03      0.311142E-13     -0.244717E-11      0.110804E-21     -0.136015E-12     -0.557610E-21
  0.0408      0.254494E-08     -0.622019E-03     -0.244032E-11     -0.240352E-11     -0.942955E-20     -0.143563E-12     -0.587219E-21
  0.0440      0.295695E-08     -0.570232E-03     -0.240992E-11     -0.237726E-11     -0.100468E-19     -0.151027E-12     -0.618767E-21
  0.0471      0.340146E-08     -0.525288E-03      0.241741E-12     -0.235116E-11      0.108202E-20     -0.158410E-12     -0.615369E-21
  0.0502      0.387890E-08     -0.484743E-03     -0.697226E-12     -0.231959E-11     -0.333636E-20     -0.165693E-12     -0.625845E-21
  0.0534      0.438974E-08     -0.449008E-03     -0.968402E-12     -0.228851E-11     -0.493577E-20     -0.172879E-12     -0.641344E-21
  0.0565      0.493445E-08     -0.417872E-03     -0.384486E-12     -0.226110E-11     -0.208045E-20     -0.179979E-12     -0.647876E-21
  0.0597      0.551355E-08     -0.390294E-03     -0.327421E-13     -0.223552E-11     -0.187540E-21     -0.186999E-12     -0.648465E-21
  0.0628      0.612761E-08     -0.372221E-03     -0.536441E-12     -0.225098E-11     -0.324409E-20     -0.194067E-12     -0.658652E-21
  0.0659      0.677720E-08     -0.355126E-03     -0.560631E-12     -0.226216E-11     -0.357123E-20     -0.201170E-12     -0.669865E-21
  0.0691      0.746292E-08     -0.332066E-03     -0.131192E-11     -0.222341E-11     -0.878420E-20     -0.208152E-12     -0.697448E-21
  0.0722      0.818544E-08     -0.311412E-03     -0.700155E-12     -0.218755E-11     -0.491834E-20     -0.215021E-12     -0.712892E-21
  0.0754      0.894542E-08     -0.294890E-03     -0.284961E-12     -0.216950E-11     -0.209645E-20     -0.221833E-12     -0.719475E-21
  0.0785      0.974356E-08     -0.279614E-03     -0.529105E-12     -0.215103E-11     -0.407033E-20     -0.228587E-12     -0.732256E-21
  0.0816      0.105806E-07     -0.265602E-03     -0.738203E-12     -0.213343E-11     -0.592958E-20     -0.235286E-12     -0.750875E-21
  0.0848      0.114574E-07     -0.252554E-03      0.381102E-13     -0.211536E-11      0.319207E-21     -0.241929E-12     -0.749872E-21
  0.0879      0.123746E-07     -0.240508E-03     -0.266461E-12     -0.209803E-11     -0.232444E-20     -0.248517E-12     -0.757171E-21
  0.0911      0.133332E-07     -0.229282E-03     -0.891973E-13     -0.208073E-11     -0.809464E-21     -0.255050E-12     -0.759713E-21
  0.0942      0.143340E-07     -0.219001E-03      0.149738E-13     -0.206539E-11      0.141217E-21     -0.261536E-12     -0.759269E-21
  0.0973      0.153778E-07     -0.209293E-03     -0.574310E-13     -0.204927E-11     -0.562328E-21     -0.267970E-12     -0.761035E-21
  0.1005      0.164658E-07     -0.200160E-03     -0.995034E-13     -0.203292E-11     -0.101060E-20     -0.274354E-12     -0.764208E-21
  0.1036      0.175987E-07     -0.191485E-03     -0.748627E-13     -0.201564E-11     -0.788029E-21     -0.280683E-12     -0.766683E-21
  0.1068      0.187777E-07     -0.183306E-03     -0.474918E-13     -0.199825E-11     -0.517716E-21     -0.286957E-12     -0.768308E-21
  0.1099      0.200038E-07     -0.175488E-03     -0.560021E-13     -0.197971E-11     -0.631768E-21     -0.293174E-12     -0.770292E-21
  0.1130      0.212780E-07     -0.168107E-03      0.147619E-12     -0.196121E-11      0.172218E-20     -0.299332E-12     -0.764885E-21
  0.1162      0.226014E-07     -0.161003E-03     -0.186350E-12     -0.194123E-11     -0.224685E-20     -0.305427E-12     -0.771940E-21
  0.1193      0.239753E-07     -0.154305E-03     -0.187212E-12     -0.192164E-11     -0.233144E-20     -0.311461E-12     -0.779261E-21
  0.1225      0.254008E-07     -0.147809E-03      0.631758E-13     -0.190018E-11      0.812165E-21     -0.317428E-12     -0.776710E-21
  0.1256      0.268792E-07     -0.141654E-03      0.731735E-13     -0.187885E-11      0.970554E-21     -0.323328E-12     -0.773663E-21
  0.1287      0.284116E-07     -0.135635E-03     -0.715432E-13     -0.185521E-11     -0.978566E-21     -0.329153E-12     -0.776735E-21
  0.1319      0.299994E-07     -0.129938E-03     -0.120812E-12     -0.183194E-11     -0.170326E-20     -0.334905E-12     -0.782084E-21
  0.1350      0.316439E-07     -0.124318E-03     -0.254763E-12     -0.180578E-11     -0.370057E-20     -0.340576E-12     -0.793704E-21
  0.1382      0.333465E-07     -0.118969E-03     -0.270440E-12     -0.177967E-11     -0.404556E-20     -0.346164E-12     -0.806407E-21
  0.1413      0.351086E-07     -0.113650E-03     -0.370236E-13     -0.175017E-11     -0.570150E-21     -0.351659E-12     -0.808197E-21
  0.1444      0.369316E-07     -0.108691E-03     -0.562595E-13     -0.172244E-11     -0.891551E-21     -0.357068E-12     -0.810997E-21
  0.1476      0.388171E-07     -0.103701E-03     -0.151403E-12     -0.169052E-11     -0.246814E-20     -0.362376E-12     -0.818747E-21
  0.1507      0.407666E-07     -0.989357E-04     -0.677182E-13     -0.165854E-11     -0.113521E-20     -0.367584E-12     -0.822311E-21
  0.1539      0.427815E-07     -0.941074E-04     -0.763347E-13     -0.162179E-11     -0.131550E-20     -0.372676E-12     -0.826442E-21
  0.1570      0.448636E-07     -0.895314E-04     -0.272843E-13     -0.158566E-11     -0.483223E-21     -0.377655E-12     -0.827959E-21
  0.1601      0.470145E-07     -0.848576E-04     -0.501396E-14     -0.154405E-11     -0.912331E-22     -0.382504E-12     -0.828246E-21
  0.1633      0.492358E-07     -0.804021E-04     -0.371887E-13     -0.150264E-11     -0.695023E-21     -0.387222E-12     -0.830428E-21
  0.1664      0.515293E-07     -0.758047E-04      0.456989E-13     -0.145474E-11      0.876989E-21     -0.391790E-12     -0.827674E-21
  0.1696      0.538968E-07     -0.715117E-04     -0.346879E-13     -0.140882E-11     -0.683372E-21     -0.396214E-12     -0.829820E-21
  0.1727      0.563400E-07     -0.670342E-04     -0.460262E-13     -0.135538E-11     -0.930613E-21     -0.400470E-12     -0.832742E-21
  0.1758      0.588609E-07     -0.628225E-04     -0.653439E-13     -0.130336E-11     -0.135567E-20     -0.404562E-12     -0.836999E-21
  0.1790      0.614613E-07     -0.583903E-04     -0.953185E-16     -0.124273E-11     -0.202868E-23     -0.408464E-12     -0.837005E-21
  0.1821      0.641431E-07     -0.541617E-04     -0.260817E-13     -0.118229E-11     -0.569335E-21     -0.412177E-12     -0.838793E-21
  0.1853      0.669083E-07     -0.496726E-04     -0.266958E-13     -0.111187E-11     -0.597558E-21     -0.415668E-12     -0.840669E-21
  0.1884      0.697590E-07     -0.452422E-04     -0.110097E-13     -0.103825E-11     -0.252659E-21     -0.418928E-12     -0.841463E-21
  0.1915      0.726972E-07     -0.404713E-04     -0.410734E-13     -0.952019E-12     -0.966181E-21     -0.421918E-12     -0.844497E-21
  0.1947      0.757251E-07     -0.363638E-04     -0.992762E-13     -0.876651E-12     -0.239333E-20     -0.424670E-12     -0.852012E-21
  0.1978      0.788447E-07     -0.315887E-04      0.227798E-14     -0.780322E-12      0.562718E-22     -0.427121E-12     -0.851835E-21
  0.2010      0.820582E-07     -0.282389E-04      0.349986E-14     -0.714659E-12      0.885732E-22     -0.429365E-12     -0.851557E-21
  0.2041      0.853680E-07     -0.245245E-04     -0.459356E-13     -0.635758E-12     -0.119081E-20     -0.431361E-12     -0.855296E-21
  0.2072      0.887763E-07     -0.217424E-04      0.423522E-13     -0.577258E-12      0.112445E-20     -0.433174E-12     -0.851765E-21
  0.2104      0.922854E-07     -0.185464E-04      0.141240E-13     -0.504227E-12      0.383996E-21     -0.434757E-12     -0.850560E-21
  0.2135      0.958977E-07     -0.159215E-04      0.165824E-13     -0.443192E-12      0.461590E-21     -0.436148E-12     -0.849110E-21
  0.2167      0.996156E-07     -0.126424E-04     -0.336898E-13     -0.360261E-12     -0.960035E-21     -0.437280E-12     -0.852125E-21
  0.2198      0.103442E-06     -0.958677E-05     -0.316924E-13     -0.279627E-12     -0.924404E-21     -0.438158E-12     -0.855027E-21
  0.2229      0.107378E-06     -0.581690E-05     -0.521548E-13     -0.173644E-12     -0.155690E-20     -0.438703E-12     -0.859916E-21
  0.2261      0.111428E-06     -0.235353E-05     -0.315362E-13     -0.718937E-13     -0.963344E-21     -0.438929E-12     -0.862941E-21
  0.2292      0.115594E-06      0.188380E-05     -0.384404E-13      0.588785E-13     -0.120146E-20     -0.438744E-12     -0.866714E-21
  0.2324      0.119877E-06      0.553021E-05     -0.734237E-13      0.176831E-12     -0.234775E-20     -0.438189E-12     -0.874086E-21
  0.2355      0.124283E-06      0.100429E-04     -0.169856E-13      0.328486E-12     -0.555572E-21     -0.437157E-12     -0.875830E-21
  0.2386      0.128811E-06      0.138400E-04     -0.310583E-13      0.463006E-12     -0.103903E-20     -0.435703E-12     -0.879093E-21
  0.2418      0.133467E-06      0.186103E-04     -0.441711E-13      0.636717E-12     -0.151123E-20     -0.433704E-12     -0.883838E-21
  0.2449      0.138252E-06      0.225640E-04     -0.302084E-13      0.789411E-12     -0.105685E-20     -0.431225E-12     -0.887157E-21
  0.2481      0.143170E-06      0.276106E-04     -0.457706E-13      0.987664E-12     -0.163727E-20     -0.428124E-12     -0.892298E-21
  0.2512      0.148222E-06      0.317138E-04     -0.727022E-13      0.115980E-11     -0.265877E-20     -0.424482E-12     -0.900646E-21
  0.2543      0.153413E-06      0.370455E-04     -0.193531E-13      0.138492E-11     -0.723499E-21     -0.420134E-12     -0.902918E-21
  0.2575      0.158745E-06      0.413023E-04     -0.480802E-13      0.157824E-11     -0.183723E-20     -0.415178E-12     -0.908687E-21
  0.2606      0.164222E-06      0.469481E-04     -0.680340E-13      0.183350E-11     -0.265699E-20     -0.409421E-12     -0.917030E-21
  0.2638      0.169846E-06      0.513920E-04      0.208835E-13      0.205108E-11      0.833469E-21     -0.402980E-12     -0.914413E-21
  0.2669      0.175621E-06      0.573898E-04     -0.261865E-14      0.234047E-11     -0.106794E-21     -0.395631E-12     -0.914748E-21
  0.2700      0.181550E-06      0.619912E-04     -0.110030E-13      0.258307E-11     -0.458479E-21     -0.387520E-12     -0.916188E-21
  0.2732      0.187635E-06      0.683659E-04     -0.110647E-13      0.291035E-11     -0.471027E-21     -0.378382E-12     -0.917667E-21
  0.2763      0.193882E-06      0.732036E-04     -0.286458E-14      0.318344E-11     -0.124573E-21     -0.368385E-12     -0.918058E-21
  0.2795      0.200292E-06      0.800167E-04     -0.318569E-13      0.355438E-11     -0.141510E-20     -0.357225E-12     -0.922501E-21
  0.2826      0.206869E-06      0.851050E-04     -0.459961E-13      0.386116E-11     -0.208681E-20     -0.345101E-12     -0.929054E-21
  0.2857      0.213617E-06      0.924203E-04     -0.560312E-13      0.428224E-11     -0.259617E-20     -0.331654E-12     -0.937206E-21
  0.2889      0.220539E-06      0.977902E-04     -0.584577E-13      0.462702E-11     -0.276598E-20     -0.317125E-12     -0.945891E-21
  0.2920      0.227638E-06      0.105697E-03     -0.231927E-13      0.510662E-11     -0.112053E-20     -0.301090E-12     -0.949410E-21
  0.2952      0.234919E-06      0.111386E-03     -0.272120E-13      0.549455E-11     -0.134234E-20     -0.283837E-12     -0.953625E-21
  0.2983      0.242385E-06      0.119983E-03     -0.394577E-13      0.604241E-11     -0.198711E-20     -0.264864E-12     -0.959864E-21
  0.3014      0.250039E-06      0.126042E-03     -0.353520E-14      0.647977E-11     -0.181744E-21     -0.244517E-12     -0.960435E-21
  0.3046      0.257885E-06      0.135443E-03     -0.256411E-13      0.710759E-11     -0.134556E-20     -0.222199E-12     -0.964660E-21
  0.3077      0.265928E-06      0.141931E-03     -0.161943E-13      0.760197E-11     -0.867380E-21     -0.198329E-12     -0.967384E-21
  0.3109      0.274170E-06      0.152271E-03     -0.109913E-14      0.832359E-11     -0.600820E-22     -0.172193E-12     -0.967572E-21
  0.3140      0.282616E-06      0.159260E-03     -0.161522E-14      0.888412E-11     -0.901030E-22     -0.144296E-12     -0.967855E-21
  0.3171      0.291270E-06      0.170699E-03     -0.868914E-14      0.971660E-11     -0.494607E-21     -0.113786E-12     -0.969408E-21
  0.3203      0.300135E-06      0.178266E-03     -0.915734E-14      0.103537E-10     -0.531857E-21     -0.812754E-13     -0.971078E-21
  0.3234      0.309215E-06      0.191001E-03     -0.749765E-14      0.113180E-10     -0.444282E-21     -0.457367E-13     -0.972473E-21
  0.3266      0.318515E-06      0.199240E-03     -0.798717E-14      0.120443E-10     -0.482836E-21     -0.791722E-14     -0.973990E-21
  0.3297      0.328039E-06      0.213499E-03      0.680774E-14      0.131656E-10      0.419807E-21      0.334232E-13     -0.972671E-21
  0.3328      0.337790E-06      0.222522E-03      0.247321E-15      0.139966E-10      0.155565E-22      0.773730E-13     -0.972623E-21
  0.3360      0.347774E-06      0.238588E-03     -0.142157E-13      0.153063E-10     -0.911994E-21      0.125435E-12     -0.975486E-21
  0.3391      0.357993E-06      0.248522E-03     -0.859851E-14      0.162602E-10     -0.562580E-21      0.176493E-12     -0.977253E-21
  0.3423      0.368452E-06      0.266739E-03     -0.941963E-14      0.177972E-10     -0.628490E-21      0.232376E-12     -0.979226E-21
  0.3454      0.379156E-06      0.277737E-03     -0.205373E-13      0.188960E-10     -0.139726E-20      0.291710E-12     -0.983614E-21
  0.3485      0.390109E-06      0.298529E-03     -0.171181E-13      0.207090E-10     -0.118749E-20      0.356737E-12     -0.987342E-21
  0.3517      0.401315E-06      0.310773E-03     -0.248556E-13      0.219797E-10     -0.175793E-20      0.425753E-12     -0.992862E-21
  0.3548      0.412779E-06      0.334664E-03     -0.277034E-13      0.241301E-10     -0.199748E-20      0.501522E-12     -0.999134E-21
  0.3580      0.424505E-06      0.348372E-03     -0.147731E-13      0.256053E-10     -0.108582E-20      0.581924E-12     -0.100254E-20
  0.3611      0.436496E-06      0.376023E-03     -0.136141E-13      0.281713E-10     -0.101996E-20      0.670382E-12     -0.100575E-20
  0.3642      0.448759E-06      0.391461E-03     -0.185114E-13      0.298919E-10     -0.141353E-20      0.764243E-12     -0.101019E-20
  0.3674      0.461298E-06      0.423704E-03     -0.422341E-14      0.329737E-10     -0.328676E-21      0.867782E-12     -0.101122E-20
  0.3705      0.474116E-06      0.441195E-03     -0.572605E-14      0.349900E-10     -0.454117E-21      0.977651E-12     -0.101264E-20
  0.3737      0.487219E-06      0.479098E-03     -0.401267E-14      0.387179E-10     -0.324280E-21      0.109923E-11     -0.101366E-20
  0.3768      0.500611E-06      0.499044E-03     -0.748949E-14      0.410930E-10     -0.616710E-21      0.122826E-11     -0.101560E-20
  0.3799      0.514296E-06      0.543984E-03     -0.751910E-14      0.456377E-10     -0.630818E-21      0.137156E-11     -0.101758E-20
  0.3831      0.528281E-06      0.566889E-03     -0.219488E-14      0.484521E-10     -0.187597E-21      0.152370E-11     -0.101817E-20
  0.3862      0.542568E-06      0.620674E-03     -0.894143E-14      0.540409E-10     -0.778514E-21      0.169339E-11     -0.102061E-20
  0.3894      0.557164E-06      0.647165E-03     -0.101319E-13      0.573966E-10     -0.898589E-21      0.187362E-11     -0.102343E-20
  0.3925      0.572072E-06      0.712209E-03     -0.190408E-13      0.643365E-10     -0.172003E-20      0.207564E-11     -0.102883E-20
  0.3956      0.587297E-06      0.743083E-03     -0.190832E-14      0.683652E-10     -0.175570E-21      0.229031E-11     -0.102939E-20
  0.3988      0.602845E-06      0.822661E-03     -0.126392E-13      0.770784E-10     -0.118422E-20      0.253233E-11     -0.103310E-20
  0.4019      0.618720E-06      0.858933E-03     -0.138300E-13      0.819508E-10     -0.131952E-20      0.278966E-11     -0.103725E-20
  0.4051      0.634927E-06      0.957562E-03     -0.994867E-15      0.930274E-10     -0.966516E-22      0.308177E-11     -0.103755E-20
  0.4082      0.651471E-06      0.100056E-02     -0.728346E-14      0.989706E-10     -0.720442E-21      0.339254E-11     -0.103981E-20
  0.4113      0.668356E-06      0.112461E-02     -0.130221E-13      0.113252E-09     -0.131138E-20      0.374815E-11     -0.104393E-20
  0.4145      0.685588E-06      0.117605E-02     -0.142282E-14      0.120566E-09     -0.145864E-21      0.412674E-11     -0.104439E-20
  0.4176      0.703172E-06      0.133471E-02     -0.329644E-14      0.139286E-09     -0.344005E-21      0.456410E-11     -0.104547E-20
  0.4208      0.721112E-06      0.139697E-02     -0.106442E-13      0.148386E-09     -0.113063E-20      0.503003E-11     -0.104902E-20
  0.4239      0.739413E-06      0.160406E-02      0.201971E-14      0.173414E-09      0.218350E-21      0.557456E-11     -0.104833E-20
  0.4270      0.758081E-06      0.167999E-02      0.214820E-14      0.184839E-09      0.236353E-21      0.615495E-11     -0.104759E-20
  0.4302      0.777120E-06      0.195657E-02     -0.435651E-14      0.219066E-09     -0.487771E-21      0.684283E-11     -0.104912E-20
  0.4333      0.796536E-06      0.205023E-02     -0.528673E-14      0.233582E-09     -0.602315E-21      0.757628E-11     -0.105101E-20
  0.4365      0.816333E-06      0.243067E-02     -0.674186E-14      0.281766E-09     -0.781523E-21      0.846103E-11     -0.105347E-20
  0.4396      0.836516E-06      0.254693E-02     -0.747585E-14      0.300381E-09     -0.881692E-21      0.940423E-11     -0.105624E-20
  0.4427      0.857091E-06      0.308959E-02     -0.405527E-14      0.370697E-09     -0.486562E-21      0.105682E-10     -0.105777E-20
  0.4459      0.878062E-06      0.323376E-02     -0.211372E-14      0.394688E-09     -0.257984E-21      0.118076E-10     -0.105858E-20
  0.4490      0.899435E-06      0.404572E-02     -0.911230E-14      0.502272E-09     -0.113128E-20      0.133847E-10     -0.106213E-20
  0.4522      0.921214E-06      0.421987E-02     -0.454438E-15      0.532852E-09     -0.573829E-22      0.150579E-10     -0.106231E-20
  0.4553      0.943404E-06      0.551713E-02     -0.731972E-14      0.708521E-09     -0.940013E-21      0.172826E-10     -0.106526E-20
  0.4584      0.966011E-06      0.570386E-02     -0.908378E-14      0.744917E-09     -0.118633E-20      0.196217E-10     -0.106898E-20
