 
 # Omega; pulse ft; proj flux t=    1000.25000000000     
    0.000000000000         0.64285036E-11      0.00000000E+00      0.00000000E+00      0.00000000E+00      0.00000000E+00      0.00000000E+00      0.00000000E+00
    0.003140022642         0.21245158E-10      0.23500600E-05      0.57559809E-13      0.98548228E-15      0.24137329E-22      0.30944367E-17      0.75791760E-25
    0.006280045285         0.65709671E-10     -0.28175652E-05     -0.20481818E-13     -0.18271877E-14     -0.13282435E-22     -0.26429741E-17      0.34084614E-25
    0.009420067927         0.13986570E-09     -0.43162389E-05     -0.24619116E-14     -0.39719642E-14     -0.22655429E-23     -0.15115032E-16      0.26970757E-25
    0.012560090569         0.24378600E-09     -0.35146290E-05      0.43453557E-14     -0.42280310E-14      0.52273791E-23     -0.28391145E-16      0.43384846E-25
    0.015700113211         0.37757252E-09     -0.29875269E-05     -0.41662187E-14     -0.44529938E-14     -0.62098675E-23     -0.42373646E-16      0.23885722E-25
    0.018840135854         0.54135636E-09     -0.25251420E-05     -0.32426324E-14     -0.44970497E-14     -0.57748353E-23     -0.56494484E-16      0.57526081E-26
    0.021980158496         0.73529789E-09     -0.21958552E-05     -0.23866066E-14     -0.45528031E-14     -0.49482999E-23     -0.70790389E-16     -0.97851658E-26
    0.025120181138         0.95958676E-09     -0.19897231E-05     -0.29415854E-14     -0.47108232E-14     -0.69644307E-23     -0.85582480E-16     -0.31653636E-25
    0.028260203780         0.12144420E-08     -0.18278752E-05      0.91711575E-15     -0.48684500E-14      0.24426898E-23     -0.10086952E-15     -0.23983534E-25
    0.031400226423         0.15001122E-08     -0.16571233E-05      0.67650435E-15     -0.49066884E-14      0.20031074E-23     -0.11627664E-15     -0.17693732E-25
    0.034540249065         0.18168754E-08     -0.15274922E-05     -0.13959349E-14     -0.49799086E-14     -0.45510073E-23     -0.13191366E-15     -0.31983998E-25
    0.037680271707         0.21650394E-08     -0.14477385E-05      0.38930521E-15     -0.51556638E-14      0.13863876E-23     -0.14810256E-15     -0.27630709E-25
    0.040820294349         0.25449417E-08     -0.13759934E-05     -0.38899134E-15     -0.53169275E-14     -0.15030877E-23     -0.16479784E-15     -0.32350438E-25
    0.043960316992         0.29569499E-08     -0.13036598E-05      0.70219590E-15     -0.54348817E-14      0.29274138E-23     -0.18186349E-15     -0.23158293E-25
    0.047100339634         0.34014614E-08     -0.12405594E-05      0.18333546E-15     -0.55526683E-14      0.82059838E-24     -0.19929899E-15     -0.20581596E-25
    0.050240362276         0.38789041E-08     -0.12049704E-05     -0.12639442E-15     -0.57660092E-14     -0.60482098E-24     -0.21740439E-15     -0.22480747E-25
    0.053380384919         0.43897362E-08     -0.11790735E-05     -0.23788720E-15     -0.60095265E-14     -0.12124685E-23     -0.23627444E-15     -0.26287926E-25
    0.056520407561         0.49344463E-08     -0.12395774E-05      0.68912130E-16     -0.67073269E-14      0.37288206E-24     -0.25733560E-15     -0.25117068E-25
    0.059660430203         0.55135541E-08     -0.13807276E-05      0.23662425E-15     -0.79085330E-14      0.13553366E-23     -0.28216857E-15     -0.20861280E-25
    0.062800452845         0.61276098E-08     -0.73867629E-06     -0.34370788E-15     -0.44670947E-14     -0.20785500E-23     -0.29619535E-15     -0.27387974E-25
    0.065940475488         0.67771950E-08      0.60110799E-07     -0.47001242E-15      0.38290681E-15     -0.29939871E-23     -0.29499301E-15     -0.36789161E-25
    0.069080498130         0.74629227E-08     -0.16060635E-06     -0.32947735E-15     -0.10753723E-14     -0.22060824E-23     -0.29836971E-15     -0.43716310E-25
    0.072220520772         0.81854373E-08     -0.49296683E-06     -0.72917085E-15     -0.34629135E-14     -0.51221612E-23     -0.30924333E-15     -0.59800012E-25
    0.075360543414         0.89454151E-08     -0.51293257E-06      0.12579453E-15     -0.37736310E-14      0.92546694E-24     -0.32109262E-15     -0.56894025E-25
    0.078500566057         0.97435644E-08     -0.51552346E-06     -0.10777463E-15     -0.39658491E-14     -0.82909501E-24     -0.33354548E-15     -0.59497402E-25
    0.081640588699         0.10580626E-07     -0.48029750E-06     -0.18507833E-15     -0.38579646E-14     -0.14866320E-23     -0.34565957E-15     -0.64165460E-25
    0.084780611341         0.11457373E-07     -0.43501100E-06      0.11968223E-15     -0.36436060E-14      0.10024457E-23     -0.35710058E-15     -0.61017758E-25
    0.087920633984         0.12374611E-07     -0.41865767E-06      0.26323039E-16     -0.36520984E-14      0.22962514E-24     -0.36856825E-15     -0.60296730E-25
    0.091060656626         0.13333179E-07     -0.42487985E-06     -0.52195370E-16     -0.38557756E-14     -0.47367186E-24     -0.38067547E-15     -0.61784070E-25
    0.094200679268         0.14333950E-07     -0.42956349E-06     -0.73476953E-16     -0.40511833E-14     -0.69295601E-24     -0.39339628E-15     -0.63959968E-25
    0.097340701910         0.15377830E-07     -0.42978933E-06     -0.14563438E-15     -0.42082244E-14     -0.14259594E-23     -0.40661020E-15     -0.68437513E-25
    0.100480724553         0.16465758E-07     -0.42294246E-06     -0.87406676E-16     -0.42955912E-14     -0.88774097E-24     -0.42009845E-15     -0.71225039E-25
    0.103620747195         0.17598710E-07     -0.41465742E-06      0.36484168E-17     -0.43648189E-14      0.38404422E-25     -0.43380408E-15     -0.71104449E-25
    0.106760769837         0.18777693E-07     -0.40581274E-06     -0.28526803E-16     -0.44238347E-14     -0.31097560E-24     -0.44769502E-15     -0.72080919E-25
    0.109900792479         0.20003751E-07     -0.39809107E-06      0.68263390E-17     -0.44909243E-14      0.77008941E-25     -0.46179663E-15     -0.71839109E-25
    0.113040815122         0.21277963E-07     -0.39081067E-06      0.39937504E-16     -0.45593597E-14      0.46592752E-24     -0.47611312E-15     -0.70376086E-25
    0.116180837764         0.22601444E-07     -0.38494058E-06      0.33614649E-17     -0.46412829E-14      0.40529657E-25     -0.49068685E-15     -0.70248822E-25
    0.119320860406         0.23975342E-07     -0.37901876E-06     -0.10154134E-16     -0.47201067E-14     -0.12645442E-24     -0.50550810E-15     -0.70645892E-25
    0.122460883048         0.25400844E-07     -0.37380909E-06     -0.73206615E-16     -0.48055522E-14     -0.94111733E-24     -0.52059764E-15     -0.73601022E-25
    0.125600905691         0.26879174E-07     -0.36823701E-06     -0.61818748E-16     -0.48841978E-14     -0.81994745E-24     -0.53593413E-15     -0.76175675E-25
    0.128740928333         0.28411589E-07     -0.36284478E-06     -0.13610353E-15     -0.49629791E-14     -0.18616197E-23     -0.55151800E-15     -0.82021203E-25
    0.131880950975         0.29999386E-07     -0.35714452E-06      0.15181775E-16     -0.50352028E-14      0.21404029E-24     -0.56732865E-15     -0.81349112E-25
    0.135020973618         0.31643900E-07     -0.35145421E-06     -0.71532009E-16     -0.51050523E-14     -0.10390390E-23     -0.58335863E-15     -0.84611718E-25
    0.138160996260         0.33346502E-07     -0.34564716E-06     -0.78825743E-16     -0.51705947E-14     -0.11791677E-23     -0.59959441E-15     -0.88314331E-25
    0.141301018902         0.35108601E-07     -0.33987947E-06     -0.91837350E-16     -0.52340256E-14     -0.14142632E-23     -0.61602937E-15     -0.92755150E-25
    0.144441041544         0.36931646E-07     -0.33426931E-06     -0.79761551E-16     -0.52972105E-14     -0.12639920E-23     -0.63266273E-15     -0.96724113E-25
    0.147581064187         0.38817124E-07     -0.32879037E-06     -0.10052326E-15     -0.53598729E-14     -0.16387095E-23     -0.64949286E-15     -0.10186970E-24
    0.150721086829         0.40766561E-07     -0.32328988E-06      0.26673611E-16     -0.54195702E-14      0.44715135E-24     -0.66651043E-15     -0.10046563E-24
    0.153861109471         0.42781523E-07     -0.31811412E-06      0.20652431E-16     -0.54821764E-14      0.35591085E-24     -0.68372459E-15     -0.99348065E-25
    0.157001132113         0.44863615E-07     -0.31293012E-06      0.30482967E-16     -0.55421914E-14      0.53987273E-24     -0.70112719E-15     -0.97652852E-25
    0.160141154756         0.47014483E-07     -0.30796632E-06      0.16446185E-16     -0.56036965E-14      0.29925164E-24     -0.71872293E-15     -0.96713195E-25
    0.163281177398         0.49235812E-07     -0.30314494E-06      0.35968999E-16     -0.56654966E-14      0.67222708E-24     -0.73651271E-15     -0.94602387E-25
    0.166421200040         0.51529331E-07     -0.29861161E-06      0.20044604E-16     -0.57305356E-14      0.38466796E-24     -0.75450673E-15     -0.93394521E-25
    0.169561222683         0.53896806E-07     -0.29422648E-06     -0.32775435E-16     -0.57964343E-14     -0.64569531E-24     -0.77270766E-15     -0.95422019E-25
    0.172701245325         0.56340048E-07     -0.29007989E-06     -0.24770860E-16     -0.58651895E-14     -0.50084749E-24     -0.79112449E-15     -0.96994691E-25
    0.175841267967         0.58860908E-07     -0.28583546E-06      0.58962187E-17     -0.59301398E-14      0.12232702E-24     -0.80974526E-15     -0.96610582E-25
    0.178981290609         0.61461278E-07     -0.28180630E-06     -0.12341211E-16     -0.59977357E-14     -0.26266027E-24     -0.82857829E-15     -0.97435341E-25
    0.182121313252         0.64143096E-07     -0.27723289E-06     -0.22522320E-16     -0.60516886E-14     -0.49163744E-24     -0.84758073E-15     -0.98979093E-25
    0.185261335894         0.66908339E-07     -0.27314717E-06     -0.63491224E-17     -0.61141323E-14     -0.14211890E-24     -0.86677924E-15     -0.99425350E-25
    0.188401358536         0.69759030E-07     -0.26787761E-06     -0.14272775E-16     -0.61474570E-14     -0.32754239E-24     -0.88608239E-15     -0.10045384E-24
    0.191541381178         0.72697233E-07     -0.26336493E-06     -0.12418469E-16     -0.61952078E-14     -0.29212316E-24     -0.90553549E-15     -0.10137111E-24
    0.194681403821         0.75725056E-07     -0.25776116E-06     -0.21054712E-17     -0.62140577E-14     -0.50758306E-25     -0.92504777E-15     -0.10153050E-24
    0.197821426463         0.78844653E-07     -0.24996979E-06     -0.31360115E-16     -0.61748884E-14     -0.77467447E-24     -0.94443706E-15     -0.10396299E-24
    0.200961449105         0.82058219E-07     -0.24567344E-06      0.22235396E-16     -0.62174200E-14      0.56272586E-24     -0.96395990E-15     -0.10219602E-24
    0.204101471747         0.85367996E-07     -0.23847023E-06     -0.25408402E-16     -0.61819544E-14     -0.65867164E-24     -0.98337138E-15     -0.10426426E-24
    0.207241494390         0.88776268E-07     -0.23153323E-06      0.21274806E-16     -0.61471835E-14      0.56484391E-24     -0.10026737E-14     -0.10249064E-24
    0.210381517032         0.92285368E-07     -0.22610656E-06      0.32963665E-16     -0.61472532E-14      0.89619690E-24     -0.10219762E-14     -0.99676562E-25
    0.213521539674         0.95897669E-07     -0.21984011E-06      0.23865420E-16     -0.61195005E-14      0.66432119E-24     -0.10411916E-14     -0.97590579E-25
    0.216661562317         0.99615594E-07     -0.21411229E-06      0.25530241E-16     -0.61014034E-14      0.72751684E-24     -0.10603501E-14     -0.95306159E-25
    0.219801584959         0.10344161E-06     -0.20820887E-06      0.10087871E-16     -0.60730428E-14      0.29424334E-24     -0.10794196E-14     -0.94382228E-25
    0.222941607601         0.10737822E-06     -0.20228319E-06      0.18351802E-16     -0.60384788E-14      0.54783085E-24     -0.10983806E-14     -0.92662027E-25
    0.226081630243         0.11142800E-06     -0.19664101E-06      0.14317889E-16     -0.60068367E-14      0.43737174E-24     -0.11172422E-14     -0.91288670E-25
    0.229221652886         0.11559354E-06     -0.19135671E-06      0.24788809E-16     -0.59808691E-14      0.77477617E-24     -0.11360222E-14     -0.88855855E-25
    0.232361675528         0.11987749E-06     -0.18645212E-06      0.76034871E-17     -0.59618789E-14      0.24312446E-24     -0.11547427E-14     -0.88092439E-25
    0.235501698170         0.12428256E-06     -0.18219829E-06      0.52103938E-17     -0.59594081E-14      0.17042346E-24     -0.11734553E-14     -0.87557305E-25
    0.238641720812         0.12881148E-06     -0.17813496E-06     -0.37912706E-17     -0.59593656E-14     -0.12683399E-24     -0.11921679E-14     -0.87955567E-25
    0.241781743455         0.13346705E-06     -0.17458110E-06      0.45242185E-17     -0.59729715E-14      0.15478782E-24     -0.12109231E-14     -0.87469530E-25
    0.244921766097         0.13825210E-06     -0.17107649E-06      0.11763790E-16     -0.59851817E-14      0.41156107E-24     -0.12297167E-14     -0.86177219E-25
    0.248061788739         0.14316951E-06     -0.16794881E-06      0.10998018E-16     -0.60077282E-14      0.39341215E-24     -0.12485811E-14     -0.84941896E-25
    0.251201811381         0.14822222E-06     -0.16485497E-06     -0.50659683E-17     -0.60288610E-14     -0.18526598E-24     -0.12675119E-14     -0.85523635E-25
    0.254341834024         0.15341320E-06     -0.16209405E-06     -0.24951599E-17     -0.60597498E-14     -0.93279455E-25     -0.12865397E-14     -0.85816535E-25
    0.257481856666         0.15874548E-06     -0.15939061E-06      0.92158078E-17     -0.60906012E-14      0.35215254E-24     -0.13056643E-14     -0.84710768E-25
    0.260621879308         0.16422213E-06     -0.15695505E-06      0.13778619E-16     -0.61296940E-14      0.53810767E-24     -0.13249117E-14     -0.83021097E-25
    0.263761901951         0.16984627E-06     -0.15454248E-06      0.13795282E-16     -0.61678598E-14      0.55057590E-24     -0.13442789E-14     -0.81292277E-25
    0.266901924593         0.17562106E-06     -0.15235208E-06     -0.12786342E-18     -0.62132085E-14     -0.52145144E-26     -0.13637885E-14     -0.81308650E-25
    0.270041947235         0.18154971E-06     -0.15024938E-06      0.11511109E-16     -0.62606538E-14      0.47964969E-24     -0.13834471E-14     -0.79802539E-25
    0.273181969877         0.18763548E-06     -0.14825413E-06      0.86932766E-18     -0.63112067E-14      0.37007446E-25     -0.14032644E-14     -0.79686335E-25
    0.276321992520         0.19388169E-06     -0.14628727E-06     -0.12395729E-17     -0.63616615E-14     -0.53905872E-25     -0.14232402E-14     -0.79855601E-25
    0.279462015162         0.20029168E-06     -0.14440937E-06     -0.13543588E-17     -0.64147270E-14     -0.60161205E-25     -0.14433826E-14     -0.80044508E-25
    0.282602037804         0.20686884E-06     -0.14257467E-06      0.62105451E-17     -0.64685188E-14      0.28176834E-24     -0.14636939E-14     -0.79159749E-25
    0.285742060446         0.21361663E-06     -0.14079660E-06      0.47397477E-17     -0.65237265E-14      0.21961338E-24     -0.14841785E-14     -0.78470158E-25
    0.288882083089         0.22053854E-06     -0.13906921E-06      0.45102815E-17     -0.65801764E-14      0.21340776E-24     -0.15048404E-14     -0.77800053E-25
    0.292022105731         0.22763810E-06     -0.13738026E-06     -0.68716890E-17     -0.66373731E-14     -0.33199795E-24     -0.15256819E-14     -0.78842534E-25
    0.295162128373         0.23491890E-06     -0.13574959E-06     -0.19544665E-16     -0.66963560E-14     -0.96411365E-24     -0.15467086E-14     -0.81869873E-25
    0.298302151016         0.24238456E-06     -0.13414473E-06     -0.10075067E-16     -0.67556148E-14     -0.50738682E-24     -0.15679214E-14     -0.83463079E-25
    0.301442173658         0.25003877E-06     -0.13252700E-06      0.79347446E-17     -0.68131882E-14      0.40792373E-24     -0.15893150E-14     -0.82182189E-25
    0.304582196300         0.25788523E-06     -0.13093066E-06      0.27358776E-17     -0.68707790E-14      0.14356920E-24     -0.16108894E-14     -0.81731379E-25
    0.307722218942         0.26592771E-06     -0.12944444E-06      0.38976513E-17     -0.69331538E-14      0.20876149E-24     -0.16326596E-14     -0.81075863E-25
    0.310862241585         0.27417002E-06     -0.12797250E-06     -0.18907766E-17     -0.69953800E-14     -0.10335581E-24     -0.16546253E-14     -0.81400403E-25
    0.314002264227         0.28261602E-06     -0.12649629E-06     -0.21651549E-17     -0.70564205E-14     -0.12078017E-24     -0.16767826E-14     -0.81779655E-25
    0.317142286869         0.29126959E-06     -0.12508892E-06      0.79617403E-19     -0.71203691E-14      0.45320185E-26     -0.16991407E-14     -0.81765424E-25
    0.320282309511         0.30013468E-06     -0.12366682E-06      0.38887315E-17     -0.71825572E-14      0.22585716E-24     -0.17216941E-14     -0.81056228E-25
    0.323422332154         0.30921526E-06     -0.12227737E-06      0.33807340E-17     -0.72456891E-14      0.20032936E-24     -0.17444458E-14     -0.80427189E-25
    0.326562354796         0.31851537E-06     -0.12092283E-06      0.89317842E-17     -0.73099642E-14      0.53993959E-24     -0.17673992E-14     -0.78731767E-25
    0.329702377438         0.32803906E-06     -0.11957562E-06     -0.23632442E-17     -0.73737566E-14     -0.14573195E-24     -0.17905530E-14     -0.79189368E-25
    0.332842400080         0.33779045E-06     -0.11826583E-06     -0.11658469E-17     -0.74389338E-14     -0.73331894E-25     -0.18139114E-14     -0.79419632E-25
    0.335982422723         0.34777368E-06     -0.11696927E-06     -0.52050336E-17     -0.75040309E-14     -0.33392302E-24     -0.18374742E-14     -0.80468158E-25
    0.339122445365         0.35799293E-06     -0.11570576E-06      0.62443331E-17     -0.75703434E-14      0.40855136E-24     -0.18612453E-14     -0.79185297E-25
    0.342262468007         0.36845245E-06     -0.11446033E-06      0.44948570E-17     -0.76369484E-14      0.29990294E-24     -0.18852255E-14     -0.78243595E-25
    0.345402490650         0.37915648E-06     -0.11324708E-06      0.30329567E-17     -0.77048239E-14      0.20634878E-24     -0.19094188E-14     -0.77595656E-25
    0.348542513292         0.39010935E-06     -0.11205584E-06     -0.17178378E-17     -0.77733420E-14     -0.11916684E-24     -0.19338273E-14     -0.77969842E-25
    0.351682535934         0.40131538E-06     -0.11089674E-06     -0.47922033E-17     -0.78432573E-14     -0.33893226E-24     -0.19584553E-14     -0.79034097E-25
    0.354822558576         0.41277896E-06     -0.10976450E-06     -0.25672771E-17     -0.79142710E-14     -0.18510653E-24     -0.19833062E-14     -0.79615336E-25
    0.357962581219         0.42450450E-06     -0.10866499E-06     -0.26739209E-17     -0.79868768E-14     -0.19653319E-24     -0.20083852E-14     -0.80232454E-25
    0.361102603861         0.43649646E-06     -0.10759771E-06     -0.21249451E-17     -0.80611278E-14     -0.15919906E-24     -0.20336973E-14     -0.80732343E-25
    0.364242626503         0.44875932E-06     -0.10656564E-06      0.14483677E-17     -0.81373426E-14      0.11059722E-24     -0.20592488E-14     -0.80385065E-25
    0.367382649145         0.46129760E-06     -0.10556945E-06     -0.23779956E-17     -0.82156798E-14     -0.18506159E-24     -0.20850462E-14     -0.80966163E-25
    0.370522671788         0.47411586E-06     -0.10461482E-06     -0.63451038E-17     -0.82967035E-14     -0.50321212E-24     -0.21110980E-14     -0.82546260E-25
    0.373662694430         0.48721866E-06     -0.10369790E-06     -0.49665540E-17     -0.83802468E-14     -0.40136732E-24     -0.21374122E-14     -0.83806563E-25
    0.376802717072         0.50061064E-06     -0.10283414E-06     -0.29902959E-17     -0.84677116E-14     -0.24623109E-24     -0.21640010E-14     -0.84579734E-25
    0.379942739715         0.51429644E-06     -0.10200663E-06     -0.31397798E-17     -0.85578850E-14     -0.26341301E-24     -0.21908730E-14     -0.85406857E-25
    0.383082762357         0.52828072E-06     -0.10124726E-06     -0.28791130E-17     -0.86536259E-14     -0.24607842E-24     -0.22180455E-14     -0.86179549E-25
