
 # Omega; pulse ft; projected flux at t=    1000.2500000000000     
    0.000000000000         0.18717486E-09      0.00000000E+00     -0.00000000E+00      0.49986990E-12     -0.20679515E-24
    0.003140022642         0.20186436E-09      0.18569540E-04     -0.53251787E-17      0.46489038E-12     -0.13331641E-24
    0.006280045285         0.24594737E-09      0.25835783E-04     -0.35926686E-16      0.39402483E-12     -0.54792247E-24
    0.009420067927         0.31946741E-09      0.28461376E-04     -0.25766298E-16      0.37588151E-12     -0.34028836E-24
    0.012560090569         0.42249703E-09      0.28425127E-04     -0.52322840E-16      0.37235384E-12     -0.68540101E-24
    0.015700113211         0.55513782E-09      0.26857219E-04     -0.25849625E-16      0.36981253E-12     -0.35593838E-24
    0.018840135854         0.71752051E-09      0.24943253E-04     -0.29433402E-16      0.36993543E-12     -0.43652920E-24
    0.021980158496         0.90980495E-09      0.22948799E-04     -0.56739593E-17      0.36991332E-12     -0.91458956E-25
    0.025120181138         0.11321802E-08      0.21066979E-04      0.52563627E-18      0.36975801E-12      0.92257283E-26
    0.028260203780         0.13848647E-08      0.19357227E-04     -0.18109407E-16      0.36940072E-12     -0.34558813E-24
    0.031400226423         0.16681061E-08      0.17899963E-04     -0.18407885E-16      0.37031010E-12     -0.38081787E-24
    0.034540249065         0.19821816E-08      0.16590394E-04     -0.16885004E-16      0.37076371E-12     -0.37734767E-24
    0.037680271707         0.23273981E-08      0.15409364E-04      0.68680458E-17      0.37064991E-12      0.16520088E-24
    0.040820294349         0.27040919E-08      0.14355675E-04     -0.12897887E-17      0.37033219E-12     -0.33272575E-25
    0.043960316992         0.31126296E-08      0.13451344E-04     -0.30766727E-18      0.37089829E-12     -0.84834102E-26
    0.047100339634         0.35534072E-08      0.12621763E-04     -0.91307160E-17      0.37082029E-12     -0.26825531E-24
    0.050240362276         0.40268513E-08      0.11890347E-04     -0.17783129E-16      0.37113328E-12     -0.55506462E-24
    0.053380384919         0.45334185E-08      0.11187387E-04      0.68408950E-19      0.36999454E-12      0.22624531E-26
    0.056520407561         0.50735959E-08      0.10568927E-04     -0.11882881E-16      0.36945713E-12     -0.41538891E-24
    0.059660430203         0.56479014E-08      0.98130289E-05     -0.11994802E-16      0.36176483E-12     -0.44219756E-24
    0.062800452845         0.62568834E-08      0.98458915E-05     -0.65173788E-17      0.38200837E-12     -0.25286621E-24
    0.065940475488         0.69011217E-08      0.10053295E-04     -0.11749451E-16      0.40973077E-12     -0.47885908E-24
    0.069080498130         0.75812269E-08      0.93214013E-05     -0.16259776E-16      0.39837106E-12     -0.69489811E-24
    0.072220520772         0.82978416E-08      0.87585575E-05     -0.90334153E-17      0.39188591E-12     -0.40418393E-24
    0.075360543414         0.90516395E-08      0.83731816E-05     -0.14544655E-17      0.39164833E-12     -0.68031364E-25
    0.078500566057         0.98433265E-08      0.80199256E-05     -0.61451940E-17      0.39161741E-12     -0.30007322E-24
    0.081640588699         0.10673641E-07      0.77224758E-05     -0.51003455E-17      0.39317469E-12     -0.25967408E-24
    0.084780611341         0.11543353E-07      0.74523991E-05     -0.69435293E-17      0.39514279E-12     -0.36816138E-24
    0.087920633984         0.12453265E-07      0.71804655E-05     -0.99784743E-17      0.39606601E-12     -0.55040088E-24
    0.091060656626         0.13404215E-07      0.69098301E-05     -0.27668418E-17      0.39609605E-12     -0.15860522E-24
    0.094200679268         0.14397070E-07      0.66600968E-05     -0.58604819E-17      0.39639044E-12     -0.34879958E-24
    0.097340701910         0.15432734E-07      0.64259949E-05     -0.99047950E-17      0.39674487E-12     -0.61152813E-24
    0.100480724553         0.16512144E-07      0.62117603E-05      0.29598592E-17      0.39751903E-12      0.18941497E-24
    0.103620747195         0.17636269E-07      0.60082949E-05     -0.19065486E-17      0.39822982E-12     -0.12636605E-24
    0.106760769837         0.18806114E-07      0.58186446E-05     -0.37229012E-17      0.39914598E-12     -0.25538267E-24
    0.109900792479         0.20022721E-07      0.56359611E-05     -0.42615912E-18      0.39986445E-12     -0.30235461E-25
    0.113040815122         0.21287162E-07      0.54650431E-05     -0.27252481E-17      0.40077314E-12     -0.19985318E-24
    0.116180837764         0.22600547E-07      0.52990299E-05     -0.18373441E-17      0.40142403E-12     -0.13918662E-24
    0.119320860406         0.23964023E-07      0.51441124E-05      0.27935187E-17      0.40232438E-12      0.21848292E-24
    0.122460883048         0.25378770E-07      0.49932776E-05     -0.51816227E-17      0.40297810E-12     -0.41817832E-24
    0.125600905691         0.26846007E-07      0.48524626E-05     -0.45191459E-17      0.40389797E-12     -0.37615412E-24
    0.128740928333         0.28366986E-07      0.47153604E-05      0.50718753E-18      0.40460757E-12      0.43519878E-25
    0.131880950975         0.29943001E-07      0.45870887E-05     -0.84623858E-17      0.40557664E-12     -0.74821879E-24
    0.135020973618         0.31575378E-07      0.44619816E-05     -0.83859562E-17      0.40634754E-12     -0.76369940E-24
    0.138160996260         0.33265483E-07      0.43446859E-05     -0.13020517E-17      0.40737025E-12     -0.12208411E-24
    0.141301018902         0.35014721E-07      0.42299518E-05     -0.41209709E-17      0.40819092E-12     -0.39767425E-24
    0.144441041544         0.36824533E-07      0.41219915E-05     -0.53571704E-17      0.40923830E-12     -0.53186895E-24
    0.147581064187         0.38696400E-07      0.40158228E-05      0.15960065E-17      0.41005019E-12      0.16296604E-24
    0.150721086829         0.40631842E-07      0.39161757E-05     -0.20771179E-17      0.41112814E-12     -0.21806009E-24
    0.153861109471         0.42632417E-07      0.38178718E-05     -0.29711806E-17      0.41195993E-12     -0.32059938E-24
    0.157001132113         0.44699723E-07      0.37255390E-05     -0.42849469E-18      0.41306053E-12     -0.47508359E-25
    0.160141154756         0.46835399E-07      0.36342621E-05     -0.10672728E-17      0.41391394E-12     -0.12155400E-24
    0.163281177398         0.49041122E-07      0.35486848E-05     -0.46425234E-17      0.41506322E-12     -0.54300136E-24
    0.166421200040         0.51318613E-07      0.34635199E-05     -0.81069024E-18      0.41591682E-12     -0.97351747E-25
    0.169561222683         0.53669630E-07      0.33842795E-05     -0.57575899E-17      0.41714864E-12     -0.70968451E-24
    0.172701245325         0.56095974E-07      0.33048232E-05     -0.45775489E-17      0.41802956E-12     -0.57901759E-24
    0.175841267967         0.58599489E-07      0.32317967E-05     -0.22899371E-18      0.41941079E-12     -0.29717968E-25
    0.178981290609         0.61182058E-07      0.31577915E-05     -0.76712745E-17      0.42036102E-12     -0.10211899E-23
    0.182121313252         0.63845608E-07      0.30910954E-05     -0.45401586E-17      0.42199295E-12     -0.61981748E-24
    0.185261335894         0.66592107E-07      0.30213571E-05     -0.15668763E-17      0.42292423E-12     -0.21932858E-24
    0.188401358536         0.69423567E-07      0.29612076E-05     -0.39165465E-17      0.42492696E-12     -0.56201606E-24
    0.191541381178         0.72342043E-07      0.28944050E-05     -0.40938660E-17      0.42570622E-12     -0.60212175E-24
    0.194681403821         0.75349631E-07      0.28391701E-05      0.20432948E-18      0.42792791E-12      0.30797130E-25
    0.197821426463         0.78448474E-07      0.27810232E-05     -0.71902420E-17      0.42947544E-12     -0.11103943E-23
    0.200961449105         0.81640757E-07      0.27171847E-05     -0.31337876E-17      0.42986885E-12     -0.49577699E-24
    0.204101471747         0.84928709E-07      0.26721025E-05     -0.80541262E-17      0.43299616E-12     -0.13051167E-23
    0.207241494390         0.88314602E-07      0.26122992E-05     -0.40842880E-17      0.43351213E-12     -0.67778929E-24
    0.210381517032         0.91800755E-07      0.25636226E-05     -0.35129699E-17      0.43562751E-12     -0.59694682E-24
    0.213521539674         0.95389531E-07      0.25121051E-05     -0.32594283E-17      0.43703817E-12     -0.56705215E-24
    0.216661562317         0.99083337E-07      0.24633194E-05      0.12910530E-17      0.43869433E-12      0.22992455E-24
    0.219801584959         0.10288463E-06      0.24157023E-05     -0.64206263E-17      0.44033745E-12     -0.11703603E-23
    0.222941607601         0.10679590E-06      0.23683979E-05     -0.37052516E-17      0.44181518E-12     -0.69119993E-24
    0.226081630243         0.11081969E-06      0.23233834E-05     -0.26034560E-17      0.44350150E-12     -0.49696344E-24
    0.229221652886         0.11495860E-06      0.22779301E-05     -0.37153896E-17      0.44488603E-12     -0.72562582E-24
    0.232361675528         0.11921526E-06      0.22351229E-05     -0.63807746E-18      0.44657180E-12     -0.12748623E-24
    0.235501698170         0.12359235E-06      0.21917140E-05     -0.22112197E-17      0.44792361E-12     -0.45191001E-24
    0.238641720812         0.12809259E-06      0.21509321E-05     -0.23575636E-17      0.44960060E-12     -0.49279194E-24
    0.241781743455         0.13271877E-06      0.21095708E-05     -0.35011209E-18      0.45094698E-12     -0.74840812E-25
    0.244921766097         0.13747370E-06      0.20706557E-05     -0.15029566E-17      0.45260846E-12     -0.32851955E-24
    0.248061788739         0.14236024E-06      0.20312586E-05     -0.57532777E-18      0.45395898E-12     -0.12857802E-24
    0.251201811381         0.14738131E-06      0.19940852E-05     -0.13427393E-17      0.45560230E-12     -0.30678485E-24
    0.254341834024         0.15253987E-06      0.19565693E-05     -0.33079715E-17      0.45696545E-12     -0.77259144E-24
    0.257481856666         0.15783893E-06      0.19210514E-05     -0.51508453E-18      0.45859470E-12     -0.12296133E-24
    0.260621879308         0.16328153E-06      0.18853392E-05     -0.18788048E-17      0.45997923E-12     -0.45838498E-24
    0.263761901951         0.16887077E-06      0.18514040E-05      0.42134257E-18      0.46160039E-12      0.10505103E-24
    0.266901924593         0.17460981E-06      0.18174388E-05     -0.89048311E-18      0.46301947E-12     -0.22686377E-24
    0.270041947235         0.18050182E-06      0.17850440E-05     -0.10987231E-17      0.46464558E-12     -0.28599679E-24
    0.273181969877         0.18655005E-06      0.17527023E-05     -0.25430638E-17      0.46609457E-12     -0.67627468E-24
    0.276321992520         0.19275778E-06      0.17217580E-05     -0.23518790E-17      0.46772556E-12     -0.63890160E-24
    0.279462015162         0.19912834E-06      0.16909779E-05     -0.15455128E-17      0.46921379E-12     -0.42885003E-24
    0.282602037804         0.20566511E-06      0.16614247E-05      0.64590759E-18      0.47085647E-12      0.18305360E-24
    0.285742060446         0.21237151E-06      0.16321183E-05     -0.30036112E-17      0.47238518E-12     -0.86933734E-24
    0.288882083089         0.21925100E-06      0.16038946E-05     -0.10387521E-17      0.47404476E-12     -0.30701204E-24
    0.292022105731         0.22630710E-06      0.15759794E-05     -0.74909217E-18      0.47561500E-12     -0.22606860E-24
    0.295162128373         0.23354337E-06      0.15490263E-05     -0.25931990E-17      0.47729648E-12     -0.79903406E-24
    0.298302151016         0.24096340E-06      0.15224134E-05     -0.84456802E-18      0.47890554E-12     -0.26567573E-24
    0.301442173658         0.24857086E-06      0.14967015E-05      0.15545266E-18      0.48062231E-12      0.49919118E-25
    0.304582196300         0.25636942E-06      0.14713786E-05     -0.20263759E-17      0.48229047E-12     -0.66420826E-24
    0.307722218942         0.26436283E-06      0.14468033E-05     -0.15028691E-17      0.48403145E-12     -0.50278839E-24
    0.310862241585         0.27255487E-06      0.14226001E-05     -0.35754292E-18      0.48572601E-12     -0.12207780E-24
    0.314002264227         0.28094936E-06      0.13991811E-05     -0.31488162E-17      0.48751921E-12     -0.10971477E-23
    0.317142286869         0.28955016E-06      0.13760672E-05     -0.94401571E-18      0.48925115E-12     -0.33563823E-24
    0.320282309511         0.29836118E-06      0.13537010E-05     -0.82493562E-19      0.49108275E-12     -0.29926227E-25
    0.323422332154         0.30738639E-06      0.13316839E-05     -0.57922700E-18      0.49287674E-12     -0.21438084E-24
    0.326562354796         0.31662976E-06      0.13102880E-05      0.61798609E-18      0.49473759E-12      0.23333874E-24
    0.329702377438         0.32609534E-06      0.12892965E-05     -0.95806134E-18      0.49658986E-12     -0.36901020E-24
    0.332842400080         0.33578719E-06      0.12688518E-05     -0.12367031E-17      0.49849283E-12     -0.48586259E-24
    0.335982422723         0.34570944E-06      0.12488147E-05     -0.13714868E-17      0.50039761E-12     -0.54955206E-24
    0.339122445365         0.35586624E-06      0.12292868E-05     -0.10519916E-18      0.50234954E-12     -0.42989764E-25
    0.342262468007         0.36626178E-06      0.12101494E-05     -0.58655060E-18      0.50430568E-12     -0.24443328E-24
    0.345402490650         0.37690029E-06      0.11914995E-05     -0.37282910E-18      0.50631105E-12     -0.15842851E-24
    0.348542513292         0.38778604E-06      0.11732119E-05     -0.52917200E-18      0.50831792E-12     -0.22927453E-24
    0.351682535934         0.39892335E-06      0.11554033E-05     -0.12771373E-17      0.51038136E-12     -0.56415545E-24
    0.354822558576         0.41031655E-06      0.11379180E-05     -0.27156201E-18      0.51243800E-12     -0.12229237E-24
    0.357962581219         0.42197002E-06      0.11209165E-05     -0.26722402E-18      0.51456442E-12     -0.12267103E-24
    0.361102603861         0.43388818E-06      0.11041875E-05     -0.97239763E-18      0.51666919E-12     -0.45500235E-24
    0.364242626503         0.44607547E-06      0.10879600E-05      0.50813783E-19      0.51886341E-12      0.24233807E-25
    0.367382649145         0.45853638E-06      0.10719458E-05     -0.10641530E-17      0.52101534E-12     -0.51722770E-24
    0.370522671788         0.47127541E-06      0.10564594E-05     -0.12563262E-17      0.52328145E-12     -0.62227873E-24
    0.373662694430         0.48429711E-06      0.10411223E-05     -0.65323909E-18      0.52548028E-12     -0.32970599E-24
    0.376802717072         0.49760605E-06      0.10263406E-05     -0.81342602E-18      0.52781981E-12     -0.41832347E-24
    0.379942739715         0.51120685E-06      0.10116525E-05     -0.11663428E-17      0.53006901E-12     -0.61112108E-24
    0.383082762357         0.52510413E-06      0.99753095E-06     -0.99376517E-18      0.53247810E-12     -0.53046794E-24
    0.386222784999         0.53930256E-06      0.98347480E-06     -0.87456305E-18      0.53478642E-12     -0.47556322E-24
    0.389362807641         0.55380682E-06      0.96996156E-06     -0.11549774E-17      0.53725554E-12     -0.63973464E-24
    0.392502830284         0.56862162E-06      0.95652526E-06     -0.10031669E-17      0.53963432E-12     -0.56594775E-24
    0.395642852926         0.58375171E-06      0.94357086E-06     -0.31595302E-18      0.54215305E-12     -0.18153898E-24
    0.398782875568         0.59920184E-06      0.93073027E-06     -0.18086691E-17      0.54460674E-12     -0.10583232E-23
    0.401922898210         0.61497679E-06      0.91835433E-06     -0.83722615E-18      0.54720341E-12     -0.49886301E-24
    0.405062920853         0.63108138E-06      0.90599677E-06     -0.30518635E-18      0.54968270E-12     -0.18516143E-24
    0.408202943495         0.64752043E-06      0.89430844E-06     -0.11242754E-17      0.55244267E-12     -0.69450052E-24
    0.411342966137         0.66429877E-06      0.88228157E-06     -0.18801192E-18      0.55486729E-12     -0.11824078E-24
    0.414482988779         0.68142128E-06      0.87134332E-06     -0.72902775E-18      0.55785435E-12     -0.46674060E-24
    0.417623011422         0.69889282E-06      0.85955987E-06     -0.10145041E-17      0.56017643E-12     -0.66115379E-24
    0.420763034064         0.71671828E-06      0.84938343E-06      0.33001694E-18      0.56342645E-12      0.21891206E-24
    0.423903056706         0.73490258E-06      0.83777987E-06      0.15509700E-18      0.56560819E-12      0.10471024E-24
    0.427043079349         0.75345064E-06      0.82838942E-06     -0.13050216E-17      0.56916764E-12     -0.89665086E-24
    0.430183101991         0.77236737E-06      0.81683568E-06      0.75854850E-19      0.57112058E-12      0.53036696E-25
    0.433323124633         0.79165771E-06      0.80832315E-06      0.41832719E-19      0.57508645E-12      0.29762144E-25
    0.436463147275         0.81132662E-06      0.79661040E-06     -0.18984442E-17      0.57665579E-12     -0.13742588E-23
    0.439603169918         0.83137904E-06      0.78912284E-06     -0.85460248E-18      0.58117297E-12     -0.62939741E-24
    0.442743192560         0.85181993E-06      0.77691859E-06     -0.12668343E-19      0.58209512E-12     -0.94915744E-26
    0.445883215202         0.87265424E-06      0.77079826E-06     -0.14703850E-17      0.58746819E-12     -0.11206621E-23
    0.449023237844         0.89388696E-06      0.75750436E-06     -0.69035175E-18      0.58724789E-12     -0.53518848E-24
    0.452163260487         0.91552302E-06      0.75328818E-06     -0.56836277E-18      0.59396067E-12     -0.44814872E-24
    0.455303283129         0.93756741E-06      0.73778188E-06     -0.21269042E-17      0.59163281E-12     -0.17055804E-23
    0.458443305771         0.96002506E-06      0.73652184E-06     -0.77563966E-18      0.60062735E-12     -0.63252761E-24
    0.461583328413         0.98290095E-06      0.71636689E-06     -0.34079430E-18      0.59404273E-12     -0.28260153E-24
    0.464723351056         0.10062000E-05      0.72034921E-06     -0.11915743E-17      0.60737296E-12     -0.10046932E-23
    0.467863373698         0.10299272E-05      0.68939691E-06     -0.67624932E-18      0.59098894E-12     -0.57971810E-24
    0.471003396340         0.10540874E-05      0.70433715E-06     -0.12045723E-17      0.61384077E-12     -0.10498035E-23
    0.474143418983         0.10786856E-05      0.64126464E-06     -0.86545541E-18      0.56812644E-12     -0.76674756E-24
    0.477283441625         0.11037267E-05      0.68543891E-06     -0.26809102E-18      0.61727184E-12     -0.24142930E-24
    0.480423464267         0.11292155E-05      0.44783570E-06     -0.96350648E-18      0.40991506E-12     -0.88192125E-24
    0.483563486909         0.11551570E-05      0.57023313E-06     -0.87946669E-18      0.53047204E-12     -0.81814342E-24
    0.486703509552         0.11815559E-05      0.12797703E-05     -0.76874043E-18      0.12098858E-11     -0.72676177E-24
    0.489843532194         0.12084172E-05      0.56111527E-06     -0.34939928E-18      0.53905635E-12     -0.33566347E-24
    0.492983554836         0.12357457E-05      0.38348159E-06     -0.37779107E-18      0.37433784E-12     -0.36878301E-24
    0.496123577478         0.12635461E-05      0.61841354E-06     -0.70456996E-18      0.61334205E-12     -0.69879192E-24
    0.499263600121         0.12918231E-05      0.57555075E-06     -0.66387177E-18      0.57993500E-12     -0.66892880E-24
    0.502403622763         0.13205817E-05      0.60661540E-06     -0.10614456E-17      0.62093834E-12     -0.10865076E-23
    0.505543645405         0.13498263E-05      0.60237003E-06     -0.79565507E-18      0.62633277E-12     -0.82730683E-24
    0.508683668048         0.13795618E-05      0.61821612E-06     -0.39134769E-18      0.65291437E-12     -0.41331263E-24
