 
 # eight columns.
 # Omega (column 1); |pulse ft|^2 (2); cross section (Mb) (3); flux (5); flux in
 tegral domega (7)
 
  0.0000      0.138618E-10      0.000000E+00      0.000000E+00      0.146032E-07     -0.338813E-20      0.364897E-11     -0.846610E-24
  0.0031      0.285471E-10      0.206359E+01     -0.708259E-12      0.146118E-07     -0.501503E-20      0.730011E-11     -0.209974E-23
  0.0063      0.726175E-10      0.163756E+01     -0.886212E-12      0.147478E-07     -0.798120E-20      0.109852E-10     -0.409404E-23
  0.0094      0.146116E-09      0.123085E+01     -0.604095E-12      0.148697E-07     -0.729797E-20      0.147008E-10     -0.591763E-23
  0.0126      0.249115E-09      0.970134E+00     -0.332558E-12      0.149862E-07     -0.513721E-20      0.184455E-10     -0.720128E-23
  0.0157      0.381716E-09      0.797537E+00     -0.407102E-12      0.151022E-07     -0.770891E-20      0.222191E-10     -0.912755E-23
  0.0188      0.544048E-09      0.676627E+00     -0.318866E-12      0.152179E-07     -0.717155E-20      0.260217E-10     -0.109195E-22
  0.0220      0.736270E-09      0.587759E+00     -0.127765E-12      0.153341E-07     -0.333328E-20      0.298533E-10     -0.117524E-22
  0.0251      0.958571E-09      0.519942E+00     -0.294043E-12      0.154529E-07     -0.873906E-20      0.337146E-10     -0.139361E-22
  0.0283      0.121117E-08      0.466528E+00     -0.948912E-13      0.155725E-07     -0.316743E-20      0.376058E-10     -0.147276E-22
  0.0314      0.149430E-08      0.423394E+00     -0.183463E-12      0.156929E-07     -0.679999E-20      0.415271E-10     -0.164267E-22
  0.0345      0.180826E-08      0.387858E+00     -0.170122E-12      0.158147E-07     -0.693663E-20      0.454788E-10     -0.181600E-22
  0.0377      0.215334E-08      0.358086E+00     -0.142997E-12      0.159381E-07     -0.636469E-20      0.494613E-10     -0.197504E-22
  0.0408      0.252987E-08      0.332774E+00     -0.103250E-12      0.160629E-07     -0.498387E-20      0.534750E-10     -0.209957E-22
  0.0440      0.293823E-08      0.310996E+00     -0.141498E-12      0.161894E-07     -0.736594E-20      0.575203E-10     -0.228363E-22
  0.0471      0.337880E-08      0.292050E+00     -0.601113E-13      0.163173E-07     -0.335851E-20      0.615976E-10     -0.236755E-22
  0.0502      0.385201E-08      0.275428E+00     -0.114192E-12      0.164473E-07     -0.681902E-20      0.657074E-10     -0.253794E-22
  0.0534      0.435831E-08      0.260713E+00     -0.111674E-12      0.165787E-07     -0.710135E-20      0.698500E-10     -0.271539E-22
  0.0565      0.489819E-08      0.247600E+00     -0.712267E-13      0.167122E-07     -0.480757E-20      0.740260E-10     -0.283552E-22
  0.0597      0.547216E-08      0.235832E+00     -0.567275E-13      0.168472E-07     -0.405246E-20      0.782357E-10     -0.293678E-22
  0.0628      0.608077E-08      0.225211E+00     -0.767255E-13      0.169839E-07     -0.578613E-20      0.824795E-10     -0.308136E-22
  0.0659      0.672460E-08      0.215571E+00     -0.126869E-12      0.171221E-07     -0.100768E-19      0.867579E-10     -0.333315E-22
  0.0691      0.740424E-08      0.206799E+00     -0.139573E-12      0.172634E-07     -0.116515E-19      0.910716E-10     -0.362429E-22
  0.0722      0.812035E-08      0.198762E+00     -0.133858E-12      0.174060E-07     -0.117223E-19      0.954210E-10     -0.391720E-22
  0.0754      0.887359E-08      0.191378E+00     -0.590633E-13      0.175509E-07     -0.541659E-20      0.998065E-10     -0.405255E-22
  0.0785      0.966466E-08      0.184563E+00     -0.653909E-13      0.176975E-07     -0.627024E-20      0.104229E-09     -0.420923E-22
  0.0816      0.104943E-07      0.178260E+00     -0.113884E-12      0.178465E-07     -0.114015E-19      0.108688E-09     -0.449412E-22
  0.0848      0.113633E-07      0.172404E+00     -0.516542E-13      0.179973E-07     -0.539218E-20      0.113185E-09     -0.462886E-22
  0.0879      0.122724E-07      0.166955E+00     -0.579260E-13      0.181506E-07     -0.629743E-20      0.117720E-09     -0.478622E-22
  0.0911      0.132224E-07      0.161866E+00     -0.492200E-13      0.183058E-07     -0.556641E-20      0.122295E-09     -0.492531E-22
  0.0942      0.142143E-07      0.157105E+00     -0.214329E-13      0.184635E-07     -0.251887E-20      0.126908E-09     -0.498825E-22
  0.0973      0.152489E-07      0.152636E+00     -0.649763E-13      0.186233E-07     -0.792780E-20      0.131562E-09     -0.518635E-22
  0.1005      0.163272E-07      0.148438E+00     -0.443409E-13      0.187857E-07     -0.561159E-20      0.136256E-09     -0.532657E-22
  0.1036      0.174501E-07      0.144481E+00      0.344026E-14      0.189502E-07      0.451227E-21      0.140991E-09     -0.531529E-22
  0.1068      0.186186E-07      0.140748E+00     -0.527889E-13      0.191175E-07     -0.717021E-20      0.145768E-09     -0.549446E-22
  0.1099      0.198338E-07      0.137217E+00     -0.556274E-13      0.192870E-07     -0.781892E-20      0.150587E-09     -0.568983E-22
  0.1130      0.210967E-07      0.133874E+00     -0.718597E-14      0.194593E-07     -0.104452E-20      0.155450E-09     -0.571593E-22
  0.1162      0.224085E-07      0.130701E+00     -0.578671E-13      0.196341E-07     -0.869284E-20      0.160356E-09     -0.593314E-22
  0.1193      0.237702E-07      0.127689E+00     -0.454092E-13      0.198117E-07     -0.704551E-20      0.165306E-09     -0.610919E-22
  0.1225      0.251830E-07      0.124822E+00     -0.155274E-13      0.199919E-07     -0.248692E-20      0.170302E-09     -0.617134E-22
  0.1256      0.266482E-07      0.122091E+00     -0.359415E-13      0.201750E-07     -0.593916E-20      0.175343E-09     -0.631974E-22
  0.1287      0.281671E-07      0.119487E+00     -0.283076E-13      0.203609E-07     -0.482370E-20      0.180431E-09     -0.644027E-22
  0.1319      0.297408E-07      0.117000E+00     -0.223809E-13      0.205498E-07     -0.393097E-20      0.185565E-09     -0.653850E-22
  0.1350      0.313707E-07      0.114622E+00     -0.487170E-13      0.207416E-07     -0.881568E-20      0.190748E-09     -0.675878E-22
  0.1382      0.330582E-07      0.112346E+00     -0.573634E-13      0.209365E-07     -0.106901E-19      0.195980E-09     -0.702590E-22
  0.1413      0.348046E-07      0.110166E+00     -0.277301E-13      0.211345E-07     -0.531981E-20      0.201261E-09     -0.715883E-22
  0.1444      0.366115E-07      0.108076E+00     -0.484141E-13      0.213358E-07     -0.955766E-20      0.206592E-09     -0.739765E-22
  0.1476      0.384802E-07      0.106070E+00     -0.413536E-13      0.215403E-07     -0.839795E-20      0.211974E-09     -0.760749E-22
  0.1507      0.404124E-07      0.104143E+00     -0.370188E-13      0.217481E-07     -0.773062E-20      0.217409E-09     -0.780066E-22
  0.1539      0.424094E-07      0.102291E+00     -0.473820E-13      0.219595E-07     -0.101718E-19      0.222896E-09     -0.805483E-22
  0.1570      0.444730E-07      0.100508E+00     -0.363151E-13      0.221742E-07     -0.801186E-20      0.228437E-09     -0.825503E-22
  0.1601      0.466048E-07      0.987932E-01     -0.168602E-13      0.223927E-07     -0.382157E-20      0.234032E-09     -0.835052E-22
  0.1633      0.488064E-07      0.971401E-01     -0.301240E-13      0.226147E-07     -0.701304E-20      0.239683E-09     -0.852576E-22
  0.1664      0.510796E-07      0.955475E-01     -0.277617E-13      0.228408E-07     -0.663647E-20      0.245390E-09     -0.869159E-22
  0.1696      0.534260E-07      0.940103E-01     -0.145952E-13      0.230704E-07     -0.358169E-20      0.251155E-09     -0.878108E-22
  0.1727      0.558476E-07      0.925280E-01     -0.277899E-13      0.233042E-07     -0.699919E-20      0.256978E-09     -0.895598E-22
  0.1758      0.583460E-07      0.910954E-01     -0.266850E-13      0.235418E-07     -0.689620E-20      0.262861E-09     -0.912829E-22
  0.1790      0.609233E-07      0.897130E-01     -0.865210E-14      0.237839E-07     -0.229377E-20      0.268804E-09     -0.918561E-22
  0.1821      0.635813E-07      0.883753E-01     -0.262978E-13      0.240299E-07     -0.715056E-20      0.274808E-09     -0.936428E-22
  0.1853      0.663220E-07      0.870838E-01     -0.318713E-13      0.242808E-07     -0.888640E-20      0.280875E-09     -0.958633E-22
  0.1884      0.691474E-07      0.858325E-01     -0.282325E-13      0.245356E-07     -0.807039E-20      0.287006E-09     -0.978799E-22
  0.1915      0.720595E-07      0.846244E-01     -0.258987E-13      0.247957E-07     -0.758855E-20      0.293202E-09     -0.997761E-22
  0.1947      0.750604E-07      0.834516E-01     -0.283395E-13      0.250596E-07     -0.851003E-20      0.299464E-09     -0.101903E-21
  0.1978      0.781523E-07      0.823198E-01     -0.645597E-14      0.253294E-07     -0.198647E-20      0.305793E-09     -0.102399E-21
  0.2010      0.813373E-07      0.812191E-01     -0.166154E-13      0.256028E-07     -0.523771E-20      0.312190E-09     -0.103708E-21
  0.2041      0.846177E-07      0.801562E-01     -0.153319E-13      0.258824E-07     -0.495068E-20      0.318658E-09     -0.104945E-21
  0.2072      0.879957E-07      0.791225E-01     -0.112383E-13      0.261660E-07     -0.371652E-20      0.325196E-09     -0.105873E-21
  0.2104      0.914737E-07      0.781236E-01     -0.747081E-14      0.264560E-07     -0.252993E-20      0.331807E-09     -0.106506E-21
  0.2135      0.950539E-07      0.771523E-01     -0.407481E-14      0.267504E-07     -0.141282E-20      0.338491E-09     -0.106859E-21
  0.2167      0.987388E-07      0.762135E-01     -0.146668E-13      0.270514E-07     -0.520586E-20      0.345250E-09     -0.108159E-21
  0.2198      0.102531E-06      0.753008E-01     -0.175541E-13      0.273575E-07     -0.637756E-20      0.352086E-09     -0.109753E-21
  0.2229      0.106432E-06      0.744184E-01     -0.203501E-13      0.276704E-07     -0.756663E-20      0.359000E-09     -0.111644E-21
  0.2261      0.110446E-06      0.735605E-01     -0.288981E-13      0.279887E-07     -0.109953E-19      0.365994E-09     -0.114391E-21
  0.2292      0.114575E-06      0.727310E-01     -0.205658E-13      0.283143E-07     -0.800628E-20      0.373069E-09     -0.116392E-21
  0.2324      0.118821E-06      0.719241E-01     -0.184545E-13      0.286454E-07     -0.734991E-20      0.380227E-09     -0.118228E-21
  0.2355      0.123187E-06      0.711443E-01     -0.126320E-13      0.289843E-07     -0.514630E-20      0.387469E-09     -0.119514E-21
  0.2386      0.127675E-06      0.703855E-01     -0.495089E-14      0.293289E-07     -0.206299E-20      0.394798E-09     -0.120030E-21
  0.2418      0.132290E-06      0.696525E-01     -0.163071E-13      0.296819E-07     -0.694914E-20      0.402215E-09     -0.121766E-21
  0.2449      0.137032E-06      0.689392E-01     -0.209861E-13      0.300410E-07     -0.914490E-20      0.409721E-09     -0.124051E-21
  0.2481      0.141906E-06      0.682505E-01     -0.293781E-13      0.304088E-07     -0.130893E-19      0.417320E-09     -0.127322E-21
  0.2512      0.146914E-06      0.675805E-01     -0.303757E-13      0.307832E-07     -0.138363E-19      0.425012E-09     -0.130779E-21
  0.2543      0.152058E-06      0.669339E-01     -0.172583E-13      0.311667E-07     -0.803606E-20      0.432799E-09     -0.132787E-21
  0.2575      0.157343E-06      0.663051E-01     -0.128976E-13      0.315574E-07     -0.613851E-20      0.440685E-09     -0.134321E-21
  0.2606      0.162771E-06      0.656985E-01     -0.200712E-13      0.319577E-07     -0.976321E-20      0.448670E-09     -0.136761E-21
  0.2638      0.168346E-06      0.651093E-01      0.122139E-14      0.323657E-07      0.607151E-21      0.456758E-09     -0.136609E-21
  0.2669      0.174069E-06      0.645411E-01     -0.114904E-13      0.327838E-07     -0.583659E-20      0.464949E-09     -0.138067E-21
  0.2700      0.179945E-06      0.639898E-01     -0.845043E-14      0.332102E-07     -0.438571E-20      0.473248E-09     -0.139163E-21
  0.2732      0.185977E-06      0.634585E-01     -0.130140E-13      0.336472E-07     -0.690034E-20      0.481655E-09     -0.140888E-21
  0.2763      0.192167E-06      0.629440E-01     -0.127579E-13      0.340935E-07     -0.691027E-20      0.490175E-09     -0.142614E-21
  0.2795      0.198521E-06      0.624481E-01     -0.162112E-13      0.345505E-07     -0.896912E-20      0.498808E-09     -0.144855E-21
  0.2826      0.205039E-06      0.619693E-01     -0.210614E-13      0.350180E-07     -0.119015E-19      0.507558E-09     -0.147829E-21
  0.2857      0.211727E-06      0.615078E-01     -0.287984E-13      0.354964E-07     -0.166197E-19      0.516428E-09     -0.151982E-21
  0.2889      0.218588E-06      0.610638E-01     -0.296216E-13      0.359866E-07     -0.174568E-19      0.525420E-09     -0.156344E-21
  0.2920      0.225624E-06      0.606355E-01     -0.961812E-14      0.364879E-07     -0.578778E-20      0.534537E-09     -0.157790E-21
  0.2952      0.232840E-06      0.602257E-01     -0.118854E-13      0.370025E-07     -0.730235E-20      0.543783E-09     -0.159615E-21
  0.2983      0.240239E-06      0.598299E-01     -0.151695E-13      0.375283E-07     -0.951506E-20      0.553161E-09     -0.161993E-21
  0.3014      0.247826E-06      0.594537E-01     -0.100957E-13      0.380692E-07     -0.646442E-20      0.562673E-09     -0.163608E-21
  0.3046      0.255602E-06      0.590897E-01     -0.844897E-14      0.386211E-07     -0.552226E-20      0.572324E-09     -0.164988E-21
  0.3077      0.263573E-06      0.587469E-01     -0.121726E-13      0.391904E-07     -0.812043E-20      0.582116E-09     -0.167017E-21
  0.3109      0.271743E-06      0.584140E-01     -0.251494E-14      0.397703E-07     -0.171226E-20      0.592054E-09     -0.167445E-21
  0.3140      0.280114E-06      0.581045E-01     -0.752426E-14      0.403705E-07     -0.522778E-20      0.602141E-09     -0.168751E-21
  0.3171      0.288690E-06      0.578023E-01     -0.785325E-14      0.409803E-07     -0.556775E-20      0.612381E-09     -0.170142E-21
  0.3203      0.297477E-06      0.575264E-01     -0.577113E-14      0.416140E-07     -0.417478E-20      0.622780E-09     -0.171185E-21
  0.3234      0.306477E-06      0.572544E-01     -0.122075E-13      0.422560E-07     -0.900965E-20      0.633338E-09     -0.173437E-21
  0.3266      0.315694E-06      0.570124E-01     -0.144304E-13      0.429262E-07     -0.108650E-19      0.644065E-09     -0.176152E-21
  0.3297      0.325133E-06      0.567704E-01     -0.586848E-14      0.436027E-07     -0.450731E-20      0.654960E-09     -0.177278E-21
  0.3328      0.334798E-06      0.565631E-01     -0.133956E-13      0.443129E-07     -0.104944E-19      0.666033E-09     -0.179900E-21
  0.3360      0.344692E-06      0.563508E-01     -0.685523E-14      0.450265E-07     -0.547759E-20      0.677284E-09     -0.181269E-21
  0.3391      0.354821E-06      0.561794E-01     -0.924930E-14      0.457807E-07     -0.753727E-20      0.688723E-09     -0.183152E-21
  0.3423      0.365188E-06      0.559966E-01     -0.133461E-13      0.465341E-07     -0.110908E-19      0.700351E-09     -0.185924E-21
  0.3454      0.375797E-06      0.558625E-01     -0.123484E-13      0.473369E-07     -0.104638E-19      0.712179E-09     -0.188538E-21
  0.3485      0.386652E-06      0.557091E-01     -0.701949E-14      0.481331E-07     -0.606489E-20      0.724206E-09     -0.190054E-21
  0.3517      0.397759E-06      0.556142E-01     -0.149343E-13      0.489900E-07     -0.131555E-19      0.736448E-09     -0.193341E-21
  0.3548      0.409120E-06      0.554902E-01     -0.148463E-13      0.498321E-07     -0.133325E-19      0.748899E-09     -0.196672E-21
  0.3580      0.420742E-06      0.554371E-01     -0.952561E-14      0.507494E-07     -0.872014E-20      0.761580E-09     -0.198851E-21
  0.3611      0.432627E-06      0.553423E-01     -0.157366E-13      0.516408E-07     -0.146841E-19      0.774484E-09     -0.202521E-21
  0.3642      0.444781E-06      0.553342E-01     -0.129418E-13      0.526262E-07     -0.123084E-19      0.787634E-09     -0.205596E-21
  0.3674      0.457208E-06      0.552684E-01     -0.582360E-14      0.535704E-07     -0.564468E-20      0.801020E-09     -0.207007E-21
  0.3705      0.469913E-06      0.553096E-01     -0.911955E-14      0.546331E-07     -0.900800E-20      0.814672E-09     -0.209257E-21
  0.3737      0.482899E-06      0.552725E-01     -0.930617E-14      0.556337E-07     -0.936699E-20      0.828573E-09     -0.211598E-21
  0.3768      0.496172E-06      0.553684E-01     -0.100076E-13      0.567849E-07     -0.102637E-19      0.842762E-09     -0.214163E-21
  0.3799      0.509736E-06      0.553591E-01     -0.109973E-13      0.578455E-07     -0.114912E-19      0.857216E-09     -0.217034E-21
  0.3831      0.523597E-06      0.555170E-01     -0.950010E-14      0.590994E-07     -0.101131E-19      0.871984E-09     -0.219561E-21
  0.3862      0.537757E-06      0.555344E-01     -0.960035E-14      0.602231E-07     -0.104109E-19      0.887032E-09     -0.222162E-21
  0.3894      0.552223E-06      0.557636E-01     -0.114123E-13      0.615975E-07     -0.126062E-19      0.902424E-09     -0.225312E-21
  0.3925      0.566999E-06      0.558056E-01     -0.111325E-13      0.627870E-07     -0.125252E-19      0.918113E-09     -0.228442E-21
  0.3956      0.582089E-06      0.561184E-01     -0.476293E-14      0.643049E-07     -0.545774E-20      0.934181E-09     -0.229806E-21
  0.3988      0.597499E-06      0.561820E-01     -0.726134E-14      0.655617E-07     -0.847364E-20      0.950563E-09     -0.231923E-21
  0.4019      0.613233E-06      0.565951E-01     -0.939582E-14      0.672533E-07     -0.111653E-19      0.967368E-09     -0.234713E-21
  0.4051      0.629296E-06      0.566751E-01     -0.779465E-14      0.685768E-07     -0.943151E-20      0.984504E-09     -0.237070E-21
  0.4082      0.645693E-06      0.572114E-01     -0.749983E-14      0.704831E-07     -0.923961E-20      0.100212E-08     -0.239379E-21
  0.4113      0.662428E-06      0.572997E-01     -0.932793E-14      0.718687E-07     -0.116996E-19      0.102007E-08     -0.242302E-21
  0.4145      0.679507E-06      0.579914E-01     -0.472915E-14      0.740463E-07     -0.603842E-20      0.103858E-08     -0.243811E-21
  0.4176      0.696935E-06      0.580752E-01     -0.611467E-14      0.754834E-07     -0.794755E-20      0.105744E-08     -0.245797E-21
  0.4208      0.714716E-06      0.589687E-01     -0.766554E-14      0.780135E-07     -0.101412E-19      0.107693E-08     -0.248331E-21
  0.4239      0.732855E-06      0.590278E-01     -0.561737E-14      0.794805E-07     -0.756374E-20      0.109679E-08     -0.250221E-21
  0.4270      0.751357E-06      0.601917E-01     -0.291193E-14      0.824828E-07     -0.399032E-20      0.111740E-08     -0.251218E-21
  0.4302      0.770227E-06      0.601929E-01     -0.850612E-14      0.839389E-07     -0.118618E-19      0.113838E-08     -0.254182E-21
  0.4333      0.789470E-06      0.617333E-01     -0.660588E-14      0.875983E-07     -0.937361E-20      0.116026E-08     -0.256524E-21
  0.4365      0.809092E-06      0.616224E-01     -0.890784E-14      0.889696E-07     -0.128610E-19      0.118250E-08     -0.259738E-21
  0.4396      0.829096E-06      0.637099E-01     -0.889961E-14      0.935844E-07     -0.130728E-19      0.120588E-08     -0.263004E-21
  0.4427      0.849488E-06      0.633945E-01     -0.570580E-14      0.947348E-07     -0.852658E-20      0.122955E-08     -0.265135E-21
  0.4459      0.870273E-06      0.663205E-01     -0.479499E-14      0.100817E-06     -0.728912E-20      0.125474E-08     -0.266956E-21
  0.4490      0.891456E-06      0.656362E-01     -0.531745E-14      0.101491E-06     -0.822218E-20      0.128010E-08     -0.269011E-21
  0.4522      0.913042E-06      0.699358E-01     -0.405410E-14      0.109989E-06     -0.637591E-20      0.130759E-08     -0.270604E-21
  0.4553      0.935035E-06      0.685729E-01     -0.698573E-14      0.109681E-06     -0.111736E-19      0.133499E-08     -0.273396E-21
  0.4584      0.957442E-06      0.753330E-01     -0.105470E-13      0.122536E-06     -0.171557E-19      0.136561E-08     -0.277683E-21
