 
 # Omega; pulse ft; proj flux t=    1000.25000000000     
    0.000000000000         0.32818054E-12      0.00000000E+00      0.00000000E+00      0.00000000E+00      0.00000000E+00      0.00000000E+00      0.00000000E+00
    0.003140807452         0.15084240E-10     -0.54715408E-04      0.13844470E-11     -0.16286750E-13      0.41209859E-21     -0.51153546E-16      0.12943223E-23
    0.006281614903         0.59367197E-10     -0.10551328E-04      0.59531195E-12     -0.61805205E-14      0.34870848E-21     -0.70565371E-16      0.23895485E-23
    0.009422422355         0.13322140E-09     -0.37854717E-05     -0.54452889E-13     -0.33172187E-14     -0.47717209E-22     -0.80984116E-16      0.22396780E-23
    0.012563229807         0.23672078E-09     -0.15188822E-05     -0.43067165E-13     -0.17737885E-14     -0.50294911E-22     -0.86555244E-16      0.20817113E-23
    0.015704037259         0.36996889E-09     -0.15472513E-06      0.21203543E-14     -0.22592142E-15      0.30960288E-23     -0.87264820E-16      0.20914354E-23
    0.018844844710         0.53309892E-09      0.22516863E-06      0.44503166E-15      0.39478969E-15      0.78027704E-24     -0.86024861E-16      0.20938861E-23
    0.021985652162         0.72627381E-09      0.51585287E-06     -0.60860488E-14      0.10561596E-14     -0.12460605E-22     -0.82707667E-16      0.20547497E-23
    0.025126459614         0.94968623E-09     -0.17397843E-06     -0.48667595E-14     -0.40755566E-15     -0.11400697E-22     -0.83987721E-16      0.20189423E-23
    0.028267267066         0.12035587E-08     -0.66757887E-06     -0.79911532E-14     -0.17616869E-14     -0.21088010E-22     -0.89520841E-16      0.19527089E-23
    0.031408074517         0.14881438E-08     -0.36862540E-06      0.86313057E-14     -0.10825090E-14      0.25346778E-22     -0.92920793E-16      0.20323183E-23
    0.034548881969         0.18037240E-08     -0.15149267E-06     -0.38449295E-14     -0.49019671E-15     -0.12441340E-22     -0.94460406E-16      0.19932424E-23
    0.037689689421         0.21506121E-08     -0.41123380E-07      0.33340800E-14     -0.14543569E-15      0.11791206E-22     -0.94917192E-16      0.20302763E-23
    0.040830496872         0.25291509E-08      0.53732104E-07      0.55784011E-14      0.20628451E-15      0.21416204E-22     -0.94269292E-16      0.20975405E-23
    0.043971304324         0.29397140E-08      0.88099677E-07      0.84420673E-15      0.36505031E-15      0.34980597E-23     -0.93122739E-16      0.21085272E-23
    0.047112111776         0.33827052E-08      0.11939171E-06      0.37605788E-14      0.53131052E-15      0.16735125E-22     -0.91453995E-16      0.21610890E-23
    0.050252919228         0.38585594E-08      0.12323949E-06      0.63047253E-14      0.58648438E-15      0.30003556E-22     -0.89611961E-16      0.22553244E-23
    0.053393726679         0.43677419E-08      0.12843903E-06      0.43122784E-14      0.65118806E-15      0.21863324E-22     -0.87566704E-16      0.23239929E-23
    0.056534534131         0.49107496E-08      0.10509979E-06      0.21997491E-15      0.56582025E-15      0.11842675E-23     -0.85789572E-16      0.23277125E-23
    0.059675341583         0.54881104E-08      0.90010713E-07      0.96703639E-15      0.51305604E-15      0.55120534E-23     -0.84178162E-16      0.23450248E-23
    0.062816149035         0.61003835E-08     -0.13210784E-07      0.17166171E-14     -0.79516469E-16      0.10332417E-22     -0.84427908E-16      0.23774769E-23
    0.065956956486         0.67481601E-08     -0.72124053E-07      0.36352952E-14     -0.45734883E-15      0.23051921E-22     -0.85864352E-16      0.24498786E-23
    0.069097763938         0.74320630E-08     -0.75685323E-06      0.11050133E-14     -0.50454480E-14      0.73664044E-23     -0.10171113E-15      0.24730150E-23
    0.072238571390         0.81527474E-08     -0.22129459E-05      0.15101120E-14     -0.15479193E-13      0.10562985E-22     -0.15032830E-15      0.25061913E-23
    0.075379378841         0.89109006E-08     -0.10228052E-05      0.10484878E-14     -0.74938441E-14      0.76820142E-23     -0.17386502E-15      0.25303191E-23
    0.078520186293         0.97072426E-08      0.13462486E-05      0.17958225E-14      0.10315315E-13      0.13760070E-22     -0.14146660E-15      0.25735368E-23
    0.081660993745         0.10542526E-07      0.13899671E-05      0.17923813E-14      0.11121855E-13      0.14341782E-22     -0.10653500E-15      0.26185816E-23
    0.084801801197         0.11417538E-07      0.94005996E-06      0.12009723E-14      0.78445061E-14      0.10021738E-22     -0.81896913E-16      0.26500579E-23
    0.087942608648         0.12333096E-07      0.86014121E-06      0.94623405E-15      0.74762737E-14      0.82245853E-23     -0.58415376E-16      0.26758897E-23
    0.091083416100         0.13290054E-07      0.78164690E-06      0.76948885E-15      0.70687190E-14      0.69587694E-23     -0.36213891E-16      0.26977459E-23
    0.094224223552         0.14289299E-07      0.71167438E-06      0.47769262E-15      0.66891721E-14      0.44899300E-23     -0.15204489E-16      0.27118479E-23
    0.097365031004         0.15331753E-07      0.68882711E-06      0.59807101E-15      0.67226686E-14      0.58369265E-23      0.59101184E-17      0.27301806E-23
    0.100505838455         0.16418370E-07      0.62736809E-06     -0.88851763E-15      0.63519028E-14     -0.89959591E-23      0.25860222E-16      0.27019260E-23
    0.103646645907         0.17550142E-07      0.47381792E-06     -0.23302186E-15      0.49725543E-14     -0.24454834E-23      0.41478058E-16      0.26942452E-23
    0.106787453359         0.18728094E-07      0.43236997E-06     -0.73349003E-15      0.46997153E-14     -0.79727883E-23      0.56238958E-16      0.26692042E-23
    0.109928260810         0.19953287E-07      0.42523842E-06     -0.61075802E-15      0.47838799E-14     -0.68709527E-23      0.71264204E-16      0.26476239E-23
    0.113069068262         0.21226819E-07      0.40057500E-06      0.35769670E-16      0.46608769E-14      0.41619679E-24      0.85903121E-16      0.26489311E-23
    0.116209875714         0.22549823E-07      0.38926039E-06     -0.91723089E-16      0.46814780E-14     -0.11031167E-23      0.10060674E-15      0.26454664E-23
    0.119350683166         0.23923468E-07      0.37410310E-06     -0.11235081E-14      0.46476479E-14     -0.13957837E-22      0.11520411E-15      0.26016275E-23
    0.122491490617         0.25348961E-07      0.36448384E-06     -0.24783744E-15      0.46749308E-14     -0.31788045E-23      0.12988717E-15      0.25916435E-23
    0.125632298069         0.26827544E-07      0.36038483E-06     -0.98815522E-16      0.47696751E-14     -0.13078184E-23      0.14486780E-15      0.25875359E-23
    0.128773105521         0.28360500E-07      0.35564937E-06      0.32866114E-16      0.48545998E-14      0.44862115E-24      0.16011516E-15      0.25889449E-23
    0.131913912973         0.29949146E-07      0.35809153E-06      0.29458921E-15      0.50388400E-14      0.41452751E-23      0.17594119E-15      0.26019644E-23
    0.135054720424         0.31594841E-07      0.35783584E-06     -0.82116472E-16      0.51883935E-14     -0.11906370E-23      0.19223693E-15      0.25982249E-23
    0.138195527876         0.33298978E-07      0.36190428E-06     -0.20188395E-15      0.54047213E-14     -0.30149587E-23      0.20921212E-15      0.25887555E-23
    0.141336335328         0.35062992E-07      0.36411389E-06      0.18858772E-15      0.55985437E-14      0.28996877E-23      0.22679607E-15      0.25978628E-23
    0.144477142779         0.36888357E-07      0.36823807E-06      0.62526960E-15      0.58272216E-14      0.98946437E-23      0.24509825E-15      0.26289400E-23
    0.147617950231         0.38776586E-07      0.37155052E-06      0.19553269E-15      0.60491026E-14      0.31834091E-23      0.26409732E-15      0.26389385E-23
    0.150758757683         0.40729231E-07      0.37561669E-06      0.33392443E-15      0.62894291E-14      0.55913224E-23      0.28385120E-15      0.26564997E-23
    0.153899565135         0.42747886E-07      0.37913167E-06      0.16759665E-15      0.65269455E-14      0.28852621E-23      0.30435108E-15      0.26655618E-23
    0.157040372586         0.44834184E-07      0.38277158E-06     -0.84604616E-16      0.67729881E-14     -0.14970444E-23      0.32562373E-15      0.26608599E-23
    0.160181180038         0.46989799E-07      0.38570570E-06     -0.13620668E-15      0.70127900E-14     -0.24764706E-23      0.34764956E-15      0.26530817E-23
    0.163321987490         0.49216447E-07      0.38830619E-06      0.31237077E-15      0.72524142E-14      0.58341645E-23      0.37042799E-15      0.26714057E-23
    0.166462794942         0.51515886E-07      0.39011325E-06     -0.92200365E-17      0.74826833E-14     -0.17684766E-24      0.39392966E-15      0.26708503E-23
    0.169603602393         0.53889915E-07      0.39117315E-06      0.54703133E-15      0.77034299E-14      0.10772768E-22      0.41812465E-15      0.27046855E-23
    0.172744409845         0.56340375E-07      0.39137739E-06     -0.13587332E-15      0.79114144E-14     -0.27465821E-23      0.44297288E-15      0.26960590E-23
    0.175885217297         0.58869149E-07      0.39068410E-06     -0.71155865E-16      0.81045114E-14     -0.14760865E-23      0.46842759E-15      0.26914229E-23
    0.179026024748         0.61478167E-07      0.38933651E-06      0.97120989E-16      0.82865269E-14      0.20670954E-23      0.49445397E-15      0.26979152E-23
    0.182166832200         0.64169396E-07      0.38696246E-06      0.17100835E-15      0.84483162E-14      0.37335213E-23      0.52098851E-15      0.27096415E-23
    0.185307639652         0.66944851E-07      0.38419479E-06      0.11510637E-15      0.86023677E-14      0.25773053E-23      0.54800689E-15      0.27177363E-23
    0.188448447104         0.69806589E-07      0.38049988E-06      0.23897321E-16      0.87357673E-14      0.54865045E-24      0.57544425E-15      0.27194595E-23
    0.191589254555         0.72756711E-07      0.37646622E-06      0.32417422E-16      0.88607525E-14      0.76299740E-24      0.60327417E-15      0.27218560E-23
    0.194730062007         0.75797365E-07      0.37147006E-06      0.46215937E-17      0.89616421E-14      0.11149504E-24      0.63142096E-15      0.27222061E-23
    0.197870869459         0.78930738E-07      0.36643247E-06      0.84852668E-16      0.90594310E-14      0.20978406E-23      0.65987489E-15      0.27287951E-23
    0.201011676911         0.82159069E-07      0.36056768E-06     -0.98571584E-16      0.91340564E-14     -0.24970580E-23      0.68856320E-15      0.27209523E-23
    0.204152484362         0.85484636E-07      0.35460289E-06     -0.12203476E-15      0.92027651E-14     -0.31670843E-23      0.71746732E-15      0.27110051E-23
    0.207293291814         0.88909765E-07      0.34796467E-06     -0.35539059E-16      0.92500066E-14     -0.94474111E-24      0.74651981E-15      0.27080378E-23
    0.210434099266         0.92436830E-07      0.34129327E-06     -0.58630118E-16      0.92917886E-14     -0.15962186E-23      0.77570352E-15      0.27030244E-23
    0.213574906717         0.96068246E-07      0.33398129E-06      0.19085404E-16      0.93109599E-14      0.53207601E-24      0.80494746E-15      0.27046956E-23
    0.216715714169         0.99806478E-07      0.32673008E-06      0.10501244E-16      0.93261012E-14      0.29974487E-24      0.83423894E-15      0.27056370E-23
    0.219856521621         0.10365403E-06      0.31897008E-06      0.13471336E-15      0.93205057E-14      0.39364089E-23      0.86351286E-15      0.27180005E-23
    0.222997329073         0.10761347E-06      0.31129782E-06      0.10299219E-16      0.93107732E-14      0.30804486E-24      0.89275620E-15      0.27189680E-23
    0.226138136524         0.11168740E-06      0.30325833E-06      0.64532199E-16      0.92829451E-14      0.19753747E-23      0.92191215E-15      0.27251723E-23
    0.229278943976         0.11587846E-06      0.29533673E-06     -0.35914674E-16      0.92512126E-14     -0.11250016E-23      0.95096842E-15      0.27216389E-23
    0.232419751428         0.12018935E-06      0.28714870E-06      0.14621993E-16      0.92032764E-14      0.46864307E-24      0.97987414E-15      0.27231108E-23
    0.235560558880         0.12462281E-06      0.27914084E-06     -0.99245399E-18      0.91529485E-14     -0.32542283E-25      0.10086218E-14      0.27230086E-23
    0.238701366331         0.12918164E-06      0.27096946E-06      0.31644166E-15      0.90888494E-14      0.10614077E-22      0.10371681E-14      0.27563454E-23
    0.241842173783         0.13386868E-06      0.26298975E-06     -0.18366605E-16      0.90225322E-14     -0.63011310E-24      0.10655062E-14      0.27543663E-23
    0.244982981235         0.13868680E-06      0.25491231E-06      0.60015190E-16      0.89440189E-14      0.21057320E-23      0.10935976E-14      0.27609800E-23
    0.248123788686         0.14363896E-06      0.24707910E-06     -0.18916491E-16      0.88650772E-14     -0.67871444E-24      0.11214411E-14      0.27588483E-23
    0.251264596138         0.14872811E-06      0.23922754E-06     -0.30294954E-17      0.87763837E-14     -0.11114111E-24      0.11490060E-14      0.27584992E-23
    0.254405403590         0.15395730E-06      0.23162592E-06     -0.68385950E-17      0.86876794E-14     -0.25649772E-24      0.11762924E-14      0.27576936E-23
    0.257546211042         0.15932959E-06      0.22405714E-06      0.88790871E-17      0.85909806E-14      0.34044917E-24      0.12032750E-14      0.27587629E-23
    0.260687018493         0.16484812E-06      0.21676644E-06      0.22713650E-16      0.84957032E-14      0.89021357E-24      0.12299583E-14      0.27615589E-23
    0.263827825945         0.17051605E-06      0.20954776E-06      0.33233170E-16      0.83940273E-14      0.13312485E-23      0.12563224E-14      0.27657401E-23
    0.266968633397         0.17633661E-06      0.20256343E-06     -0.85036079E-18      0.82925091E-14     -0.34811934E-25      0.12823675E-14      0.27656307E-23
    0.270109440849         0.18231305E-06      0.19575037E-06     -0.15363538E-16      0.81888563E-14     -0.64270531E-24      0.13080872E-14      0.27636121E-23
    0.273250248300         0.18844869E-06      0.18917840E-06      0.19187117E-16      0.80862426E-14      0.82013427E-24      0.13334845E-14      0.27661880E-23
    0.276391055752         0.19474689E-06      0.18275470E-06      0.63875103E-16      0.79810085E-14      0.27894644E-23      0.13585513E-14      0.27749492E-23
    0.279531863204         0.20121105E-06      0.17658359E-06      0.12600445E-16      0.78779557E-14      0.56214594E-24      0.13832944E-14      0.27767148E-23
    0.282672670655         0.20784464E-06      0.17058309E-06      0.41535431E-16      0.77738055E-14      0.18928509E-23      0.14077105E-14      0.27826598E-23
    0.285813478107         0.21465116E-06      0.16480471E-06      0.31901582E-16      0.76711917E-14      0.14849281E-23      0.14318042E-14      0.27873237E-23
    0.288954285559         0.22163414E-06      0.15924852E-06     -0.11320108E-16      0.75705179E-14     -0.53814678E-24      0.14555817E-14      0.27856335E-23
    0.292095093011         0.22879719E-06      0.15394595E-06      0.27360263E-16      0.74737295E-14      0.13282792E-23      0.14790553E-14      0.27898054E-23
    0.295235900462         0.23614394E-06      0.14882533E-06      0.12218561E-16      0.73778048E-14      0.60571783E-24      0.15022276E-14      0.27917078E-23
    0.298376707914         0.24367808E-06      0.14397655E-06     -0.13810199E-16      0.72876246E-14     -0.69902735E-24      0.15251166E-14      0.27895123E-23
    0.301517515366         0.25140334E-06      0.13926205E-06      0.15860012E-16      0.71967091E-14      0.81960520E-24      0.15477201E-14      0.27920865E-23
    0.304658322818         0.25932350E-06      0.13478785E-06     -0.67760328E-17      0.71108622E-14     -0.35747610E-24      0.15700539E-14      0.27909638E-23
    0.307799130269         0.26744238E-06      0.13047786E-06      0.26393895E-17      0.70265534E-14      0.14213761E-24      0.15921230E-14      0.27914102E-23
    0.310939937721         0.27576385E-06      0.12640646E-06     -0.27128926E-17      0.69482072E-14     -0.14912007E-24      0.16139459E-14      0.27909418E-23
    0.314080745173         0.28429181E-06      0.12252194E-06     -0.29241502E-17      0.68735258E-14     -0.16404590E-24      0.16355344E-14      0.27904266E-23
    0.317221552624         0.29303021E-06      0.11888515E-06     -0.14667384E-16      0.68064396E-14     -0.83974039E-24      0.16569121E-14      0.27877891E-23
    0.320362360076         0.30198307E-06      0.11536183E-06      0.23737601E-16      0.67397830E-14      0.13868216E-23      0.16780804E-14      0.27921449E-23
    0.323503167528         0.31115440E-06      0.11207485E-06     -0.38674570E-16      0.66811042E-14     -0.23055024E-23      0.16990645E-14      0.27849037E-23
    0.326643974980         0.32054830E-06      0.10892957E-06      0.19404063E-16      0.66253268E-14      0.11801962E-23      0.17198734E-14      0.27886105E-23
    0.329784782431         0.33016890E-06      0.10602089E-06      0.50319149E-18      0.65786936E-14      0.31223494E-25      0.17405358E-14      0.27887086E-23
    0.332925589883         0.34002034E-06      0.10320771E-06      0.84314433E-17      0.65329984E-14      0.53370629E-24      0.17610547E-14      0.27903848E-23
    0.336066397335         0.35010685E-06      0.10066126E-06      0.23760404E-16      0.64995092E-14      0.15341648E-23      0.17814684E-14      0.27952034E-23
    0.339207204787         0.36043265E-06      0.98229115E-07      0.59064127E-17      0.64690718E-14      0.38897844E-24      0.18017865E-14      0.27964251E-23
    0.342348012238         0.37100205E-06      0.95957380E-07      0.16603731E-16      0.64450985E-14      0.11152105E-23      0.18220293E-14      0.27999277E-23
    0.345488819690         0.38181936E-06      0.93820191E-07     -0.34543628E-16      0.64263286E-14     -0.23661080E-23      0.18422132E-14      0.27924962E-23
    0.348629627142         0.39288894E-06      0.91953211E-07      0.11582355E-16      0.64226622E-14      0.80899355E-24      0.18623855E-14      0.27950371E-23
    0.351770434593         0.40421519E-06      0.90120765E-07     -0.12124699E-16      0.64183122E-14     -0.86350910E-24      0.18825442E-14      0.27923250E-23
    0.354911242045         0.41580254E-06      0.88578767E-07      0.14736254E-16      0.64319060E-14      0.10700330E-23      0.19027456E-14      0.27956858E-23
    0.358052049497         0.42765547E-06      0.87067983E-07     -0.35265691E-17      0.64453874E-14     -0.26106157E-24      0.19229893E-14      0.27948658E-23
    0.361192856949         0.43977848E-06      0.85866955E-07     -0.25042172E-16      0.64798291E-14     -0.18897724E-23      0.19433412E-14      0.27889304E-23
    0.364333664400         0.45217610E-06      0.84684024E-07      0.24454941E-17      0.65140707E-14      0.18811248E-24      0.19638006E-14      0.27895212E-23
    0.367474471852         0.46485292E-06      0.83833902E-07     -0.16997716E-16      0.65728050E-14     -0.13326669E-23      0.19844445E-14      0.27853356E-23
    0.370615279304         0.47781353E-06      0.82987557E-07     -0.24340941E-17      0.66311794E-14     -0.19449801E-24      0.20052718E-14      0.27847247E-23
    0.373756086755         0.49106257E-06      0.82551304E-07     -0.12578880E-16      0.67222580E-14     -0.10243143E-23      0.20263851E-14      0.27815075E-23
    0.376896894207         0.50460471E-06      0.82143909E-07     -0.28470998E-16      0.68162699E-14     -0.23625125E-23      0.20477937E-14      0.27740873E-23
    0.380037701659         0.51844464E-06      0.82125293E-07     -0.19570381E-16      0.69437697E-14     -0.16546939E-23      0.20696028E-14      0.27688903E-23
    0.383178509111         0.53258708E-06      0.82060068E-07     -0.15968445E-17      0.70690985E-14     -0.13756083E-24      0.20918054E-14      0.27684582E-23
