
 # Omega; pulse ft; projected flux at t=    1000.2500000000000     
    0.000000000000         0.18717486E-09      0.00000000E+00      0.00000000E+00      0.15726466E-13      0.64623485E-26
    0.003140022642         0.20186436E-09      0.62681421E-06     -0.96029924E-18      0.15692360E-13     -0.24041192E-25
    0.006280045285         0.24594737E-09      0.10409979E-05      0.64765177E-18      0.15876392E-13      0.98774198E-26
    0.009420067927         0.31946741E-09      0.12087998E-05     -0.35965803E-18      0.15964284E-13     -0.47499041E-26
    0.012560090569         0.42249703E-09      0.12229405E-05      0.94231355E-18      0.16019861E-13      0.12343800E-25
    0.015700113211         0.55513782E-09      0.11685102E-05      0.75415303E-19      0.16089890E-13      0.10384368E-26
    0.018840135854         0.71752051E-09      0.10877987E-05      0.62174446E-18      0.16133231E-13      0.92211430E-26
    0.021980158496         0.90980495E-09      0.10049557E-05     -0.13440389E-17      0.16198952E-13     -0.21664660E-25
    0.025120181138         0.11321802E-08      0.92531540E-06      0.15239786E-17      0.16240714E-13      0.26748178E-25
    0.028260203780         0.13848647E-08      0.85443661E-06      0.26481936E-19      0.16305512E-13      0.50536402E-27
    0.031400226423         0.16681061E-08      0.79011999E-06     -0.77476377E-18      0.16345811E-13     -0.16028125E-25
    0.034540249065         0.19821816E-08      0.73422476E-06      0.32603955E-18      0.16408525E-13      0.72863631E-26
    0.037680271707         0.23273981E-08      0.68398828E-06     -0.32921883E-18      0.16452347E-13     -0.79188816E-26
    0.040820294349         0.27040919E-08      0.64019132E-06     -0.50722663E-18      0.16514965E-13     -0.13084885E-25
    0.043960316992         0.31126296E-08      0.60054060E-06      0.53407622E-18      0.16558902E-13      0.14726258E-25
    0.047100339634         0.35534072E-08      0.56571824E-06     -0.49333279E-19      0.16620484E-13     -0.14493840E-26
    0.050240362276         0.40268513E-08      0.53395194E-06     -0.27837002E-18      0.16666237E-13     -0.86887605E-26
    0.053380384919         0.45334185E-08      0.50576925E-06      0.28394604E-18      0.16727039E-13      0.93907974E-26
    0.056520407561         0.50735959E-08      0.47987382E-06      0.51730685E-18      0.16774910E-13      0.18083453E-25
    0.059660430203         0.56479014E-08      0.45664893E-06     -0.34030354E-18      0.16834713E-13     -0.12545551E-25
    0.062800452845         0.62568834E-08      0.43519100E-06      0.34916599E-18      0.16884870E-13      0.13547207E-25
    0.065940475488         0.69011217E-08      0.41573708E-06     -0.21926933E-18      0.16943726E-13     -0.89365122E-26
    0.069080498130         0.75812269E-08      0.39769778E-06     -0.71123643E-18      0.16996510E-13     -0.30396290E-25
    0.072220520772         0.82978416E-08      0.38115825E-06     -0.78344687E-18      0.17054241E-13     -0.35053922E-25
    0.075360543414         0.90516395E-08      0.36578627E-06      0.44680457E-19      0.17109337E-13      0.20898898E-26
    0.078500566057         0.98433265E-08      0.35155393E-06     -0.33313365E-18      0.17166573E-13     -0.16267101E-25
    0.081640588699         0.10673641E-07      0.33831212E-06      0.10230293E-18      0.17224497E-13      0.52085527E-26
    0.084780611341         0.11543353E-07      0.32591640E-06      0.13103922E-18      0.17280813E-13      0.69479910E-26
    0.087920633984         0.12453265E-07      0.31438729E-06     -0.10755181E-18      0.17341232E-13     -0.59324312E-26
    0.091060656626         0.13404215E-07      0.30349184E-06     -0.23540848E-19      0.17397232E-13     -0.13494452E-26
    0.094200679268         0.14397070E-07      0.29336645E-06     -0.12467024E-18      0.17460355E-13     -0.74200257E-26
    0.097340701910         0.15432734E-07      0.28366951E-06     -0.20580581E-18      0.17513930E-13     -0.12706577E-25
    0.100480724553         0.16512144E-07      0.27473211E-06     -0.14570507E-18      0.17581368E-13     -0.93243359E-26
    0.103620747195         0.17636269E-07      0.26603216E-06     -0.72890481E-19      0.17632613E-13     -0.48311814E-26
    0.106760769837         0.18806114E-07      0.25808943E-06     -0.48201437E-19      0.17704356E-13     -0.33065105E-26
    0.109900792479         0.20022721E-07      0.25023767E-06     -0.19490876E-18      0.17754052E-13     -0.13828534E-25
    0.113040815122         0.21287162E-07      0.24314481E-06      0.14215246E-18      0.17830767E-13      0.10424600E-25
    0.116180837764         0.22600547E-07      0.23602944E-06      0.21428218E-19      0.17880233E-13      0.16232785E-26
    0.119320860406         0.23964023E-07      0.22967034E-06      0.10830987E-18      0.17962666E-13      0.84709856E-26
    0.122460883048         0.25378770E-07      0.22333254E-06      0.15927920E-19      0.18023858E-13      0.12854488E-26
    0.125600905691         0.26846007E-07      0.21747233E-06     -0.12497898E-18      0.18101455E-13     -0.10402709E-25
    0.128740928333         0.28366986E-07      0.21293693E-06     -0.96630679E-19      0.18271327E-13     -0.82915198E-26
    0.131880950975         0.29943001E-07      0.20621208E-06     -0.56855762E-20      0.18232654E-13     -0.50270161E-27
    0.135020973618         0.31575378E-07      0.20298436E-06     -0.25857674E-18      0.18485552E-13     -0.23548287E-25
    0.138160996260         0.33265483E-07      0.19767019E-06     -0.86074991E-19      0.18534126E-13     -0.80706387E-26
    0.141301018902         0.35014721E-07      0.19195469E-06      0.72936833E-19      0.18523653E-13      0.70384142E-26
    0.144441041544         0.36824533E-07      0.18761556E-06     -0.31248386E-19      0.18626791E-13     -0.31023927E-26
    0.147581064187         0.38696400E-07      0.18240317E-06     -0.10551957E-18      0.18624938E-13     -0.10774459E-25
    0.150721086829         0.40631842E-07      0.17848556E-06      0.52610992E-19      0.18737780E-13      0.55232096E-26
    0.153861109471         0.42632417E-07      0.17372469E-06     -0.88018761E-19      0.18745420E-13     -0.94974909E-26
    0.157001132113         0.44699723E-07      0.17000485E-06      0.29900852E-19      0.18848896E-13      0.33151880E-26
    0.160141154756         0.46835399E-07      0.16578903E-06      0.75099329E-19      0.18882070E-13      0.85532244E-26
    0.163281177398         0.49041122E-07      0.16227379E-06     -0.34007757E-19      0.18979956E-13     -0.39776339E-26
    0.166421200040         0.51318613E-07      0.15843470E-06      0.51600965E-19      0.19025633E-13      0.61965024E-26
    0.169561222683         0.53669630E-07      0.15513900E-06     -0.19964610E-19      0.19122541E-13     -0.24608516E-26
    0.172701245325         0.56095974E-07      0.15159009E-06     -0.14398232E-18      0.19174744E-13     -0.18212432E-25
    0.175841267967         0.58599489E-07      0.14850807E-06     -0.74417484E-20      0.19272836E-13     -0.96576296E-27
    0.178981290609         0.61182058E-07      0.14519438E-06     -0.25912904E-19      0.19328083E-13     -0.34494915E-26
    0.182121313252         0.63845608E-07      0.14231363E-06     -0.55212617E-19      0.19428501E-13     -0.75375659E-26
    0.185261335894         0.66592107E-07      0.13920808E-06      0.16788443E-19      0.19486101E-13      0.23500166E-26
    0.188401358536         0.69423567E-07      0.13649708E-06     -0.11250368E-19      0.19587040E-13     -0.16144038E-26
    0.191541381178         0.72342043E-07      0.13359502E-06     -0.55847631E-19      0.19649023E-13     -0.82140142E-26
    0.194681403821         0.75349631E-07      0.13104073E-06     -0.16676876E-18      0.19750838E-13     -0.25135869E-25
    0.197821426463         0.78448474E-07      0.12831975E-06     -0.39131260E-19      0.19816513E-13     -0.60430690E-26
    0.200961449105         0.81640757E-07      0.12591343E-06     -0.20204730E-19      0.19919978E-13     -0.31964644E-26
    0.204101471747         0.84928709E-07      0.12335516E-06     -0.34637330E-19      0.19988870E-13     -0.56127453E-26
    0.207241494390         0.88314602E-07      0.12108494E-06      0.33301303E-19      0.20094095E-13      0.55263651E-26
    0.210381517032         0.91800755E-07      0.11867579E-06     -0.76109242E-19      0.20166167E-13     -0.12932980E-25
    0.213521539674         0.95389531E-07      0.11653067E-06      0.11301967E-19      0.20273176E-13      0.19662358E-26
    0.216661562317         0.99083337E-07      0.11425968E-06     -0.42993166E-19      0.20348589E-13     -0.76566839E-26
    0.219801584959         0.10288463E-06      0.11222994E-06     -0.18042443E-18      0.20457423E-13     -0.32888006E-25
    0.222941607601         0.10679590E-06      0.11008712E-06      0.15497187E-18      0.20536313E-13      0.28909386E-25
    0.226081630243         0.11081969E-06      0.10816376E-06     -0.65188062E-19      0.20646954E-13     -0.12443492E-25
    0.229221652886         0.11495860E-06      0.10614052E-06     -0.51905346E-19      0.20729535E-13     -0.10137257E-25
    0.232361675528         0.11921526E-06      0.10431583E-06     -0.10026717E-19      0.20842034E-13     -0.20033123E-26
    0.235501698170         0.12359235E-06      0.10240436E-06      0.26421277E-19      0.20928520E-13      0.53997529E-26
    0.238641720812         0.12809259E-06      0.10067116E-06     -0.75796729E-19      0.21042884E-13     -0.15843482E-25
    0.241781743455         0.13271877E-06      0.98864430E-07     -0.82992567E-19      0.21133501E-13     -0.17740693E-25
    0.244921766097         0.13747370E-06      0.97216518E-07     -0.55109275E-20      0.21249799E-13     -0.12045906E-26
    0.248061788739         0.14236024E-06      0.95508195E-07     -0.56233108E-19      0.21344797E-13     -0.12567343E-25
    0.251201811381         0.14738131E-06      0.93939964E-07     -0.16108549E-19      0.21463107E-13     -0.36804306E-26
    0.254341834024         0.15253987E-06      0.92324018E-07     -0.50752295E-19      0.21562684E-13     -0.11853424E-25
    0.257481856666         0.15783893E-06      0.90830452E-07     -0.16307882E-20      0.21683107E-13     -0.38930286E-27
    0.260621879308         0.16328153E-06      0.89301570E-07     -0.50336675E-19      0.21787521E-13     -0.12280987E-25
    0.263761901951         0.16887077E-06      0.87878208E-07     -0.24457663E-20      0.21910191E-13     -0.60978948E-27
    0.266901924593         0.17460981E-06      0.86431351E-07     -0.15294805E-19      0.22019668E-13     -0.38965784E-26
    0.270041947235         0.18050182E-06      0.85073962E-07      0.44995206E-19      0.22144687E-13      0.11712218E-25
    0.273181969877         0.18655005E-06      0.83704650E-07     -0.64726087E-19      0.22259503E-13     -0.17212551E-25
    0.276321992520         0.19275778E-06      0.82409635E-07     -0.36750287E-19      0.22387056E-13     -0.99834292E-26
    0.279462015162         0.19912834E-06      0.81113677E-07      0.18966670E-19      0.22507482E-13      0.52628855E-26
    0.282602037804         0.20566511E-06      0.79878035E-07     -0.24828896E-20      0.22637854E-13     -0.70366393E-27
    0.285742060446         0.21237151E-06      0.78651076E-07      0.19392362E-19      0.22764037E-13      0.56127453E-26
    0.288882083089         0.21925100E-06      0.77471984E-07     -0.65664000E-19      0.22897507E-13     -0.19407556E-25
    0.292022105731         0.22630710E-06      0.76310680E-07     -0.45747853E-19      0.23029808E-13     -0.13806249E-25
    0.295162128373         0.23354337E-06      0.75184979E-07      0.29945179E-19      0.23166505E-13      0.92269116E-26
    0.298302151016         0.24096340E-06      0.74086606E-07     -0.14227685E-19      0.23305421E-13     -0.44756023E-26
    0.301442173658         0.24857086E-06      0.73011187E-07      0.14622819E-19      0.23445427E-13      0.46956945E-26
    0.304582196300         0.25636942E-06      0.71971199E-07     -0.11985206E-19      0.23590818E-13     -0.39285273E-26
    0.307722218942         0.26436283E-06      0.70945587E-07     -0.58616516E-19      0.23735013E-13     -0.19610293E-25
    0.310862241585         0.27255487E-06      0.69962164E-07     -0.13028488E-19      0.23887558E-13     -0.44483866E-26
    0.314002264227         0.28094936E-06      0.68983935E-07      0.11788816E-19      0.24036198E-13      0.41075987E-26
    0.317142286869         0.28955016E-06      0.68053635E-07     -0.27776523E-19      0.24195997E-13     -0.98757497E-26
    0.320282309511         0.29836118E-06      0.67121062E-07      0.13630052E-19      0.24349538E-13      0.49445802E-26
    0.323422332154         0.30738639E-06      0.66241632E-07      0.51615912E-19      0.24517049E-13      0.19103845E-25
    0.326562354796         0.31662976E-06      0.65353094E-07     -0.11202607E-19      0.24675974E-13     -0.42298722E-26
    0.329702377438         0.32609534E-06      0.64522072E-07     -0.32790400E-19      0.24851543E-13     -0.12629663E-25
    0.332842400080         0.33578719E-06      0.63676424E-07     -0.10561805E-19      0.25016508E-13     -0.41494084E-26
    0.335982422723         0.34570944E-06      0.62891516E-07     -0.85672642E-19      0.25200508E-13     -0.34328860E-25
    0.339122445365         0.35586624E-06      0.62087862E-07      0.52707682E-19      0.25372280E-13      0.21539058E-25
    0.342262468007         0.36626178E-06      0.61346748E-07      0.46945855E-21      0.25565036E-13      0.19563750E-27
    0.345402490650         0.37690029E-06      0.60584070E-07     -0.35557922E-19      0.25744354E-13     -0.15109842E-25
    0.348542513292         0.38778604E-06      0.59887004E-07      0.18516650E-20      0.25947263E-13      0.80227154E-27
    0.351682535934         0.39892335E-06      0.59160177E-07      0.13213329E-19      0.26133084E-13      0.58367818E-26
    0.354822558576         0.41031655E-06      0.58506819E-07     -0.14119038E-19      0.26347344E-13     -0.63582189E-26
    0.357962581219         0.42197002E-06      0.57819982E-07      0.18096873E-19      0.26542661E-13      0.83074942E-26
    0.361102603861         0.43388818E-06      0.57204202E-07      0.41122367E-19      0.26766875E-13      0.19241895E-25
    0.364242626503         0.44607547E-06      0.56557063E-07     -0.21284888E-19      0.26972858E-13     -0.10151062E-25
    0.367382649145         0.45853638E-06      0.55979324E-07      0.12195340E-19      0.27208547E-13      0.59275008E-26
    0.370522671788         0.47127541E-06      0.55370444E-07      0.17417122E-19      0.27425878E-13      0.86269829E-26
    0.373662694430         0.48429711E-06      0.54830095E-07     -0.24886891E-19      0.27674111E-13     -0.12561032E-25
    0.376802717072         0.49760605E-06      0.54259203E-07      0.23050404E-19      0.27904072E-13      0.11854213E-25
    0.379942739715         0.51120685E-06      0.53755474E-07      0.28507864E-19      0.28165908E-13      0.14937081E-25
    0.383082762357         0.52510413E-06      0.53222593E-07     -0.75886673E-20      0.28410011E-13     -0.40508007E-26
    0.386222784999         0.53930256E-06      0.52754850E-07      0.16264011E-19      0.28686629E-13      0.88439196E-26
    0.389362807641         0.55380682E-06      0.52260273E-07     -0.44079302E-20      0.28946633E-13     -0.24415245E-26
    0.392502830284         0.56862162E-06      0.51828121E-07     -0.59175641E-20      0.29239408E-13     -0.33384594E-26
    0.395642852926         0.58375171E-06      0.51372377E-07      0.68386377E-20      0.29517328E-13      0.39293162E-26
    0.398782875568         0.59920184E-06      0.50975681E-07     -0.66113739E-20      0.29827868E-13     -0.38685739E-26
    0.401922898210         0.61497679E-06      0.50559711E-07     -0.50384443E-19      0.30126113E-13     -0.30021679E-25
    0.405062920853         0.63108138E-06      0.50198577E-07      0.92315231E-22      0.30456278E-13      0.56009124E-28
    0.408202943495         0.64752043E-06      0.49823671E-07     -0.16273173E-19      0.30777661E-13     -0.10052455E-25
    0.411342966137         0.66429877E-06      0.49498420E-07     -0.17436711E-19      0.31129579E-13     -0.10965955E-25
    0.414482988779         0.68142128E-06      0.49166729E-07      0.56334589E-20      0.31477689E-13      0.36066721E-26
    0.417623011422         0.69889282E-06      0.48877793E-07      0.12867228E-20      0.31853730E-13      0.83855914E-27
    0.420763034064         0.71671828E-06      0.48592016E-07     -0.81593282E-20      0.32232825E-13     -0.54123747E-26
    0.423903056706         0.73490258E-06      0.48340162E-07      0.12025813E-19      0.32635770E-13      0.81189564E-26
    0.427043079349         0.75345064E-06      0.48104625E-07      0.11378065E-19      0.33051600E-13      0.78176116E-26
    0.430183101991         0.77236737E-06      0.47890477E-07      0.19811483E-18      0.33484381E-13      0.13851924E-24
    0.433323124633         0.79165771E-06      0.47711563E-07     -0.52175584E-19      0.33944684E-13     -0.37120639E-25
    0.436463147275         0.81132662E-06      0.47535174E-07     -0.48620607E-19      0.34410087E-13     -0.35195818E-25
    0.439603169918         0.83137904E-06      0.47423414E-07     -0.17060859E-19      0.34926383E-13     -0.12564976E-25
    0.442743192560         0.85181993E-06      0.47282710E-07     -0.71385775E-20      0.35425893E-13     -0.53484769E-26
    0.445883215202         0.87265424E-06      0.47257331E-07      0.21437732E-19      0.36017438E-13      0.16338887E-25
    0.449023237844         0.89388696E-06      0.47142731E-07     -0.79972827E-19      0.36546944E-13     -0.61998156E-25
    0.452163260487         0.91552302E-06      0.47244820E-07     -0.40479000E-20      0.37252098E-13     -0.31917312E-26
    0.455303283129         0.93756741E-06      0.47119483E-07     -0.20798032E-19      0.37785466E-13     -0.16678097E-25
    0.458443305771         0.96002506E-06      0.47460137E-07     -0.89711485E-20      0.38703342E-13     -0.73158960E-26
    0.461583328413         0.98290095E-06      0.47140085E-07     -0.35044050E-19      0.39090619E-13     -0.29060058E-25
    0.464723351056         0.10062000E-05      0.48182096E-07     -0.13461346E-19      0.40625438E-13     -0.11350131E-25
    0.467863373698         0.10299272E-05      0.45721890E-07     -0.72292274E-20      0.39195319E-13     -0.61972913E-26
    0.471003396340         0.10540874E-05      0.49743363E-07     -0.10137791E-19      0.43352114E-13     -0.88352421E-26
    0.474143418983         0.10786856E-05      0.50572576E-07      0.60655107E-20      0.44804618E-13      0.53737205E-26
    0.477283441625         0.11037267E-05      0.43640962E-07     -0.23472680E-19      0.39300858E-13     -0.21138317E-25
    0.480423464267         0.11292155E-05      0.46092139E-07     -0.98404578E-20      0.42189272E-13     -0.90072138E-26
    0.483563486909         0.11551570E-05      0.46859173E-07      0.22607395E-20      0.43591787E-13      0.21031032E-26
    0.486703509552         0.11815559E-05      0.47537875E-07     -0.22093944E-19      0.44941971E-13     -0.20887459E-25
    0.489843532194         0.12084172E-05      0.48178991E-07      0.54359612E-21      0.46284948E-13      0.52222592E-27
    0.492983554836         0.12357457E-05      0.48803153E-07      0.93128899E-20      0.47639489E-13      0.90908331E-26
    0.496123577478         0.12635461E-05      0.49456869E-07     -0.14011479E-19      0.49051283E-13     -0.13896574E-25
    0.499263600121         0.12918231E-05      0.50163664E-07     -0.17342739E-19      0.50545786E-13     -0.17474847E-25
    0.502403622763         0.13205817E-05      0.50911143E-07     -0.22338483E-19      0.52113218E-13     -0.22865922E-25
    0.505543645405         0.13498263E-05      0.51688442E-07     -0.27320068E-19      0.53744648E-13     -0.28406881E-25
    0.508683668048         0.13795618E-05      0.52612351E-07     -0.17060063E-19      0.55565294E-13     -0.18017583E-25
