
 # Omega; pulse ft; projected flux at t=    1000.2500000000000     
    0.000000000000         0.10847490E-10      0.00000000E+00     -0.00000000E+00      0.24737460E-08     -0.18818036E-21
    0.003140022642         0.11093634E-10      0.18087631E+01     -0.51427017E-12      0.24885437E-08     -0.70754641E-21
    0.006280045285         0.11830642E-10      0.34131186E+01     -0.55669615E-13      0.25039143E-08     -0.40840053E-22
    0.009420067927         0.13054251E-10      0.46686539E+01      0.25264848E-12      0.25194871E-08      0.13634435E-21
    0.012560090569         0.14757372E-10      0.55406259E+01     -0.26985177E-12      0.25351149E-08     -0.12347075E-21
    0.015700113211         0.16930121E-10      0.60747697E+01      0.51225420E-12      0.25509952E-08      0.21511236E-21
    0.018840135854         0.19559852E-10      0.63491638E+01     -0.80545319E-12      0.25669689E-08     -0.32564498E-21
    0.021980158496         0.22631207E-10      0.64425386E+01     -0.19897009E-11      0.25831907E-08     -0.79778750E-21
    0.025120181138         0.26126176E-10      0.64183425E+01     -0.18900571E-12      0.25995520E-08     -0.76550943E-22
    0.028260203780         0.30024165E-10      0.63233348E+01      0.45854998E-12      0.26161604E-08      0.18971640E-21
    0.031400226423         0.34302079E-10      0.61890376E+01     -0.11277173E-11      0.26328937E-08     -0.47974498E-21
    0.034540249065         0.38934408E-10      0.60366337E+01     -0.36917348E-12      0.26498755E-08     -0.16205452E-21
    0.037680271707         0.43893332E-10      0.58791928E+01     -0.52136697E-12      0.26670108E-08     -0.23651058E-21
    0.040820294349         0.49148832E-10      0.57251362E+01     -0.38721771E-11      0.26843889E-08     -0.18155777E-20
    0.043960316992         0.54668813E-10      0.55792240E+01      0.79516910E-14      0.27019367E-08      0.38508878E-23
    0.047100339634         0.60419233E-10      0.54444101E+01     -0.83292434E-12      0.27197222E-08     -0.41608232E-21
    0.050240362276         0.66364250E-10      0.53220864E+01     -0.85642394E-12      0.27377002E-08     -0.44054753E-21
    0.053380384919         0.72466374E-10      0.52130007E+01     -0.80507004E-12      0.27559108E-08     -0.42560923E-21
    0.056520407561         0.78686628E-10      0.51172898E+01      0.10387199E-11      0.27743305E-08      0.56314037E-21
    0.059660430203         0.84984724E-10      0.50348969E+01     -0.12457016E-11      0.27929786E-08     -0.69102070E-21
    0.062800452845         0.91319245E-10      0.49655959E+01     -0.61334380E-12      0.28118585E-08     -0.34731702E-21
    0.065940475488         0.97647837E-10      0.49090834E+01     -0.25023594E-12      0.28309585E-08     -0.14430547E-21
    0.069080498130         0.10392742E-09      0.48651357E+01     -0.15649685E-11      0.28503105E-08     -0.91685954E-21
    0.072220520772         0.11011438E-09      0.48334595E+01     -0.92223609E-12      0.28698819E-08     -0.54758061E-21
    0.075360543414         0.11616481E-09      0.48139732E+01      0.10292737E-12      0.28897267E-08      0.61785136E-22
    0.078500566057         0.12203475E-09      0.48064858E+01     -0.13160549E-11      0.29097853E-08     -0.79672290E-21
    0.081640588699         0.12768041E-09      0.48111360E+01     -0.42197938E-12      0.29301395E-08     -0.25699927E-21
    0.084780611341         0.13305840E-09      0.48278876E+01     -0.21568119E-12      0.29507026E-08     -0.13181977E-21
    0.087920633984         0.13812604E-09      0.48571414E+01     -0.15915849E-11      0.29715843E-08     -0.97372677E-21
    0.091060656626         0.14284161E-09      0.48990580E+01     -0.11831124E-11      0.29926718E-08     -0.72272404E-21
    0.094200679268         0.14716459E-09      0.49543427E+01      0.35496145E-12      0.30141016E-08      0.21594991E-21
    0.097340701910         0.15105600E-09      0.50233973E+01     -0.80116983E-12      0.30357331E-08     -0.48416194E-21
    0.100480724553         0.15447866E-09      0.51072949E+01     -0.95044191E-12      0.30577306E-08     -0.56902830E-21
    0.103620747195         0.15739751E-09      0.52067503E+01      0.25597844E-12      0.30799270E-08      0.15141785E-21
    0.106760769837         0.15977989E-09      0.53232973E+01     -0.14651444E-11      0.31025136E-08     -0.85391254E-21
    0.109900792479         0.16159592E-09      0.54580713E+01     -0.35982551E-13      0.31252971E-08     -0.20603645E-22
    0.113040815122         0.16281876E-09      0.56132104E+01      0.31938893E-12      0.31484952E-08      0.17914784E-21
    0.116180837764         0.16342499E-09      0.57904393E+01     -0.17853748E-11      0.31718893E-08     -0.97799335E-21
    0.119320860406         0.16339494E-09      0.59927238E+01     -0.44795733E-12      0.31957222E-08     -0.23888089E-21
    0.122460883048         0.16271302E-09      0.62226434E+01      0.70289147E-12      0.32197516E-08      0.36369366E-21
    0.125600905691         0.16136811E-09      0.64843441E+01     -0.13015022E-11      0.32442442E-08     -0.65116701E-21
    0.128740928333         0.15935390E-09      0.67816856E+01     -0.72093127E-12      0.32689348E-08     -0.34750613E-21
    0.131880950975         0.15666928E-09      0.71205601E+01     -0.60076706E-13      0.32941129E-08     -0.27792680E-22
    0.135020973618         0.15331870E-09      0.75068066E+01     -0.10298803E-11      0.33194922E-08     -0.45541066E-21
    0.138160996260         0.14931255E-09      0.79489999E+01     -0.62299876E-12      0.33453833E-08     -0.26219269E-21
    0.141301018902         0.14466758E-09      0.84561399E+01      0.17278996E-12      0.33714803E-08      0.68891712E-22
    0.144441041544         0.13940727E-09      0.90410830E+01     -0.21081847E-11      0.33981131E-08     -0.79236635E-21
    0.147581064187         0.13356225E-09      0.97180608E+01     -0.10661334E-11      0.34249580E-08     -0.37573978E-21
    0.150721086829         0.12717068E-09      0.10507055E+02     -0.92277051E-12      0.34523635E-08     -0.30320003E-21
    0.153861109471         0.12027870E-09      0.11431296E+02     -0.34170203E-11      0.34799892E-08     -0.10402314E-20
    0.157001132113         0.11294082E-09      0.12523149E+02     -0.26478958E-11      0.35081992E-08     -0.74177397E-21
    0.160141154756         0.10522036E-09      0.13822020E+02      0.50644149E-12      0.35366402E-08      0.12958318E-21
    0.163281177398         0.97189861E-10      0.15382814E+02     -0.34686641E-11      0.35656867E-08     -0.80402514E-21
    0.166421200040         0.88931555E-10      0.17275381E+02     -0.37395305E-11      0.35949876E-08     -0.77819218E-21
    0.169561222683         0.80537758E-10      0.19597469E+02      0.23055756E-11      0.36248957E-08      0.42645667E-21
    0.172701245325         0.72111337E-10      0.22478492E+02     -0.36728613E-11      0.36550876E-08     -0.59722111E-21
    0.175841267967         0.63766150E-10      0.26100837E+02     -0.45747563E-11      0.36859239E-08     -0.64604072E-21
    0.178981290609         0.55627495E-10      0.30710876E+02      0.60693903E-11      0.37170346E-08      0.73459755E-21
    0.182121313252         0.47832561E-10      0.36653026E+02     -0.19883319E-11      0.37488256E-08     -0.20336410E-21
    0.185261335894         0.40530887E-10      0.44378506E+02     -0.44831625E-11      0.37809117E-08     -0.38195161E-21
    0.188401358536         0.33884816E-10      0.54450575E+02     -0.74225104E-12      0.38136964E-08     -0.51986965E-22
    0.191541381178         0.28069961E-10      0.67405936E+02     -0.13364205E-10      0.38468024E-08     -0.76268440E-21
    0.194681403821         0.23275664E-10      0.83349263E+02      0.45680503E-11      0.38806271E-08      0.21268214E-21
    0.197821426463         0.19705465E-10      0.10091917E+03      0.12492342E-10      0.39147999E-08      0.48459593E-21
    0.200961449105         0.17577570E-10      0.11595706E+03     -0.20989591E-10      0.39497154E-08     -0.71494494E-21
    0.204101471747         0.17125315E-10      0.12195907E+03      0.16079118E-11      0.39850069E-08      0.52538444E-22
    0.207241494390         0.18597645E-10      0.11506347E+03      0.86330963E-11      0.40210665E-08      0.30169657E-21
    0.210381517032         0.22259579E-10      0.98475940E+02      0.11334351E-11      0.40575328E-08      0.46701254E-22
    0.213521539674         0.28392684E-10      0.79075990E+02      0.17300454E-10      0.40947929E-08      0.89586959E-21
    0.216661562317         0.37295552E-10      0.61647364E+02     -0.76004644E-12      0.41324940E-08     -0.50949256E-22
    0.219801584959         0.49284270E-10      0.47768489E+02     -0.13153212E-10      0.41710131E-08     -0.11485023E-20
    0.222941607601         0.64692893E-10      0.37255924E+02     -0.55396917E-12      0.42100120E-08     -0.62599892E-22
    0.226081630243         0.83873922E-10      0.29416411E+02     -0.71548936E-12      0.42498529E-08     -0.10336831E-21
    0.229221652886         0.10719877E-09      0.23557138E+02     -0.17810953E-11      0.42902168E-08     -0.32437238E-21
    0.232361675528         0.13505825E-09      0.19136120E+02      0.13263221E-11      0.43314474E-08      0.30021209E-21
    0.235501698170         0.16786301E-09      0.15755079E+02     -0.12635380E-11      0.43732478E-08     -0.35072911E-21
    0.238641720812         0.20604406E-09      0.13133696E+02     -0.36070037E-11      0.44159408E-08     -0.12127824E-20
    0.241781743455         0.25005319E-09      0.11072121E+02     -0.94988817E-12      0.44592547E-08     -0.38256384E-21
    0.244921766097         0.30036346E-09      0.94298935E+01      0.57464573E-13      0.45034883E-08      0.27443686E-22
    0.248061788739         0.35746965E-09      0.81050672E+01     -0.14202406E-11      0.45483980E-08     -0.79701000E-21
    0.251201811381         0.42188874E-09      0.70245342E+01     -0.92016903E-12      0.45942565E-08     -0.60181821E-21
    0.254341834024         0.49416037E-09      0.61337336E+01     -0.54797269E-12      0.46408504E-08     -0.41460217E-21
    0.257481856666         0.57484728E-09      0.53926044E+01     -0.24094054E-11      0.46884247E-08     -0.20947793E-20
    0.260621879308         0.66453577E-09      0.47703993E+01     -0.36720490E-12      0.47367969E-08     -0.36461833E-21
    0.263761901951         0.76383615E-09      0.42440315E+01     -0.25023401E-12      0.47861829E-08     -0.28220001E-21
    0.266901924593         0.87338321E-09      0.37953356E+01     -0.77807953E-12      0.48364406E-08     -0.99151586E-21
    0.270041947235         0.99383660E-09      0.34103797E+01     -0.20785633E-12      0.48877506E-08     -0.29789936E-21
    0.273181969877         0.11258814E-08      0.30779651E+01      0.39841379E-14      0.49399986E-08      0.63943661E-23
    0.276321992520         0.12702283E-08      0.27893448E+01     -0.53464633E-12      0.49933391E-08     -0.95709588E-21
    0.279462015162         0.14276143E-08      0.25373652E+01     -0.22242128E-12      0.50477009E-08     -0.44247321E-21
    0.282602037804         0.15988030E-08      0.23163291E+01     -0.94737417E-13      0.51031988E-08     -0.20871985E-21
    0.285742060446         0.17845852E-08      0.21215219E+01     -0.44682078E-12      0.51598038E-08     -0.10867234E-20
    0.288882083089         0.19857789E-08      0.19491148E+01     -0.29296047E-12      0.52175936E-08     -0.78422712E-21
    0.292022105731         0.22032301E-08      0.17959163E+01      0.83054460E-13      0.52765829E-08      0.24402236E-21
    0.295162128373         0.24378129E-08      0.16592792E+01     -0.24166534E-12      0.53368101E-08     -0.77727851E-21
    0.298302151016         0.26904304E-08      0.15369942E+01      0.14783133E-13      0.53983390E-08      0.51922358E-22
    0.301442173658         0.29620145E-08      0.14271810E+01     -0.51141658E-13      0.54611581E-08     -0.19569535E-21
    0.304582196300         0.32535265E-08      0.13282856E+01     -0.30735580E-12      0.55254016E-08     -0.12785384E-20
    0.307722218942         0.35659575E-08      0.12389346E+01     -0.23036206E-12      0.55909839E-08     -0.10395630E-20
    0.310862241585         0.39003290E-08      0.11580186E+01      0.41621104E-14      0.56581096E-08      0.20336181E-22
    0.314002264227         0.42576927E-08      0.10845212E+01     -0.15049973E-12      0.57266695E-08     -0.79469375E-21
    0.317142286869         0.46391314E-08      0.10176259E+01     -0.83225736E-13      0.57968651E-08     -0.47409208E-21
    0.320282309511         0.50457590E-08      0.95657492E+00     -0.28076856E-13      0.58686077E-08     -0.17225212E-21
    0.323422332154         0.54787210E-08      0.90075820E+00     -0.20550733E-12      0.59420999E-08     -0.13556858E-20
    0.326562354796         0.59391947E-08      0.84959942E+00     -0.59042824E-13      0.60172519E-08     -0.41816830E-21
    0.329702377438         0.64283897E-08      0.80263818E+00      0.42201897E-13      0.60942811E-08      0.32043108E-21
    0.332842400080         0.69475481E-08      0.75942981E+00     -0.10866221E-12      0.61730970E-08     -0.88327101E-21
    0.335982422723         0.74979446E-08      0.71962235E+00     -0.19594344E-13      0.62539277E-08     -0.17028600E-21
    0.339122445365         0.80808871E-08      0.68286888E+00      0.51849370E-13      0.63366887E-08      0.48113675E-21
    0.342262468007         0.86977170E-08      0.64889632E+00     -0.77246224E-13      0.64216088E-08     -0.76444421E-21
    0.345402490650         0.93498090E-08      0.61743464E+00     -0.86961541E-13      0.65086483E-08     -0.91669961E-21
    0.348542513292         0.10038572E-07      0.58826224E+00     -0.17911272E-13      0.65979602E-08     -0.20089316E-21
    0.351682535934         0.10765449E-07      0.56117366E+00     -0.67194945E-13      0.66896154E-08     -0.80101469E-21
    0.354822558576         0.11531917E-07      0.53598685E+00     -0.30641842E-13      0.67837049E-08     -0.38781775E-21
    0.357962581219         0.12339487E-07      0.51254205E+00     -0.65382077E-14      0.68803657E-08     -0.87768917E-22
    0.361102603861         0.13189707E-07      0.49068681E+00     -0.47849683E-13      0.69796150E-08     -0.68062226E-21
    0.364242626503         0.14084158E-07      0.47030222E+00     -0.13029729E-13      0.70817356E-08     -0.19619958E-21
    0.367382649145         0.15024457E-07      0.45125267E+00     -0.13399870E-13      0.71865836E-08     -0.21340436E-21
    0.370522671788         0.16012256E-07      0.43345633E+00     -0.59231547E-13      0.72946698E-08     -0.99681226E-21
    0.373662694430         0.17049243E-07      0.41678575E+00     -0.37341515E-13      0.74056089E-08     -0.66349833E-21
    0.376802717072         0.18137141E-07      0.40119385E+00     -0.74092690E-14      0.75202384E-08     -0.13888416E-21
    0.379942739715         0.19277708E-07      0.38655351E+00     -0.46930345E-13      0.76378202E-08     -0.92728568E-21
    0.383082762357         0.20472742E-07      0.37285210E+00     -0.43394108E-13      0.77596572E-08     -0.90310179E-21
    0.386222784999         0.21724071E-07      0.35995517E+00      0.12291708E-14      0.78845023E-08      0.26923908E-22
    0.389362807641         0.23033564E-07      0.34788627E+00     -0.43994260E-13      0.80143169E-08     -0.10135035E-20
    0.392502830284         0.24403125E-07      0.33649548E+00     -0.46323001E-13      0.81471258E-08     -0.11215584E-20
    0.395642852926         0.25834693E-07      0.32584639E+00      0.13890111E-13      0.82858186E-08      0.35320614E-21
    0.398782875568         0.27330244E-07      0.31576458E+00     -0.26979997E-13      0.84273875E-08     -0.72006457E-21
    0.401922898210         0.28891791E-07      0.30635959E+00     -0.34761214E-13      0.85760192E-08     -0.97308147E-21
    0.405062920853         0.30521384E-07      0.29742257E+00      0.31224622E-14      0.87272657E-08      0.91622357E-22
    0.408202943495         0.32221107E-07      0.28911640E+00     -0.23373321E-13      0.88870905E-08     -0.71846777E-21
    0.411342966137         0.33993084E-07      0.28118648E+00     -0.14807234E-14      0.90490600E-08     -0.47652203E-22
    0.414482988779         0.35839473E-07      0.27386478E+00      0.90658228E-14      0.92217558E-08      0.30527038E-21
    0.417623011422         0.37762468E-07      0.26681424E+00     -0.22457618E-13      0.93952315E-08     -0.79079185E-21
    0.420763034064         0.39764301E-07      0.26039507E+00     -0.89150882E-14      0.95832115E-08     -0.32809828E-21
    0.423903056706         0.41847240E-07      0.25412552E+00      0.13666883E-13      0.97694721E-08      0.52540268E-21
    0.427043079349         0.44013589E-07      0.24852814E+00      0.10755880E-14      0.99750069E-08      0.43170154E-22
    0.430183101991         0.46265688E-07      0.24296024E+00      0.20117546E-13      0.10175680E-07      0.84256463E-21
    0.433323124633         0.48605914E-07      0.23814030E+00     -0.85312309E-14      0.10402379E-07     -0.37265889E-21
    0.436463147275         0.51036678E-07      0.23319388E+00     -0.36065940E-13      0.10618777E-07     -0.16423080E-20
    0.439603169918         0.53560430E-07      0.22913973E+00     -0.13789659E-13      0.10871918E-07     -0.65427345E-21
    0.442743192560         0.56179653E-07      0.22473976E+00     -0.10698916E-13      0.11105283E-07     -0.52867588E-21
    0.445883215202         0.58896866E-07      0.22148317E+00     -0.14899923E-13      0.11392901E-07     -0.76643904E-21
    0.449023237844         0.61714624E-07      0.21755046E+00     -0.12434603E-13      0.11643990E-07     -0.66553937E-21
    0.452163260487         0.64635518E-07      0.21519873E+00     -0.11353583E-13      0.11979487E-07     -0.63202089E-21
    0.455303283129         0.67662171E-07      0.21163372E+00     -0.28986667E-13      0.12247644E-07     -0.16775133E-20
    0.458443305771         0.70797244E-07      0.21044921E+00     -0.20287038E-13      0.12656119E-07     -0.12200339E-20
    0.461583328413         0.74043431E-07      0.20709083E+00     -0.94403985E-14      0.12936591E-07     -0.58972466E-21
    0.464723351056         0.77403460E-07      0.20771729E+00     -0.20105710E-13      0.13472899E-07     -0.13040908E-20
    0.467863373698         0.80880094E-07      0.20422620E+00     -0.98268208E-14      0.13748541E-07     -0.66154315E-21
    0.471003396340         0.84476127E-07      0.20852180E+00     -0.21800383E-14      0.14564111E-07     -0.15226379E-21
    0.474143418983         0.88194391E-07      0.20391224E+00     -0.27956660E-13      0.14770564E-07     -0.20250655E-20
    0.477283441625         0.92037747E-07      0.21969752E+00     -0.91618720E-14      0.16498228E-07     -0.68801257E-21
    0.480423464267         0.96009090E-07      0.20897495E+00     -0.17749251E-14      0.16263159E-07     -0.13813086E-21
    0.483563486909         0.10011135E-06      0.33922561E+00     -0.19447885E-13      0.27348970E-07     -0.15679230E-20
    0.486703509552         0.10434748E-06      0.43267304E+00     -0.72384531E-14      0.36124335E-07     -0.60434619E-21
    0.489843532194         0.10872047E-06      0.20771234E+00      0.60666360E-15      0.17953073E-07      0.52435382E-22
    0.492983554836         0.11323336E-06      0.14756088E+00     -0.75460642E-14      0.13198839E-07     -0.67497080E-21
    0.496123577478         0.11788918E-06      0.17185773E+00     -0.23116180E-14      0.15902877E-07     -0.21390586E-21
    0.499263600121         0.12269102E-06      0.16830341E+00     -0.30529395E-14      0.16106395E-07     -0.29216194E-21
    0.502403622763         0.12764201E-06      0.17316190E+00     -0.22808027E-13      0.17132302E-07     -0.22565819E-20
    0.505543645405         0.13274526E-06      0.17503265E+00     -0.19613211E-13      0.17897897E-07     -0.20055413E-20
    0.508683668048         0.13800397E-06      0.17495708E+00     -0.99648230E-14      0.18484081E-07     -0.10527759E-20
