 
 # Omega; pulse ft; proj flux t=    1000.25000000000     
    0.000000000000         0.13861783E-10      0.00000000E+00      0.00000000E+00      0.12019247E-07     -0.12705494E-20      0.30033100E-11     -0.31747862E-24
    0.003140022642         0.28547099E-10      0.16999047E+01     -0.25312558E-12      0.12036669E-07     -0.17923291E-20      0.60109734E-11     -0.76533697E-24
    0.006280045285         0.72617464E-10      0.13455544E+01     -0.38990821E-12      0.12118032E-07     -0.35115045E-20      0.90389674E-11     -0.16427744E-23
    0.009420067927         0.14611614E-09      0.10119584E+01     -0.35996772E-13      0.12225296E-07     -0.43487082E-21      0.12093764E-10     -0.17514377E-23
    0.012560090569         0.24911526E-09      0.79811996E+00     -0.44678803E-14      0.12329012E-07     -0.69017882E-22      0.15174477E-10     -0.17686836E-23
    0.015700113211         0.38171583E-09      0.65674806E+00     -0.98717657E-13      0.12436229E-07     -0.18693248E-20      0.18281980E-10     -0.22357812E-23
    0.018840135854         0.54404780E-09      0.55773017E+00     -0.41536792E-14      0.12543817E-07     -0.93419710E-22      0.21416367E-10     -0.22591245E-23
    0.021980158496         0.73627010E-09      0.48500493E+00     -0.14383824E-12      0.12653336E-07     -0.37526082E-20      0.24578120E-10     -0.31968077E-23
    0.025120181138         0.95857070E-09      0.42946917E+00     -0.12026524E-12      0.12763974E-07     -0.35743250E-20      0.27767519E-10     -0.40899424E-23
    0.028260203780         0.12111667E-08      0.38574280E+00      0.15732850E-13      0.12875942E-07      0.52515629E-21      0.30984896E-10     -0.39587189E-23
    0.031400226423         0.14943044E-08      0.35048103E+00      0.17759683E-13      0.12990425E-07      0.65825482E-21      0.34230879E-10     -0.37942375E-23
    0.034540249065         0.18082594E-08      0.32142611E+00     -0.83943413E-13      0.13105964E-07     -0.34227441E-20      0.37505732E-10     -0.46494959E-23
    0.037680271707         0.21533368E-08      0.29710289E+00     -0.29995314E-13      0.13223833E-07     -0.13350695E-20      0.40810038E-10     -0.49830964E-23
    0.040820294349         0.25298710E-08      0.27642330E+00     -0.15177704E-13      0.13342875E-07     -0.73262353E-21      0.44144090E-10     -0.51661608E-23
    0.043960316992         0.29382263E-08      0.25864370E+00     -0.55770854E-13      0.13464148E-07     -0.29032489E-20      0.47508445E-10     -0.58916103E-23
    0.047100339634         0.33787968E-08      0.24317752E+00     -0.48431008E-14      0.13586701E-07     -0.27059146E-21      0.50903423E-10     -0.59592243E-23
    0.050240362276         0.38520063E-08      0.22961549E+00     -0.10060906E-13      0.13711594E-07     -0.60079162E-21      0.54329608E-10     -0.61093472E-23
    0.053380384919         0.43583091E-08      0.21761008E+00     -0.19898219E-13      0.13837826E-07     -0.12653278E-20      0.57787336E-10     -0.64255211E-23
    0.056520407561         0.48981894E-08      0.20692182E+00      0.10214641E-13      0.13966549E-07      0.68945504E-21      0.61277228E-10     -0.62532434E-23
    0.059660430203         0.54721621E-08      0.19732908E+00     -0.11977144E-13      0.14096659E-07     -0.85561495E-21      0.64799632E-10     -0.64670403E-23
    0.062800452845         0.60807727E-08      0.18868499E+00     -0.42161987E-13      0.14229377E-07     -0.31795789E-20      0.68355198E-10     -0.72615377E-23
    0.065940475488         0.67245976E-08      0.18084009E+00     -0.54870785E-13      0.14363540E-07     -0.43582079E-20      0.71944289E-10     -0.83505452E-23
    0.069080498130         0.74042442E-08      0.17370178E+00     -0.80138930E-13      0.14500470E-07     -0.66899266E-20      0.75567594E-10     -0.10022191E-22
    0.072220520772         0.81203513E-08      0.16716389E+00     -0.52519207E-13      0.14638926E-07     -0.45992276E-20      0.79225497E-10     -0.11171423E-22
    0.075360543414         0.88735891E-08      0.16116493E+00     -0.37825276E-13      0.14780134E-07     -0.34688853E-20      0.82918684E-10     -0.12038211E-22
    0.078500566057         0.96646596E-08      0.15562742E+00     -0.50555534E-13      0.14922873E-07     -0.48476920E-20      0.86647538E-10     -0.13249529E-22
    0.081640588699         0.10494297E-07      0.15051693E+00     -0.73513752E-13      0.15069024E-07     -0.73598395E-20      0.90412911E-10     -0.15088569E-22
    0.084780611341         0.11363267E-07      0.14576845E+00     -0.14665230E-13      0.15216779E-07     -0.15309045E-20      0.94215204E-10     -0.15471104E-22
    0.087920633984         0.12272369E-07      0.14135792E+00     -0.19580027E-13      0.15367750E-07     -0.21286459E-20      0.98055222E-10     -0.16002999E-22
    0.091060656626         0.13222435E-07      0.13723929E+00     -0.42294393E-13      0.15520713E-07     -0.47831719E-20      0.10193346E-09     -0.17198195E-22
    0.094200679268         0.14214328E-07      0.13338908E+00     -0.20383280E-13      0.15676355E-07     -0.23955151E-20      0.10585059E-09     -0.17796774E-22
    0.097340701910         0.15248947E-07      0.12977941E+00     -0.17187068E-13      0.15834477E-07     -0.20970063E-20      0.10980723E-09     -0.18320764E-22
    0.100480724553         0.16327224E-07      0.12638506E+00     -0.29119110E-13      0.15994766E-07     -0.36851930E-20      0.11380393E-09     -0.19241602E-22
    0.103620747195         0.17450124E-07      0.12319090E+00      0.13913171E-13      0.16157828E-07      0.18248638E-20      0.11784136E-09     -0.18785614E-22
    0.106760769837         0.18618647E-07      0.12017634E+00      0.10446492E-13      0.16323299E-07      0.14189249E-20      0.12192015E-09     -0.18431060E-22
    0.109900792479         0.19833827E-07      0.11732835E+00     -0.18110170E-13      0.16491539E-07     -0.25455449E-20      0.12604097E-09     -0.19067128E-22
    0.113040815122         0.21096733E-07      0.11463421E+00     -0.36193034E-14      0.16662752E-07     -0.52608687E-21      0.13020458E-09     -0.19198584E-22
    0.116180837764         0.22408470E-07      0.11207908E+00     -0.85762646E-14      0.16836616E-07     -0.12883338E-20      0.13441163E-09     -0.19520506E-22
    0.119320860406         0.23770176E-07      0.10965723E+00     -0.25027711E-13      0.17013977E-07     -0.38831994E-20      0.13866300E-09     -0.20490821E-22
    0.122460883048         0.25183029E-07      0.10735227E+00      0.26236201E-14      0.17193898E-07      0.42020775E-21      0.14295932E-09     -0.20385822E-22
    0.125600905691         0.26648238E-07      0.10516361E+00      0.45364914E-14      0.17377758E-07      0.74963243E-21      0.14730159E-09     -0.20198507E-22
    0.128740928333         0.28167053E-07      0.10307433E+00     -0.12362586E-13      0.17564178E-07     -0.21066222E-20      0.15169044E-09     -0.20724900E-22
    0.131880950975         0.29740759E-07      0.10108633E+00     -0.12150595E-13      0.17754765E-07     -0.21341260E-20      0.15612692E-09     -0.21258164E-22
    0.135020973618         0.31370676E-07      0.99183879E-01     -0.15547613E-13      0.17948009E-07     -0.28134481E-20      0.16061168E-09     -0.21961175E-22
    0.138160996260         0.33058166E-07      0.97370047E-01     -0.52746026E-13      0.18145595E-07     -0.98295940E-20      0.16514581E-09     -0.24417345E-22
    0.141301018902         0.34804624E-07      0.95630483E-01     -0.19273637E-14      0.18345964E-07     -0.36974973E-21      0.16973001E-09     -0.24509737E-22
    0.144441041544         0.36611487E-07      0.93969273E-01      0.51841614E-14      0.18550907E-07      0.10234292E-20      0.17436542E-09     -0.24254007E-22
    0.147581064187         0.38480227E-07      0.92372872E-01     -0.16062852E-13      0.18758754E-07     -0.32619867E-20      0.17905276E-09     -0.25069096E-22
    0.150721086829         0.40412359E-07      0.90846418E-01     -0.79775051E-14      0.18971450E-07     -0.16659418E-20      0.18379325E-09     -0.25485374E-22
    0.153861109471         0.42409432E-07      0.89376782E-01     -0.19075907E-13      0.19187167E-07     -0.40951644E-20      0.18858765E-09     -0.26508653E-22
    0.157001132113         0.44473040E-07      0.87970064E-01     -0.23416447E-13      0.19408031E-07     -0.51661565E-20      0.19343723E-09     -0.27799547E-22
    0.160141154756         0.46604811E-07      0.86613408E-01     -0.22270389E-14      0.19632042E-07     -0.50478697E-21      0.19834279E-09     -0.27925680E-22
    0.163281177398         0.48806419E-07      0.85313779E-01     -0.80593109E-14      0.19861523E-07     -0.18762524E-20      0.20330569E-09     -0.28394509E-22
    0.166421200040         0.51079573E-07      0.84058359E-01     -0.16035727E-13      0.20094262E-07     -0.38333618E-20      0.20832674E-09     -0.29352371E-22
    0.169561222683         0.53426027E-07      0.82855119E-01      0.68265316E-14      0.20332849E-07      0.16752475E-20      0.21340741E-09     -0.28933768E-22
    0.172701245325         0.55847574E-07      0.81690931E-01      0.72565964E-14      0.20574781E-07      0.18276556E-20      0.21854854E-09     -0.28477082E-22
    0.175841267967         0.58346049E-07      0.80574924E-01     -0.61255116E-14      0.20822990E-07     -0.15830169E-20      0.22375168E-09     -0.28872639E-22
    0.178981290609         0.60923329E-07      0.79493521E-01      0.16396250E-14      0.21074645E-07      0.43468341E-21      0.22901771E-09     -0.28764022E-22
    0.182121313252         0.63581331E-07      0.78456815E-01     -0.47457359E-14      0.21333006E-07     -0.12904018E-20      0.23434830E-09     -0.29086462E-22
    0.185261335894         0.66322018E-07      0.77450912E-01     -0.33301302E-14      0.21594941E-07     -0.92851024E-21      0.23974434E-09     -0.29318473E-22
    0.188401358536         0.69147392E-07      0.76486851E-01      0.92598939E-15      0.21864074E-07      0.26469780E-21      0.24520762E-09     -0.29252332E-22
    0.191541381178         0.72059501E-07      0.75550090E-01     -0.45606436E-14      0.22136867E-07     -0.13363103E-20      0.25073907E-09     -0.29586242E-22
    0.194681403821         0.75060434E-07      0.74652944E-01     -0.95103148E-14      0.22417443E-07     -0.28558411E-20      0.25634063E-09     -0.30299846E-22
    0.197821426463         0.78152324E-07      0.73779830E-01      0.40149900E-14      0.22701720E-07      0.12353942E-20      0.26201323E-09     -0.29991152E-22
    0.200961449105         0.81337348E-07      0.72944620E-01     -0.11480178E-14      0.22994452E-07     -0.36189152E-21      0.26775897E-09     -0.30081579E-22
    0.204101471747         0.84617728E-07      0.72130423E-01     -0.90159927E-14      0.23290898E-07     -0.29112622E-20      0.27357878E-09     -0.30809031E-22
    0.207241494390         0.87995729E-07      0.71352853E-01      0.32053949E-14      0.23596564E-07      0.10600320E-20      0.27947498E-09     -0.30544156E-22
    0.210381517032         0.91473660E-07      0.70593453E-01      0.34795396E-14      0.23905919E-07      0.11783188E-20      0.28544847E-09     -0.30249723E-22
    0.213521539674         0.95053876E-07      0.69869817E-01      0.21698133E-14      0.24225362E-07      0.75232077E-21      0.29150178E-09     -0.30061737E-22
    0.216661562317         0.98738776E-07      0.69161633E-01     -0.18900043E-14      0.24548426E-07     -0.67084348E-21      0.29763582E-09     -0.30229364E-22
    0.219801584959         0.10253081E-06      0.68488729E-01     -0.61473512E-14      0.24882568E-07     -0.22333877E-20      0.30385335E-09     -0.30787432E-22
    0.222941607601         0.10643245E-06      0.67828648E-01     -0.71200443E-14      0.25220207E-07     -0.26473916E-20      0.31015526E-09     -0.31448949E-22
    0.226081630243         0.11044626E-06      0.67203734E-01     -0.54556850E-14      0.25570055E-07     -0.20758097E-20      0.31654457E-09     -0.31967642E-22
    0.229221652886         0.11457479E-06      0.66589051E-01     -0.42442519E-14      0.25923212E-07     -0.16522933E-20      0.32302214E-09     -0.32380509E-22
    0.232361675528         0.11882069E-06      0.66009771E-01     -0.49918825E-14      0.26289865E-07     -0.19881286E-20      0.32959132E-09     -0.32877293E-22
    0.235501698170         0.12318663E-06      0.65438135E-01      0.14466489E-14      0.26659560E-07      0.58936619E-21      0.33625288E-09     -0.32730025E-22
    0.238641720812         0.12767532E-06      0.64902513E-01      0.39712368E-14      0.27044231E-07      0.16547748E-20      0.34301056E-09     -0.32316538E-22
    0.241781743455         0.13228953E-06      0.64371891E-01     -0.42859284E-14      0.27431577E-07     -0.18264148E-20      0.34986503E-09     -0.32772913E-22
    0.244921766097         0.13703207E-06      0.63878257E-01     -0.11398980E-13      0.27835590E-07     -0.49672196E-20      0.35682044E-09     -0.34014098E-22
    0.248061788739         0.14190580E-06      0.63386899E-01     -0.12669123E-13      0.28241796E-07     -0.56446805E-20      0.36387737E-09     -0.35424562E-22
    0.251201811381         0.14691362E-06      0.62933911E-01     -0.20362464E-13      0.28666625E-07     -0.92751762E-20      0.37104044E-09     -0.37742198E-22
    0.254341834024         0.15205849E-06      0.62480324E-01     -0.90439474E-14      0.29093012E-07     -0.42111765E-20      0.37831006E-09     -0.38794466E-22
    0.257481856666         0.15734340E-06      0.62066905E-01     -0.40512419E-14      0.29540275E-07     -0.19281580E-20      0.38569144E-09     -0.39276264E-22
    0.260621879308         0.16277140E-06      0.61649849E-01     -0.10027940E-13      0.29988295E-07     -0.48778841E-20      0.39318476E-09     -0.40495126E-22
    0.263761901951         0.16834557E-06      0.61275212E-01      0.70887192E-14      0.30459796E-07      0.35237894E-20      0.40079591E-09     -0.39614619E-22
    0.266901924593         0.17406906E-06      0.60893641E-01      0.98636011E-14      0.30931029E-07      0.50102330E-20      0.40852480E-09     -0.38362687E-22
    0.270041947235         0.17994505E-06      0.60557241E-01      0.55544611E-14      0.31428763E-07      0.28827244E-20      0.41637806E-09     -0.37642366E-22
    0.273181969877         0.18597676E-06      0.60210343E-01     -0.65132485E-14      0.31924954E-07     -0.34534791E-20      0.42435531E-09     -0.38505304E-22
    0.276321992520         0.19216747E-06      0.59911930E-01     -0.56688027E-14      0.32451164E-07     -0.30704944E-20      0.43246405E-09     -0.39272544E-22
    0.279462015162         0.19852052E-06      0.59599067E-01     -0.11896372E-13      0.32974226E-07     -0.65818761E-20      0.44070349E-09     -0.40917191E-22
    0.282602037804         0.20503926E-06      0.59338652E-01     -0.13904775E-13      0.33531420E-07     -0.78573886E-20      0.44908215E-09     -0.42880556E-22
    0.285742060446         0.21172710E-06      0.59059379E-01     -0.17746031E-13      0.34083462E-07     -0.10241323E-19      0.45759876E-09     -0.45439607E-22
    0.288882083089         0.21858752E-06      0.58837264E-01     -0.17946417E-13      0.34674465E-07     -0.10576331E-19      0.46626304E-09     -0.48082369E-22
    0.292022105731         0.22562402E-06      0.58591346E-01     -0.39176269E-15      0.35257833E-07     -0.23574647E-21      0.47507310E-09     -0.48141276E-22
    0.295162128373         0.23284014E-06      0.58408131E-01     -0.36673951E-14      0.35885836E-07     -0.22532400E-20      0.48404007E-09     -0.48704304E-22
    0.298302151016         0.24023948E-06      0.58195506E-01     -0.70341694E-14      0.36503120E-07     -0.44121814E-20      0.49316129E-09     -0.49806798E-22
    0.301442173658         0.24782569E-06      0.58052120E-01     -0.33277550E-14      0.37171744E-07     -0.21308173E-20      0.50244958E-09     -0.50339237E-22
    0.304582196300         0.25560245E-06      0.57872919E-01     -0.91247835E-15      0.37825827E-07     -0.59639722E-21      0.51190131E-09     -0.50488261E-22
    0.307722218942         0.26357350E-06      0.57770674E-01     -0.32771935E-14      0.38539214E-07     -0.21862384E-20      0.52153130E-09     -0.51034548E-22
    0.310862241585         0.27174260E-06      0.57625237E-01     -0.78971688E-16      0.39233315E-07     -0.53766740E-22      0.53133473E-09     -0.51047983E-22
    0.314002264227         0.28011357E-06      0.57565851E-01      0.11929278E-14      0.39996209E-07      0.82883497E-21      0.54132879E-09     -0.50840878E-22
    0.317142286869         0.28869027E-06      0.57454727E-01     -0.29973255E-14      0.40733929E-07     -0.21250270E-20      0.55150718E-09     -0.51371869E-22
    0.320282309511         0.29747662E-06      0.57440402E-01     -0.42514523E-14      0.41551805E-07     -0.30754575E-20      0.56188994E-09     -0.52140349E-22
    0.323422332154         0.30647655E-06      0.57364362E-01     -0.15164160E-14      0.42337182E-07     -0.11191754E-20      0.57246894E-09     -0.52420003E-22
    0.326562354796         0.31569405E-06      0.57397901E-01     -0.11842026E-13      0.43216423E-07     -0.89161798E-20      0.58326765E-09     -0.54647934E-22
    0.329702377438         0.32513315E-06      0.57357981E-01     -0.13893074E-14      0.44054022E-07     -0.10670630E-20      0.59427565E-09     -0.54914566E-22
    0.332842400080         0.33479793E-06      0.57442836E-01     -0.18477438E-14      0.45002073E-07     -0.14475661E-20      0.60552055E-09     -0.55276277E-22
    0.335982422723         0.34469248E-06      0.57440346E-01     -0.14493077E-14      0.45897058E-07     -0.11580529E-20      0.61698908E-09     -0.55565646E-22
    0.339122445365         0.35482098E-06      0.57580824E-01     -0.59807795E-14      0.46922718E-07     -0.48737482E-20      0.62871390E-09     -0.56783474E-22
    0.342262468007         0.36518760E-06      0.57617364E-01     -0.40532075E-14      0.47880939E-07     -0.33682795E-20      0.64067815E-09     -0.57625123E-22
    0.345402490650         0.37579657E-06      0.57818784E-01     -0.76530849E-14      0.48994670E-07     -0.64850960E-20      0.65292069E-09     -0.59245587E-22
    0.348542513292         0.38665215E-06      0.57896350E-01     -0.34484731E-14      0.50022846E-07     -0.29795046E-20      0.66542016E-09     -0.59990090E-22
    0.351682535934         0.39775867E-06      0.58165267E-01     -0.41918250E-14      0.51237168E-07     -0.36925343E-20      0.67822305E-09     -0.60912763E-22
    0.354822558576         0.40912044E-06      0.58286287E-01     -0.70888030E-14      0.52343033E-07     -0.63659820E-20      0.69130227E-09     -0.62503463E-22
    0.357962581219         0.42074186E-06      0.58630889E-01     -0.20583700E-14      0.53673153E-07     -0.18843174E-20      0.70471385E-09     -0.62974307E-22
    0.361102603861         0.43262732E-06      0.58798287E-01     -0.39784814E-14      0.54865651E-07     -0.37123866E-20      0.71842341E-09     -0.63901940E-22
    0.364242626503         0.44478129E-06      0.59228822E-01     -0.65109130E-14      0.56330210E-07     -0.61922741E-20      0.73249892E-09     -0.65449234E-22
    0.367382649145         0.45720823E-06      0.59446138E-01     -0.11964662E-14      0.57619778E-07     -0.11597072E-20      0.74689667E-09     -0.65739016E-22
    0.370522671788         0.46991265E-06      0.59975536E-01     -0.21555296E-14      0.59241907E-07     -0.21291629E-20      0.76169974E-09     -0.66271041E-22
    0.373662694430         0.48289911E-06      0.60247065E-01     -0.28007267E-14      0.60640824E-07     -0.28190315E-20      0.77685237E-09     -0.66975447E-22
    0.376802717072         0.49617218E-06      0.60891872E-01     -0.51651240E-14      0.62449685E-07     -0.52972646E-20      0.79245699E-09     -0.68299101E-22
    0.379942739715         0.50973645E-06      0.61222871E-01     -0.18429062E-14      0.63972566E-07     -0.19256765E-20      0.80844214E-09     -0.68780280E-22
    0.383082762357         0.52359657E-06      0.62004449E-01     -0.56366514E-14      0.66005417E-07     -0.60003682E-20      0.82493525E-09     -0.70279622E-22
