
 # Omega; pulse ft; projected flux at t=    1000.2500000000000     
    0.000000000000         0.18717486E-09      0.00000000E+00      0.00000000E+00      0.58484810E-08      0.10587912E-20
    0.003140022642         0.20186436E-09      0.23552510E+00     -0.32747075E-13      0.58963956E-08     -0.81982646E-21
    0.006280045285         0.24594737E-09      0.38984636E+00     -0.75856218E-13      0.59455967E-08     -0.11568929E-20
    0.009420067927         0.31946741E-09      0.45397689E+00      0.77731102E-13      0.59955471E-08      0.10265731E-20
    0.012560090569         0.42249703E-09      0.46155248E+00     -0.39204883E-14      0.60460888E-08     -0.51356284E-22
    0.015700113211         0.55513782E-09      0.44281432E+00     -0.70260139E-13      0.60973656E-08     -0.96745235E-21
    0.018840135854         0.71752051E-09      0.41462422E+00      0.91962141E-13      0.61493258E-08      0.13638980E-20
    0.021980158496         0.90980495E-09      0.38476343E+00     -0.59307090E-13      0.62020292E-08     -0.95597522E-21
    0.025120181138         0.11321802E-08      0.35640509E+00     -0.11127958E-12      0.62554597E-08     -0.19531285E-20
    0.028260203780         0.13848647E-08      0.33063589E+00      0.69562356E-13      0.63096400E-08      0.13274827E-20
    0.031400226423         0.16681061E-08      0.30765161E+00     -0.22542890E-13      0.63646220E-08     -0.46636184E-21
    0.034540249065         0.19821816E-08      0.28728918E+00     -0.62424956E-13      0.64203660E-08     -0.13950789E-20
    0.037680271707         0.23273981E-08      0.26927195E+00      0.49305412E-13      0.64769464E-08      0.11859702E-20
    0.040820294349         0.27040919E-08      0.25329813E+00     -0.17681894E-13      0.65343116E-08     -0.45613841E-21
    0.043960316992         0.31126296E-08      0.23909163E+00      0.35586674E-14      0.65925515E-08      0.98124300E-22
    0.047100339634         0.35534072E-08      0.22640329E+00      0.13896295E-13      0.66516014E-08      0.40826533E-21
    0.050240362276         0.40268513E-08      0.21502486E+00     -0.10985561E-13      0.67115687E-08     -0.34289221E-21
    0.053380384919         0.45334185E-08      0.20477376E+00     -0.21565866E-13      0.67723744E-08     -0.71323648E-21
    0.056520407561         0.50735959E-08      0.19550177E+00      0.46782211E-13      0.68341393E-08      0.16353619E-20
    0.059660430203         0.56479014E-08      0.18707804E+00      0.67810740E-14      0.68967754E-08      0.24998949E-21
    0.062800452845         0.62568834E-08      0.17939778E+00      0.12858486E-14      0.69604110E-08      0.49889331E-22
    0.065940475488         0.69011217E-08      0.17236674E+00      0.21962796E-13      0.70249560E-08      0.89511282E-21
    0.069080498130         0.75812269E-08      0.16591005E+00      0.13873925E-13      0.70905395E-08      0.59293340E-21
    0.072220520772         0.82978416E-08      0.15995900E+00      0.17859879E-13      0.71570779E-08      0.79910817E-21
    0.075360543414         0.90516395E-08      0.15445904E+00     -0.89649732E-14      0.72246880E-08     -0.41932887E-21
    0.078500566057         0.98433265E-08      0.14935962E+00     -0.46224524E-14      0.72933129E-08     -0.22571691E-21
    0.081640588699         0.10673641E-07      0.14461965E+00     -0.37029803E-13      0.73630256E-08     -0.18852997E-20
    0.084780611341         0.11543353E-07      0.14020245E+00     -0.13197165E-13      0.74338461E-08     -0.69974310E-21
    0.087920633984         0.12453265E-07      0.13607511E+00     -0.25849947E-13      0.75057426E-08     -0.14258526E-20
    0.091060656626         0.13404215E-07      0.13221131E+00     -0.20316579E-13      0.75788225E-08     -0.11646186E-20
    0.094200679268         0.14397070E-07      0.12858610E+00     -0.83779925E-14      0.76530870E-08     -0.49863481E-21
    0.097340701910         0.15432734E-07      0.12517604E+00     -0.99393993E-14      0.77284459E-08     -0.61366462E-21
    0.100480724553         0.16512144E-07      0.12196602E+00     -0.22326071E-13      0.78051648E-08     -0.14287477E-20
    0.103620747195         0.17636269E-07      0.11893469E+00      0.18653059E-13      0.78829917E-08      0.12363248E-20
    0.106760769837         0.18806114E-07      0.11607105E+00      0.10114754E-13      0.79622135E-08      0.69384944E-21
    0.109900792479         0.20022721E-07      0.11335836E+00     -0.11295235E-13      0.80426351E-08     -0.80138292E-21
    0.113040815122         0.21287162E-07      0.11078754E+00      0.83328358E-14      0.81244867E-08      0.61107968E-21
    0.116180837764         0.22600547E-07      0.10834522E+00      0.20105094E-14      0.82076106E-08      0.15230463E-21
    0.119320860406         0.23964023E-07      0.10602432E+00     -0.96072618E-14      0.82922310E-08     -0.75139019E-21
    0.122460883048         0.25378770E-07      0.10381340E+00      0.17457539E-13      0.83781696E-08      0.14088954E-20
    0.125600905691         0.26846007E-07      0.10170781E+00      0.15939012E-13      0.84657176E-08      0.13266943E-20
    0.128740928333         0.28366986E-07      0.99696244E-01      0.16051960E-13      0.85545645E-08      0.13773591E-20
    0.131880950975         0.29943001E-07      0.97777197E-01     -0.69581139E-15      0.86451668E-08     -0.61521558E-22
    0.135020973618         0.31575378E-07      0.95941255E-01     -0.58483324E-14      0.87372599E-08     -0.53260092E-21
    0.138160996260         0.33265483E-07      0.94182574E-01     -0.18475574E-13      0.88308290E-08     -0.17323230E-20
    0.141301018902         0.35014721E-07      0.92499765E-01      0.14901017E-13      0.89262398E-08      0.14379501E-20
    0.144441041544         0.36824533E-07      0.90885251E-01      0.50937643E-14      0.90232417E-08      0.50571755E-21
    0.147581064187         0.38696400E-07      0.89335694E-01      0.53800672E-14      0.91219458E-08      0.54935132E-21
    0.150721086829         0.40631842E-07      0.87848644E-01     -0.11999125E-13      0.92225304E-08     -0.12596927E-20
    0.153861109471         0.42632417E-07      0.86418530E-01     -0.13536174E-13      0.93248211E-08     -0.14605942E-20
    0.157001132113         0.44699723E-07      0.85044024E-01     -0.14301104E-13      0.94290598E-08     -0.15856018E-20
    0.160141154756         0.46835399E-07      0.83720838E-01      0.93082386E-14      0.95351466E-08      0.10601354E-20
    0.163281177398         0.49041122E-07      0.82447309E-01      0.10564074E-14      0.96432473E-08      0.12356010E-21
    0.166421200040         0.51318613E-07      0.81220040E-01      0.38798304E-14      0.97533093E-08      0.46590948E-21
    0.169561222683         0.53669630E-07      0.80037537E-01      0.12279127E-13      0.98654823E-08      0.15135337E-20
    0.172701245325         0.56095974E-07      0.78896876E-01     -0.39800760E-14      0.99797251E-08     -0.50344280E-21
    0.175841267967         0.58599489E-07      0.77796826E-01     -0.13289567E-14      0.10096188E-07     -0.17246716E-21
    0.178981290609         0.61182058E-07      0.76734793E-01      0.48413725E-14      0.10214834E-07      0.64447709E-21
    0.182121313252         0.63845608E-07      0.75709812E-01      0.28568619E-14      0.10335821E-07      0.39001566E-21
    0.185261335894         0.66592107E-07      0.74719533E-01     -0.59418532E-14      0.10459108E-07     -0.83173011E-21
    0.188401358536         0.69423567E-07      0.73763224E-01      0.82892225E-14      0.10584865E-07      0.11894857E-20
    0.191541381178         0.72342043E-07      0.72838758E-01      0.31410354E-14      0.10713052E-07      0.46198037E-21
    0.194681403821         0.75349631E-07      0.71945574E-01     -0.27605087E-14      0.10843845E-07     -0.41607185E-21
    0.197821426463         0.78448474E-07      0.71081750E-01      0.80733155E-14      0.10977206E-07      0.12467680E-20
    0.200961449105         0.81640757E-07      0.70246872E-01     -0.48285911E-14      0.11113320E-07     -0.76390130E-21
    0.204101471747         0.84928709E-07      0.69439187E-01     -0.48035138E-14      0.11252151E-07     -0.77837696E-21
    0.207241494390         0.88314602E-07      0.68658413E-01      0.99478251E-14      0.11393892E-07      0.16508457E-20
    0.210381517032         0.91800755E-07      0.67902933E-01      0.76668981E-14      0.11538510E-07      0.13028095E-20
    0.213521539674         0.95389531E-07      0.67172590E-01      0.33163701E-15      0.11686209E-07      0.57695848E-22
    0.216661562317         0.99083337E-07      0.66465878E-01      0.50697062E-14      0.11836956E-07      0.90286764E-21
    0.219801584959         0.10288463E-06      0.65782752E-01     -0.26320015E-15      0.11990968E-07     -0.47976476E-22
    0.222941607601         0.10679590E-06      0.65121796E-01     -0.75602952E-15      0.12148212E-07     -0.14103429E-21
    0.226081630243         0.11081969E-06      0.64483075E-01     -0.10865935E-14      0.12308920E-07     -0.20741554E-21
    0.229221652886         0.11495860E-06      0.63865243E-01      0.49585665E-14      0.12473058E-07      0.96842170E-21
    0.232361675528         0.11921526E-06      0.63268465E-01     -0.17181400E-15      0.12640876E-07     -0.34327995E-22
    0.235501698170         0.12359235E-06      0.62691448E-01      0.16088569E-14      0.12812338E-07      0.32880429E-21
    0.238641720812         0.12809259E-06      0.62134463E-01      0.10833138E-14      0.12987715E-07      0.22644069E-21
    0.241781743455         0.13271877E-06      0.61596252E-01     -0.13534016E-14      0.13166965E-07     -0.28930642E-21
    0.244921766097         0.13747370E-06      0.61077183E-01      0.22630115E-14      0.13350384E-07      0.49465401E-21
    0.248061788739         0.14236024E-06      0.60576024E-01      0.18237932E-14      0.13537926E-07      0.40759325E-21
    0.251201811381         0.14738131E-06      0.60093248E-01     -0.10314557E-13      0.13729916E-07     -0.23566376E-20
    0.254341834024         0.15253987E-06      0.59627625E-01     -0.42066585E-14      0.13926297E-07     -0.98248377E-21
    0.257481856666         0.15783893E-06      0.59179737E-01     -0.74022267E-14      0.14127427E-07     -0.17670646E-20
    0.260621879308         0.16328153E-06      0.58748353E-01     -0.31895238E-14      0.14333242E-07     -0.77817016E-21
    0.263761901951         0.16887077E-06      0.58334157E-01     -0.11014720E-14      0.14544135E-07     -0.27462396E-21
    0.266901924593         0.17460981E-06      0.57935905E-01     -0.11006787E-14      0.14760031E-07     -0.28041423E-21
    0.270041947235         0.18050182E-06      0.57554398E-01     -0.16079701E-14      0.14981366E-07     -0.41855339E-21
    0.273181969877         0.18655005E-06      0.57188359E-01      0.40359134E-14      0.15208049E-07      0.10732668E-20
    0.276321992520         0.19275778E-06      0.56838713E-01      0.45674374E-17      0.15440567E-07      0.12407709E-23
    0.279462015162         0.19912834E-06      0.56504140E-01     -0.48739972E-14      0.15678810E-07     -0.13524403E-20
    0.282602037804         0.20566511E-06      0.56185699E-01      0.36600752E-14      0.15923321E-07      0.10372845E-20
    0.285742060446         0.21237151E-06      0.55882011E-01     -0.73306604E-15      0.16173971E-07     -0.21217183E-21
    0.288882083089         0.21925100E-06      0.55594278E-01     -0.30645799E-14      0.16431364E-07     -0.90576277E-21
    0.292022105731         0.22630710E-06      0.55321054E-01      0.60163055E-14      0.16695347E-07      0.18156614E-20
    0.295162128373         0.23354337E-06      0.55063694E-01      0.45207760E-14      0.16966599E-07      0.13929722E-20
    0.298302151016         0.24096340E-06      0.54820672E-01     -0.23140129E-15      0.17244937E-07     -0.72791894E-22
    0.301442173658         0.24857086E-06      0.54593504E-01      0.33267948E-14      0.17531122E-07      0.10683038E-20
    0.304582196300         0.25636942E-06      0.54380578E-01     -0.48074090E-15      0.17824940E-07     -0.15757791E-21
    0.307722218942         0.26436283E-06      0.54183583E-01     -0.39238571E-14      0.18127245E-07     -0.13127356E-20
    0.310862241585         0.27255487E-06      0.54000808E-01      0.25474232E-14      0.18437786E-07      0.86978041E-21
    0.314002264227         0.28094936E-06      0.53834128E-01      0.34636806E-14      0.18757523E-07      0.12068565E-20
    0.317142286869         0.28955016E-06      0.53681723E-01      0.87128447E-15      0.19086164E-07      0.30977914E-21
    0.320282309511         0.29836118E-06      0.53545669E-01      0.20601393E-14      0.19424787E-07      0.74735768E-21
    0.323422332154         0.30738639E-06      0.53424028E-01     -0.19633826E-14      0.19773056E-07     -0.72667817E-21
    0.326562354796         0.31662976E-06      0.53319083E-01     -0.55579247E-14      0.20132181E-07     -0.20985572E-20
    0.329702377438         0.32609534E-06      0.53228784E-01      0.66404082E-14      0.20501781E-07      0.25576425E-20
    0.332842400080         0.33578719E-06      0.53155625E-01      0.25181611E-14      0.20883210E-07      0.98930801E-21
    0.335982422723         0.34570944E-06      0.53097447E-01      0.19022976E-14      0.21276043E-07      0.76224693E-21
    0.339122445365         0.35586624E-06      0.53056951E-01     -0.52223654E-15      0.21681787E-07     -0.21341260E-21
    0.342262468007         0.36626178E-06      0.53031891E-01     -0.13189869E-14      0.22099985E-07     -0.54966152E-21
    0.345402490650         0.37690029E-06      0.53025160E-01     -0.23281340E-14      0.22532300E-07     -0.98930801E-21
    0.348542513292         0.38778604E-06      0.53034459E-01     -0.13478640E-14      0.22978258E-07     -0.58398951E-21
    0.351682535934         0.39892335E-06      0.53062833E-01     -0.22545799E-14      0.23439678E-07     -0.99592546E-21
    0.354822558576         0.41031655E-06      0.53108015E-01     -0.55141767E-14      0.23916104E-07     -0.24831962E-20
    0.357962581219         0.42197002E-06      0.53173110E-01      0.35137305E-15      0.24409483E-07      0.16130022E-21
    0.361102603861         0.43388818E-06      0.53256004E-01      0.16263665E-15      0.24919443E-07      0.76100616E-22
    0.364242626503         0.44607547E-06      0.53359746E-01     -0.24906613E-14      0.25448013E-07     -0.11878314E-20
    0.367382649145         0.45853638E-06      0.53482547E-01      0.25749072E-14      0.25994997E-07      0.12515243E-20
    0.370522671788         0.47127541E-06      0.53627203E-01     -0.10704733E-14      0.26562422E-07     -0.53022277E-21
    0.373662694430         0.48429711E-06      0.53792536E-01      0.14094320E-15      0.27150429E-07      0.71137533E-22
    0.376802717072         0.49760605E-06      0.53980761E-01      0.37959298E-15      0.27760877E-07      0.19521462E-21
    0.379942739715         0.51120685E-06      0.54191760E-01     -0.15771201E-14      0.28394506E-07     -0.82635343E-21
    0.383082762357         0.52510413E-06      0.54426653E-01     -0.60435147E-16      0.29052733E-07     -0.32260044E-22
    0.386222784999         0.53930256E-06      0.54687070E-01     -0.31123530E-14      0.29737318E-07     -0.16924115E-20
    0.389362807641         0.55380682E-06      0.54972225E-01     -0.49371557E-14      0.30448765E-07     -0.27346591E-20
    0.392502830284         0.56862162E-06      0.55286575E-01     -0.41244587E-14      0.31190533E-07     -0.23268591E-20
    0.395642852926         0.58375171E-06      0.55626143E-01     -0.47364054E-15      0.31961439E-07     -0.27214242E-21
    0.398782875568         0.59920184E-06      0.55999902E-01      0.11902913E-14      0.32767737E-07      0.69648608E-21
    0.401922898210         0.61497679E-06      0.56398646E-01     -0.12799492E-14      0.33605256E-07     -0.76266052E-21
    0.405062920853         0.63108138E-06      0.56838539E-01      0.14819873E-14      0.34484849E-07      0.89914533E-21
    0.408202943495         0.64752043E-06      0.57301850E-01      0.18880764E-15      0.35397169E-07      0.11663247E-21
    0.411342966137         0.66429877E-06      0.57816284E-01      0.99961329E-15      0.36360688E-07      0.62865727E-21
    0.414482988779         0.68142128E-06      0.58350148E-01      0.18398347E-14      0.37357128E-07      0.11779052E-20
    0.417623011422         0.69889282E-06      0.58949881E-01     -0.14469599E-14      0.38417724E-07     -0.94298590E-21
    0.420763034064         0.71671828E-06      0.59560675E-01     -0.12869053E-14      0.39508729E-07     -0.85365039E-21
    0.423903056706         0.73490258E-06      0.60259966E-01      0.16074905E-14      0.40683157E-07      0.10852610E-20
    0.427043079349         0.75345064E-06      0.60953864E-01      0.27689972E-15      0.41880022E-07      0.19025154E-21
    0.430183101991         0.77236737E-06      0.61772565E-01     -0.28393470E-15      0.43190551E-07     -0.19852335E-21
    0.433323124633         0.79165771E-06      0.62554013E-01      0.10347662E-14      0.44504436E-07      0.73619075E-21
    0.436463147275         0.81132662E-06      0.63521821E-01     -0.26990414E-14      0.45982611E-07     -0.19538006E-20
    0.439603169918         0.83137904E-06      0.64389542E-01     -0.26686154E-14      0.47421593E-07     -0.19653811E-20
    0.442743192560         0.85181993E-06      0.65555797E-01     -0.13182149E-14      0.49116741E-07     -0.98765365E-21
    0.445883215202         0.87265424E-06      0.66491594E-01     -0.25873964E-14      0.50676939E-07     -0.19719986E-20
    0.449023237844         0.89388696E-06      0.67951979E-01     -0.21019881E-14      0.52679111E-07     -0.16295458E-20
    0.452163260487         0.91552302E-06      0.68884407E-01     -0.40913668E-15      0.54314710E-07     -0.32260044E-21
    0.455303283129         0.93756741E-06      0.70873305E-01     -0.28696783E-14      0.56833833E-07     -0.23012165E-20
    0.458443305771         0.96002506E-06      0.71525435E-01     -0.34629354E-14      0.58328390E-07     -0.28239946E-20
    0.461583328413         0.98290095E-06      0.74882904E-01     -0.11431488E-14      0.62096177E-07     -0.94794898E-21
    0.464723351056         0.10062000E-05      0.73746912E-01     -0.88882483E-15      0.62180786E-07     -0.74942563E-21
    0.467863373698         0.10299272E-05      0.84822462E-01     -0.24701896E-14      0.72714478E-07     -0.21175824E-20
    0.471003396340         0.10540874E-05      0.69782089E-01      0.94912893E-15      0.60816175E-07      0.82718061E-21
    0.474143418983         0.10786856E-05      0.58174654E-01     -0.61435378E-15      0.51539655E-07     -0.54428484E-21
    0.477283441625         0.11037267E-05      0.85344361E-01      0.19766733E-14      0.76856844E-07      0.17800927E-20
    0.480423464267         0.11292155E-05      0.84894428E-01     -0.12796418E-14      0.77705964E-07     -0.11712877E-20
    0.483563486909         0.11551570E-05      0.87974660E-01     -0.15720725E-14      0.81840382E-07     -0.14624553E-20
    0.486703509552         0.11815559E-05      0.90806383E-01     -0.17499192E-14      0.85847714E-07     -0.16543612E-20
    0.489843532194         0.12084172E-05      0.94640446E-01      0.25073193E-14      0.90919881E-07      0.24087499E-20
    0.492983554836         0.12357457E-05      0.97641979E-01      0.13388694E-14      0.95313801E-07      0.13069454E-20
    0.496123577478         0.12635461E-05      0.10271370E+00      0.17481064E-14      0.10187137E-06      0.17337706E-20
    0.499263600121         0.12918231E-05      0.10599492E+00      0.26138322E-14      0.10680234E-06      0.26337431E-20
    0.502403622763         0.13205817E-05      0.11270784E+00     -0.39209030E-14      0.11536901E-06     -0.40134803E-20
    0.505543645405         0.13498263E-05      0.11637006E+00     -0.28511927E-14      0.12099935E-06     -0.29646153E-20
    0.508683668048         0.13795618E-05      0.12545745E+00     -0.81204376E-14      0.13249892E-06     -0.85762086E-20
