 
 # Omega; pulse ft; projected flux at t=    1000.25000000000     
    0.000000000000         0.18717486E-09      0.00000000E+00      0.00000000E+00      0.65229774E-12     -0.62038546E-24
    0.003140022642         0.20186436E-09      0.26330217E-04     -0.59819022E-17      0.65917976E-12     -0.14975755E-24
    0.006280045285         0.24594737E-09      0.43731736E-04     -0.41650922E-16      0.66695829E-12     -0.63522354E-24
    0.009420067927         0.31946741E-09      0.50752163E-04      0.97354895E-16      0.67026977E-12      0.12857391E-23
    0.012560090569         0.42249703E-09      0.51372783E-04      0.11297073E-16      0.67295577E-12      0.14798557E-24
    0.015700113211         0.55513782E-09      0.49054159E-04     -0.25723042E-16      0.67545499E-12     -0.35419539E-24
    0.018840135854         0.71752051E-09      0.45708134E-04      0.34754314E-16      0.67790107E-12      0.51544408E-24
    0.021980158496         0.90980495E-09      0.42206078E-04     -0.34337198E-16      0.68032278E-12     -0.55348374E-24
    0.025120181138         0.11321802E-08      0.38899343E-04      0.63611292E-16      0.68274355E-12      0.11164764E-23
    0.028260203780         0.13848647E-08      0.35904044E-04      0.20938432E-16      0.68516939E-12      0.39957540E-24
    0.031400226423         0.16681061E-08      0.33237189E-04     -0.26098301E-16      0.68760292E-12     -0.53991534E-24
    0.034540249065         0.19821816E-08      0.30877371E-04     -0.64869307E-17      0.69005044E-12     -0.14497055E-24
    0.037680271707         0.23273981E-08      0.28790155E-04      0.96171073E-18      0.69250543E-12      0.23132557E-25
    0.040820294349         0.27040919E-08      0.26940559E-04     -0.14905380E-16      0.69498347E-12     -0.38451289E-24
    0.043960316992         0.31126296E-08      0.25295012E-04      0.91063104E-17      0.69746763E-12      0.25109127E-24
    0.047100339634         0.35534072E-08      0.23825439E-04      0.40920593E-18      0.69997800E-12      0.12022240E-25
    0.050240362276         0.40268513E-08      0.22506413E-04     -0.12846814E-16      0.70249245E-12     -0.40098746E-24
    0.053380384919         0.45334185E-08      0.21317940E-04     -0.38226960E-17      0.70503698E-12     -0.12642600E-24
    0.056520407561         0.50735959E-08      0.20241581E-04     -0.67282048E-17      0.70758329E-12     -0.23519730E-24
    0.059660430203         0.56479014E-08      0.19263486E-04     -0.62053057E-17      0.71016318E-12     -0.22876335E-24
    0.062800452845         0.62568834E-08      0.18370250E-04     -0.27131990E-17      0.71274288E-12     -0.10526875E-24
    0.065940475488         0.69011217E-08      0.17552312E-04      0.21462831E-16      0.71535970E-12      0.87473630E-24
    0.069080498130         0.75812269E-08      0.16799692E-04      0.50547198E-17      0.71797266E-12      0.21602483E-24
    0.072220520772         0.82978416E-08      0.16105821E-04      0.93562715E-17      0.72062602E-12      0.41862955E-24
    0.075360543414         0.90516395E-08      0.15463120E-04     -0.11956772E-16      0.72327409E-12     -0.55926767E-24
    0.078500566057         0.98433265E-08      0.14867037E-04     -0.69014450E-17      0.72596562E-12     -0.33700138E-24
    0.081640588699         0.10673641E-07      0.14311649E-04     -0.29057355E-16      0.72864951E-12     -0.14793982E-23
    0.084780611341         0.11543353E-07      0.13793822E-04      0.25845938E-17      0.73137914E-12      0.13704092E-24
    0.087920633984         0.12453265E-07      0.13308834E-04     -0.14155179E-17      0.73409960E-12     -0.78078297E-25
    0.091060656626         0.13404215E-07      0.12854550E-04     -0.13473216E-16      0.73686855E-12     -0.77233269E-24
    0.094200679268         0.14397070E-07      0.12427099E-04     -0.14256464E-16      0.73962635E-12     -0.84850510E-24
    0.097340701910         0.15432734E-07      0.12025070E-04     -0.13865824E-16      0.74243522E-12     -0.85608448E-24
    0.100480724553         0.16512144E-07      0.11645222E-04     -0.25051312E-16      0.74523120E-12     -0.16031484E-23
    0.103620747195         0.17636269E-07      0.11286672E-04      0.42456615E-18      0.74808066E-12      0.28140246E-25
    0.106760769837         0.18806114E-07      0.10946649E-04     -0.27580215E-17      0.75091557E-12     -0.18919409E-24
    0.109900792479         0.20022721E-07      0.10624661E-04     -0.82677182E-17      0.75380650E-12     -0.58658435E-24
    0.113040815122         0.21287162E-07      0.10318298E-04     -0.71298093E-17      0.75668144E-12     -0.52285701E-24
    0.116180837764         0.22600547E-07      0.10027344E-04     -0.11359626E-16      0.75961390E-12     -0.86053996E-24
    0.119320860406         0.23964023E-07      0.97496878E-05     -0.92118338E-17      0.76252942E-12     -0.72046351E-24
    0.122460883048         0.25378770E-07      0.94853242E-05      0.43400576E-17      0.76550478E-12      0.35026055E-24
    0.125600905691         0.26846007E-07      0.92323629E-05      0.43550725E-17      0.76846189E-12      0.36249736E-24
    0.128740928333         0.28366986E-07      0.89909580E-05      0.21789353E-17      0.77148072E-12      0.18696635E-24
    0.131880950975         0.29943001E-07      0.87594042E-05      0.10101188E-17      0.77448027E-12      0.89311676E-25
    0.135020973618         0.31575378E-07      0.85379725E-05     -0.13513799E-17      0.77754335E-12     -0.12306861E-24
    0.138160996260         0.33265483E-07      0.83251093E-05     -0.33423927E-17      0.78058619E-12     -0.31339235E-24
    0.141301018902         0.35014721E-07      0.81211741E-05      0.60122071E-17      0.78369439E-12      0.58017880E-24
    0.144441041544         0.36824533E-07      0.79247370E-05      0.57405973E-18      0.78678132E-12      0.56993623E-25
    0.147581064187         0.38696400E-07      0.77362269E-05     -0.13746805E-17      0.78993558E-12     -0.14036675E-24
    0.150721086829         0.40631842E-07      0.75543144E-05     -0.62365836E-17      0.79306739E-12     -0.65472931E-24
    0.153861109471         0.42632417E-07      0.73794827E-05     -0.97956959E-17      0.79626853E-12     -0.10569853E-23
    0.157001132113         0.44699723E-07      0.72105030E-05     -0.83006616E-17      0.79944788E-12     -0.92031669E-24
    0.160141154756         0.46835399E-07      0.70478281E-05      0.69926566E-17      0.80269232E-12      0.79640873E-24
    0.163281177398         0.49041122E-07      0.68904029E-05      0.26796946E-17      0.80591908E-12      0.31342390E-24
    0.166421200040         0.51318613E-07      0.67387085E-05     -0.18898238E-18      0.80921788E-12     -0.22693951E-25
    0.169561222683         0.53669630E-07      0.65916303E-05      0.18173779E-17      0.81248891E-12      0.22401125E-24
    0.172701245325         0.56095974E-07      0.64497828E-05      0.27670150E-17      0.81583787E-12      0.35000181E-24
    0.175841267967         0.58599489E-07      0.63120637E-05     -0.69502435E-17      0.81915661E-12     -0.90197725E-24
    0.178981290609         0.61182058E-07      0.61791327E-05      0.26921094E-17      0.82255796E-12      0.35837004E-24
    0.182121313252         0.63845608E-07      0.60498857E-05      0.23462155E-17      0.82592377E-12      0.32030277E-24
    0.185261335894         0.66592107E-07      0.59250625E-05     -0.26683875E-17      0.82937978E-12     -0.37351617E-24
    0.188401358536         0.69423567E-07      0.58035292E-05     -0.39220439E-18      0.83279405E-12     -0.56280492E-25
    0.191541381178         0.72342043E-07      0.56860466E-05     -0.22361150E-17      0.83629810E-12     -0.32888558E-24
    0.194681403821         0.75349631E-07      0.55717600E-05     -0.69211588E-17      0.83979175E-12     -0.10431770E-23
    0.197821426463         0.78448474E-07      0.54605645E-05      0.15726348E-16      0.84327895E-12      0.24286314E-23
    0.200961449105         0.81640757E-07      0.53532781E-05     -0.31260088E-17      0.84690874E-12     -0.49454637E-24
    0.204101471747         0.84928709E-07      0.52482463E-05      0.83537744E-17      0.85044286E-12      0.13536727E-23
    0.207241494390         0.88314602E-07      0.51464597E-05      0.54295931E-17      0.85405713E-12      0.90104324E-24
    0.210381517032         0.91800755E-07      0.50475621E-05      0.23182110E-17      0.85771476E-12      0.39392558E-24
    0.213521539674         0.95389531E-07      0.49510855E-05      0.16669941E-16      0.86135462E-12      0.29001177E-23
    0.216661562317         0.99083337E-07      0.48574975E-05     -0.35726231E-17      0.86507524E-12     -0.63625103E-24
    0.219801584959         0.10288463E-06      0.47661123E-05     -0.79848687E-17      0.86877332E-12     -0.14554925E-23
    0.222941607601         0.10679590E-06      0.46773893E-05      0.22818463E-17      0.87254834E-12      0.42566934E-24
    0.226081630243         0.11081969E-06      0.45907395E-05     -0.34181786E-17      0.87630814E-12     -0.65248263E-24
    0.229221652886         0.11495860E-06      0.45065370E-05     -0.14687712E-17      0.88013909E-12     -0.28685507E-24
    0.232361675528         0.11921526E-06      0.44242870E-05      0.25926141E-17      0.88396115E-12      0.51799762E-24
    0.235501698170         0.12359235E-06      0.43442979E-05      0.30891858E-18      0.88785015E-12      0.63134116E-25
    0.238641720812         0.12809259E-06      0.42661451E-05     -0.24729570E-17      0.89173499E-12     -0.51691215E-24
    0.241781743455         0.13271877E-06      0.41900912E-05      0.14009798E-17      0.89568408E-12      0.29947684E-24
    0.244921766097         0.13747370E-06      0.41157632E-05     -0.12714038E-17      0.89963253E-12     -0.27790623E-24
    0.248061788739         0.14236024E-06      0.40433915E-05     -0.74408004E-18      0.90364360E-12     -0.16629188E-24
    0.251201811381         0.14738131E-06      0.39726419E-05      0.13598647E-17      0.90765669E-12      0.31069760E-24
    0.254341834024         0.15253987E-06      0.39037219E-05      0.98572806E-19      0.91173160E-12      0.23022117E-25
    0.257481856666         0.15783893E-06      0.38363276E-05     -0.11920648E-17      0.91581072E-12     -0.28457053E-24
    0.260621879308         0.16328153E-06      0.37706534E-05      0.23131073E-17      0.91995237E-12      0.56434478E-24
    0.263761901951         0.16887077E-06      0.37064192E-05      0.12612434E-17      0.92410114E-12      0.31445889E-24
    0.266901924593         0.17460981E-06      0.36437493E-05      0.11873438E-17      0.92829917E-12      0.30249345E-24
    0.270041947235         0.18050182E-06      0.35824652E-05      0.25427883E-17      0.93251294E-12      0.66188585E-24
    0.273181969877         0.18655005E-06      0.35227012E-05     -0.91992650E-18      0.93678879E-12     -0.24463523E-24
    0.276321992520         0.19275778E-06      0.34642236E-05      0.90257811E-18      0.94107647E-12      0.24519059E-24
    0.279462015162         0.19912834E-06      0.34071509E-05      0.17258689E-17      0.94541872E-12      0.47889537E-24
    0.282602037804         0.20566511E-06      0.33513168E-05     -0.19258316E-17      0.94978074E-12     -0.54579077E-24
    0.285742060446         0.21237151E-06      0.32967866E-05     -0.25195517E-17      0.95419131E-12     -0.72923564E-24
    0.288882083089         0.21925100E-06      0.32434562E-05      0.25563106E-18      0.95863119E-12      0.75553942E-25
    0.292022105731         0.22630710E-06      0.31913257E-05      0.17460276E-17      0.96311050E-12      0.52693384E-24
    0.295162128373         0.23354337E-06      0.31403685E-05      0.23141595E-17      0.96763163E-12      0.71305453E-24
    0.298302151016         0.24096340E-06      0.30905060E-05      0.23693967E-17      0.97218035E-12      0.74534103E-24
    0.301442173658         0.24857086E-06      0.30417977E-05      0.48911578E-18      0.97678519E-12      0.15706536E-24
    0.304582196300         0.25636942E-06      0.29940870E-05      0.15129277E-17      0.98140592E-12      0.49590952E-24
    0.307722218942         0.26436283E-06      0.29475011E-05      0.99139937E-18      0.98609342E-12      0.33167499E-24
    0.310862241585         0.27255487E-06      0.29018599E-05      0.14157546E-17      0.99079762E-12      0.48338872E-24
    0.314002264227         0.28094936E-06      0.28572372E-05      0.45797933E-17      0.99555233E-12      0.15957457E-23
    0.317142286869         0.28955016E-06      0.28136058E-05      0.22844953E-17      0.10003580E-11      0.81223643E-24
    0.320282309511         0.29836118E-06      0.27708643E-05     -0.24530962E-17      0.10051877E-11     -0.88991083E-24
    0.323422332154         0.30738639E-06      0.27290688E-05      0.22111910E-18      0.10100704E-11      0.81839586E-25
    0.326562354796         0.31662976E-06      0.26881755E-05     -0.27990722E-17      0.10149994E-11     -0.10568717E-23
    0.329702377438         0.32609534E-06      0.26481188E-05      0.19589857E-18      0.10199585E-11      0.75452968E-25
    0.332842400080         0.33578719E-06      0.26089661E-05      0.20904503E-17      0.10249825E-11      0.82127362E-24
    0.335982422723         0.34570944E-06      0.25705822E-05      0.93868409E-20      0.10300273E-11      0.37612888E-26
    0.339122445365         0.35586624E-06      0.25330781E-05     -0.29731889E-17      0.10351454E-11     -0.12149973E-23
    0.342262468007         0.36626178E-06      0.24962924E-05     -0.73526295E-18      0.10402802E-11     -0.30640620E-24
    0.345402490650         0.37690029E-06      0.24603585E-05     -0.19635309E-17      0.10454950E-11     -0.83437502E-24
    0.348542513292         0.38778604E-06      0.24250974E-05     -0.93337027E-18      0.10507228E-11     -0.40440165E-24
    0.351682535934         0.39892335E-06      0.23906621E-05      0.28098907E-18      0.10560376E-11      0.12412253E-24
    0.354822558576         0.41031655E-06      0.23568555E-05     -0.12972979E-17      0.10613614E-11     -0.58421145E-24
    0.357962581219         0.42197002E-06      0.23238522E-05     -0.12674100E-17      0.10667804E-11     -0.58181332E-24
    0.361102603861         0.43388818E-06      0.22914340E-05     -0.48289446E-18      0.10722032E-11     -0.22595501E-24
    0.364242626503         0.44607547E-06      0.22598010E-05     -0.20656861E-17      0.10777308E-11     -0.98515474E-24
    0.367382649145         0.45853638E-06      0.22287089E-05      0.13214205E-17      0.10832558E-11      0.64227162E-24
    0.370522671788         0.47127541E-06      0.21983886E-05      0.20369497E-17      0.10888975E-11      0.10089342E-23
    0.373662694430         0.48429711E-06      0.21685639E-05      0.76942272E-18      0.10945281E-11      0.38834676E-24
    0.376802717072         0.49760605E-06      0.21395033E-05     -0.13049471E-17      0.11002899E-11     -0.67109975E-24
    0.379942739715         0.51120685E-06      0.21108904E-05     -0.99497340E-18      0.11060296E-11     -0.52132977E-24
    0.383082762357         0.52510413E-06      0.20830412E-05     -0.13998498E-17      0.11119192E-11     -0.74723429E-24
    0.386222784999         0.53930256E-06      0.20555872E-05     -0.22663248E-17      0.11177715E-11     -0.12323648E-23
    0.389362807641         0.55380682E-06      0.20289062E-05     -0.10732391E-17      0.11237983E-11     -0.59446033E-24
    0.392502830284         0.56862162E-06      0.20025605E-05     -0.11230172E-17      0.11297667E-11     -0.63356259E-24
    0.395642852926         0.58375171E-06      0.19770092E-05     -0.58450101E-18      0.11359418E-11     -0.33584018E-24
    0.398782875568         0.59920184E-06      0.19517259E-05     -0.77861061E-18      0.11420313E-11     -0.45559557E-24
    0.401922898210         0.61497679E-06      0.19272683E-05     -0.16390771E-17      0.11483670E-11     -0.97664767E-24
    0.405062920853         0.63108138E-06      0.19030081E-05     -0.22015856E-17      0.11545854E-11     -0.13357372E-23
    0.408202943495         0.64752043E-06      0.18796126E-05     -0.20491300E-17      0.11610962E-11     -0.12658125E-23
    0.411342966137         0.66429877E-06      0.18563364E-05     -0.57000847E-17      0.11674509E-11     -0.35847859E-23
    0.414482988779         0.68142128E-06      0.18339850E-05     -0.32016579E-17      0.11741601E-11     -0.20497762E-23
    0.417623011422         0.69889282E-06      0.18116510E-05     -0.18415315E-17      0.11806556E-11     -0.12001288E-23
    0.420763034064         0.71671828E-06      0.17903395E-05     -0.28650433E-17      0.11875963E-11     -0.19004858E-23
    0.423903056706         0.73490258E-06      0.17689077E-05     -0.37686925E-17      0.11942382E-11     -0.25443478E-23
    0.427043079349         0.75345064E-06      0.17486480E-05     -0.10634163E-17      0.12014565E-11     -0.73064928E-24
    0.430183101991         0.77236737E-06      0.17280801E-05     -0.39028602E-17      0.12082505E-11     -0.27288276E-23
    0.433323124633         0.79165771E-06      0.17089089E-05     -0.53953208E-18      0.12158137E-11     -0.38385341E-24
    0.436463147275         0.81132662E-06      0.16891680E-05     -0.85234705E-18      0.12227665E-11     -0.61700282E-24
    0.439603169918         0.83137904E-06      0.16711612E-05     -0.80082351E-18      0.12307764E-11     -0.58979028E-24
    0.442743192560         0.85181993E-06      0.16522021E-05      0.16662914E-17      0.12378888E-11      0.12484450E-23
    0.445883215202         0.87265424E-06      0.16355167E-05     -0.10307335E-18      0.12465182E-11     -0.78557924E-25
    0.449023237844         0.89388696E-06      0.16172969E-05     -0.50178390E-18      0.12537937E-11     -0.38900309E-24
    0.452163260487         0.91552302E-06      0.16022238E-05     -0.70304999E-18      0.12633385E-11     -0.55434834E-24
    0.455303283129         0.93756741E-06      0.15846728E-05     -0.93934465E-19      0.12707610E-11     -0.75326750E-25
    0.458443305771         0.96002506E-06      0.15718108E-05     -0.15198909E-17      0.12817984E-11     -0.12394583E-23
    0.461583328413         0.98290095E-06      0.15548019E-05     -0.25412692E-18      0.12893097E-11     -0.21073315E-24
    0.464723351056         0.10062000E-05      0.15455046E-05     -0.29232490E-18      0.13031148E-11     -0.24647801E-24
    0.467863373698         0.10299272E-05      0.15287306E-05     -0.11665706E-17      0.13105119E-11     -0.10000484E-23
    0.471003396340         0.10540874E-05      0.15267081E-05     -0.53017749E-18      0.13305499E-11     -0.46205792E-24
    0.474143418983         0.10786856E-05      0.15090156E-05     -0.77319411E-18      0.13369077E-11     -0.68500894E-24
    0.477283441625         0.11037267E-05      0.15289586E-05     -0.94493394E-18      0.13769033E-11     -0.85096004E-24
    0.480423464267         0.11292155E-05      0.15007276E-05     -0.20005656E-18      0.13736530E-11     -0.18311670E-24
    0.483563486909         0.11551570E-05      0.17095104E-05     -0.82535818E-18      0.15903100E-11     -0.76780779E-24
    0.486703509552         0.11815559E-05      0.16784857E-05     -0.12267271E-17      0.15868285E-11     -0.11597391E-23
    0.489843532194         0.12084172E-05      0.12147744E-05     -0.91021967E-19      0.11670184E-11     -0.87443654E-25
    0.492983554836         0.12357457E-05      0.12343129E-05      0.75925428E-19      0.12048819E-11      0.74115060E-25
    0.496123577478         0.12635461E-05      0.13008798E-05     -0.66873315E-18      0.12902116E-11     -0.66324901E-24
    0.499263600121         0.12918231E-05      0.12920764E-05      0.66074018E-18      0.13019188E-11      0.66577336E-24
    0.502403622763         0.13205817E-05      0.12995465E-05      0.13908954E-19      0.13302303E-11      0.14237362E-25
    0.505543645405         0.13498263E-05      0.12906913E-05     -0.54047152E-18      0.13420360E-11     -0.56197189E-24
    0.508683668048         0.13795618E-05      0.12867313E-05     -0.13274223E-17      0.13589509E-11     -0.14019257E-23
