 
 # Omega; pulse ft; proj flux t=    1000.25000000000     
    0.000000000000         0.64285036E-11      0.00000000E+00      0.00000000E+00      0.81088541E-15      0.98737412E-25      0.25461986E-17      0.31003771E-27
    0.003140022642         0.21245158E-10      0.19168832E-05     -0.42929212E-15      0.80383240E-15     -0.18002084E-24      0.50702505E-17     -0.25523181E-27
    0.006280045285         0.65709671E-10      0.12578470E-05      0.13324501E-15      0.81571229E-15      0.86409229E-25      0.76316056E-17      0.16095130E-28
    0.009420067927         0.13986570E-09      0.89422357E-06      0.80916499E-17      0.82289791E-15      0.74462383E-26      0.10215524E-16      0.39476487E-28
    0.012560090569         0.24378600E-09      0.68724956E-06     -0.54684116E-16      0.82674798E-15     -0.65783937E-25      0.12811531E-16     -0.16708657E-27
    0.015700113211         0.37757252E-09      0.55722419E-06      0.11444565E-15      0.83055850E-15      0.17058450E-24      0.15419504E-16      0.36855262E-27
    0.018840135854         0.54135636E-09      0.46823281E-06      0.18079084E-16      0.83388034E-15      0.32197216E-25      0.18037907E-16      0.46965261E-27
    0.021980158496         0.73529789E-09      0.40378988E-06     -0.38312671E-16      0.83720267E-15     -0.79436044E-25      0.20666742E-16      0.22022164E-27
    0.025120181138         0.95958676E-09      0.35497840E-06      0.48119737E-16      0.84043878E-15      0.11392719E-24      0.23305739E-16      0.57795561E-27
    0.028260203780         0.12144420E-08      0.31679511E-06      0.10148767E-16      0.84376722E-15      0.27030711E-25      0.25955187E-16      0.66283265E-27
    0.031400226423         0.15001122E-08      0.28599314E-06     -0.27027411E-16      0.84681640E-15     -0.80027287E-25      0.28614210E-16      0.41154516E-27
    0.034540249065         0.18168754E-08      0.26061301E-06      0.29426660E-16      0.84964684E-15      0.95936383E-25      0.31282120E-16      0.71278757E-27
    0.037680271707         0.21650394E-08      0.23944899E-06     -0.17471677E-16      0.85272198E-15     -0.62219861E-25      0.33959686E-16      0.51741580E-27
    0.040820294349         0.25449417E-08      0.22155144E-06      0.27962598E-18      0.85608909E-15      0.10804929E-26      0.36647825E-16      0.52080857E-27
    0.043960316992         0.29569499E-08      0.20610805E-06      0.92076722E-17      0.85925243E-15      0.38386248E-25      0.39345898E-16      0.64134226E-27
    0.047100339634         0.34014614E-08      0.19269557E-06     -0.29243921E-16      0.86249364E-15     -0.13089401E-24      0.42054147E-16      0.23033209E-27
    0.050240362276         0.38789041E-08      0.18089660E-06     -0.45044927E-16      0.86562415E-15     -0.21554842E-24      0.44772227E-16     -0.44649484E-27
    0.053380384919         0.43897362E-08      0.17047733E-06     -0.62060617E-17      0.86889245E-15     -0.31631186E-25      0.47500568E-16     -0.54581748E-27
    0.056520407561         0.49344463E-08      0.16115753E-06      0.28752908E-18      0.87201994E-15      0.15558137E-26      0.50238731E-16     -0.54093219E-27
    0.059660430203         0.55135541E-08      0.15281962E-06      0.16349628E-16      0.87532039E-15      0.93647417E-25      0.52987257E-16     -0.24687718E-27
    0.062800452845         0.61276098E-08      0.14528041E-06      0.55239898E-17      0.87857339E-15      0.33405953E-25      0.55745997E-16     -0.14198173E-27
    0.065940475488         0.67771950E-08      0.13846481E-06      0.74930614E-17      0.88202319E-15      0.47730927E-25      0.58515570E-16      0.78944663E-29
    0.069080498130         0.74629227E-08      0.13219827E-06      0.11121040E-16      0.88516030E-15      0.74463180E-25      0.61294993E-16      0.24171054E-27
    0.072220520772         0.81854373E-08      0.12648588E-06      0.52131615E-17      0.88851753E-15      0.36620572E-25      0.64084958E-16      0.35669996E-27
    0.075360543414         0.89454151E-08      0.12121003E-06     -0.19006601E-16      0.89173893E-15     -0.13983104E-24      0.66885039E-16     -0.82372685E-28
    0.078500566057         0.97435644E-08      0.11636883E-06     -0.22252162E-16      0.89520893E-15     -0.17118273E-24      0.69696015E-16     -0.61989035E-27
    0.081640588699         0.10580626E-07      0.11185308E-06     -0.17514324E-16      0.89845405E-15     -0.14068289E-24      0.72517181E-16     -0.10616378E-26
    0.084780611341         0.11457373E-07      0.10768523E-06     -0.19203466E-17      0.90196005E-15     -0.16084620E-25      0.75349356E-16     -0.11121439E-26
    0.087920633984         0.12374611E-07      0.10377396E-06      0.20501872E-17      0.90525680E-15      0.17884505E-25      0.78191883E-16     -0.10559861E-26
    0.091060656626         0.13333179E-07      0.10014710E-06     -0.75872575E-17      0.90883282E-15     -0.68854200E-25      0.81045639E-16     -0.12721899E-26
    0.094200679268         0.14333950E-07      0.96721632E-07     -0.93327911E-17      0.91217496E-15     -0.88016901E-25      0.83909889E-16     -0.15485649E-26
    0.097340701910         0.15377830E-07      0.93532754E-07     -0.13934265E-16      0.91581336E-15     -0.13643548E-24      0.86785563E-16     -0.19769755E-26
    0.100480724553         0.16465758E-07      0.90504339E-07     -0.22208134E-16      0.91920221E-15     -0.22555566E-24      0.89671879E-16     -0.26852253E-26
    0.103620747195         0.17598710E-07      0.87676081E-07      0.10986568E-16      0.92290695E-15      0.11564819E-24      0.92569828E-16     -0.23220874E-26
    0.106760769837         0.18777693E-07      0.84976870E-07     -0.36528990E-17      0.92634751E-15     -0.39820882E-25      0.95478580E-16     -0.24471259E-26
    0.109900792479         0.20003751E-07      0.82448489E-07     -0.15413392E-17      0.93011360E-15     -0.17388076E-25      0.98399158E-16     -0.25017248E-26
    0.113040815122         0.21277963E-07      0.80023985E-07      0.77064863E-18      0.93359309E-15      0.89907073E-26      0.10133066E-15     -0.24734938E-26
    0.116180837764         0.22601444E-07      0.77748562E-07     -0.94130451E-17      0.93742540E-15     -0.11349442E-24      0.10427420E-15     -0.28298688E-26
    0.119320860406         0.23975342E-07      0.75559307E-07     -0.20140119E-17      0.94097714E-15     -0.25081479E-25      0.10722889E-15     -0.29086252E-26
    0.122460883048         0.25400844E-07      0.73499250E-07      0.84147428E-17      0.94487934E-15      0.10817684E-24      0.11019583E-15     -0.25689475E-26
    0.125600905691         0.26879174E-07      0.71509637E-07     -0.35361061E-18      0.94848483E-15     -0.46901972E-26      0.11317409E-15     -0.25836748E-26
    0.128740928333         0.28411589E-07      0.69634337E-07      0.58997071E-17      0.95245618E-15      0.80696000E-25      0.11616483E-15     -0.23302876E-26
    0.131880950975         0.29999386E-07      0.67817786E-07      0.84385623E-17      0.95612920E-15      0.11897109E-24      0.11916710E-15     -0.19567157E-26
    0.135020973618         0.31643900E-07      0.66102308E-07      0.44993459E-17      0.96016985E-15      0.65355302E-25      0.12218205E-15     -0.17514985E-26
    0.138160996260         0.33346502E-07      0.64436059E-07      0.11576435E-16      0.96390997E-15      0.17317387E-24      0.12520875E-15     -0.12077287E-26
    0.141301018902         0.35108601E-07      0.62860274E-07      0.41021258E-17      0.96802634E-15      0.63171309E-25      0.12824837E-15     -0.10093693E-26
    0.144441041544         0.36931646E-07      0.61325850E-07     -0.12988522E-18      0.97183896E-15     -0.20583085E-26      0.13129997E-15     -0.10158325E-26
    0.147581064187         0.38817124E-07      0.59873015E-07      0.93530543E-17      0.97603754E-15      0.15247156E-24      0.13436475E-15     -0.53706831E-27
    0.150721086829         0.40766561E-07      0.58453972E-07     -0.83476913E-17      0.97991130E-15     -0.13993911E-24      0.13744169E-15     -0.97648029E-27
    0.153861109471         0.42781523E-07      0.57112203E-07     -0.44676352E-17      0.98423537E-15     -0.76992384E-25      0.14053222E-15     -0.12182381E-26
    0.157001132113         0.44863615E-07      0.55787649E-07     -0.51412088E-17      0.98803474E-15     -0.91054077E-25      0.14363467E-15     -0.15041500E-26
    0.160141154756         0.47014483E-07      0.54538841E-07      0.11556518E-16      0.99237837E-15      0.21028021E-24      0.14675076E-15     -0.84386537E-27
    0.163281177398         0.49235812E-07      0.53324563E-07      0.45335817E-17      0.99658643E-15      0.84728419E-25      0.14988006E-15     -0.57781621E-27
    0.166421200040         0.51529331E-07      0.52160533E-07      0.49048987E-17      0.10009919E-14      0.94127945E-25      0.15302320E-15     -0.28225234E-27
    0.169561222683         0.53896806E-07      0.51017088E-07      0.64235723E-18      0.10050666E-14      0.12654815E-25      0.15617913E-15     -0.24251593E-27
    0.172701245325         0.56340048E-07      0.49934780E-07      0.20664665E-17      0.10096424E-14      0.41782343E-25      0.15934943E-15     -0.11131843E-27
    0.175841267967         0.58860908E-07      0.48865216E-07     -0.98905467E-17      0.10137915E-14     -0.20519611E-24      0.16253276E-15     -0.75563886E-27
    0.178981290609         0.61461278E-07      0.47853462E-07      0.15459207E-16      0.10184741E-14      0.32902118E-24      0.16573079E-15      0.27749508E-27
    0.182121313252         0.64143096E-07      0.46850538E-07      0.16733912E-16      0.10226956E-14      0.36528286E-24      0.16894208E-15      0.14244915E-26
    0.185261335894         0.66908339E-07      0.45902210E-07      0.14652568E-16      0.10274761E-14      0.32798342E-24      0.17216838E-15      0.24543669E-26
    0.188401358536         0.69759030E-07      0.44967125E-07      0.56557225E-17      0.10319394E-14      0.12979177E-24      0.17540869E-15      0.28619160E-26
    0.191541381178         0.72697233E-07      0.44051120E-07     -0.10865151E-16      0.10362270E-14     -0.25558402E-24      0.17866247E-15      0.20593764E-26
    0.194681403821         0.75725056E-07      0.43240880E-07      0.56107287E-17      0.10424430E-14      0.13526240E-24      0.18193576E-15      0.24841034E-26
    0.197821426463         0.78844653E-07      0.42314021E-07      0.17466286E-16      0.10452637E-14      0.43146161E-24      0.18521791E-15      0.38389026E-26
    0.200961449105         0.82058219E-07      0.41499390E-07      0.41524373E-16      0.10502525E-14      0.10508848E-23      0.18851573E-15      0.71387046E-26
    0.204101471747         0.85367996E-07      0.40776005E-07      0.33102955E-16      0.10570519E-14      0.85814049E-24      0.19183490E-15      0.98332851E-26
    0.207241494390         0.88776268E-07      0.39930196E-07      0.14543554E-16      0.10601426E-14      0.38612987E-24      0.19516377E-15      0.11045742E-25
    0.210381517032         0.92285368E-07      0.39202601E-07     -0.10634645E-19      0.10658174E-14     -0.28912852E-27      0.19851046E-15      0.11044834E-25
    0.213521539674         0.95897669E-07      0.38457013E-07      0.66843771E-17      0.10704948E-14      0.18606727E-24      0.20187184E-15      0.11629089E-25
    0.216661562317         0.99615594E-07      0.37745765E-07     -0.40060112E-17      0.10756138E-14     -0.11415641E-24      0.20524929E-15      0.11270636E-25
    0.219801584959         0.10344161E-06      0.37048788E-07     -0.67319593E-17      0.10806402E-14     -0.19635800E-24      0.20864252E-15      0.10654067E-25
    0.222941607601         0.10737822E-06      0.36374366E-07     -0.69673681E-17      0.10858334E-14     -0.20798716E-24      0.21205206E-15      0.10000983E-25
    0.226081630243         0.11142800E-06      0.35714908E-07     -0.33921970E-17      0.10909913E-14     -0.10362220E-24      0.21547780E-15      0.96756065E-26
    0.229221652886         0.11559354E-06      0.35076336E-07     -0.17748004E-17      0.10963137E-14     -0.55471526E-25      0.21892025E-15      0.95014247E-26
    0.232361675528         0.11987749E-06      0.34451401E-07     -0.18135535E-18      0.11015969E-14     -0.57989077E-26      0.22237929E-15      0.94832160E-26
    0.235501698170         0.12428256E-06      0.33846445E-07     -0.19448498E-17      0.11070618E-14     -0.63612857E-25      0.22585549E-15      0.92834702E-26
    0.238641720812         0.12881148E-06      0.33253726E-07      0.20347318E-17      0.11124774E-14      0.68070361E-25      0.22934869E-15      0.94972126E-26
    0.241781743455         0.13346705E-06      0.32679369E-07     -0.38513440E-17      0.11180646E-14     -0.13176666E-24      0.23285944E-15      0.90834623E-26
    0.244921766097         0.13825210E-06      0.32116899E-07      0.21284282E-17      0.11236230E-14      0.74463941E-25      0.23638764E-15      0.93172808E-26
    0.248061788739         0.14316951E-06      0.31571411E-07      0.18966421E-17      0.11293468E-14      0.67845138E-25      0.23993382E-15      0.95303161E-26
    0.251201811381         0.14822222E-06      0.31037468E-07      0.10400924E-17      0.11350618E-14      0.38036902E-25      0.24349794E-15      0.96497528E-26
    0.254341834024         0.15341320E-06      0.30518091E-07     -0.56852912E-18      0.11408931E-14     -0.21253983E-25      0.24708037E-15      0.95830148E-26
    0.257481856666         0.15874548E-06      0.30014099E-07      0.10391052E-17      0.11468925E-14      0.39706073E-25      0.25068164E-15      0.97076928E-26
    0.260621879308         0.16422213E-06      0.29507317E-07     -0.25145141E-18      0.11523734E-14     -0.98201372E-26      0.25430011E-15      0.96768573E-26
    0.263761901951         0.16984627E-06      0.28959168E-07      0.31697139E-17      0.11557734E-14      0.12650470E-24      0.25792927E-15      0.10074085E-25
    0.266901924593         0.17562106E-06      0.28490727E-07      0.26933070E-17      0.11619062E-14      0.10983820E-24      0.26157768E-15      0.10418979E-25
    0.270041947235         0.18154971E-06      0.28096773E-07      0.53293840E-17      0.11707481E-14      0.22206699E-24      0.26525386E-15      0.11116275E-25
    0.273181969877         0.18763548E-06      0.27666032E-07     -0.19196692E-17      0.11777483E-14     -0.81720686E-25      0.26895201E-15      0.10859670E-25
    0.276321992520         0.19388169E-06      0.27222713E-07      0.10737117E-17      0.11838466E-14      0.46692992E-25      0.27266932E-15      0.11006287E-25
    0.279462015162         0.20029168E-06      0.26799404E-07      0.17779887E-17      0.11904411E-14      0.78979026E-25      0.27640733E-15      0.11254283E-25
    0.282602037804         0.20686884E-06      0.26381702E-07     -0.23342400E-17      0.11969204E-14     -0.10590293E-24      0.28016569E-15      0.10921745E-25
    0.285742060446         0.21361663E-06      0.25977406E-07     -0.24849645E-17      0.12036476E-14     -0.11513935E-24      0.28394517E-15      0.10560205E-25
    0.288882083089         0.22053854E-06      0.25580262E-07      0.49074912E-18      0.12103516E-14      0.23220207E-25      0.28774570E-15      0.10633117E-25
    0.292022105731         0.22763810E-06      0.25193605E-07      0.27686865E-17      0.12172008E-14      0.13376598E-24      0.29156774E-15      0.11053145E-25
    0.295162128373         0.23491890E-06      0.24818462E-07      0.30005887E-17      0.12242634E-14      0.14801525E-24      0.29541195E-15      0.11517917E-25
    0.298302151016         0.24238456E-06      0.24446349E-07      0.33929831E-17      0.12311338E-14      0.17087280E-24      0.29927774E-15      0.12054461E-25
    0.301442173658         0.25003877E-06      0.24094334E-07      0.31072122E-18      0.12386852E-14      0.15974119E-25      0.30316724E-15      0.12104620E-25
    0.304582196300         0.25788523E-06      0.23732879E-07      0.34465870E-17      0.12454177E-14      0.18086473E-24      0.30707788E-15      0.12672540E-25
    0.307722218942         0.26592771E-06      0.23403812E-07      0.31407648E-17      0.12535279E-14      0.16822201E-24      0.31101399E-15      0.13200760E-25
    0.310862241585         0.27417002E-06      0.23066735E-07      0.35820726E-17      0.12609004E-14      0.19580738E-24      0.31497324E-15      0.13815600E-25
    0.314002264227         0.28261602E-06      0.22724061E-07      0.50873594E-17      0.12676303E-14      0.28379131E-24      0.31895363E-15      0.14706711E-25
    0.317142286869         0.29126959E-06      0.22436893E-07      0.55611561E-17      0.12771631E-14      0.31655469E-24      0.32296395E-15      0.15700700E-25
    0.320282309511         0.30013468E-06      0.22108941E-07     -0.25832016E-17      0.12840852E-14     -0.15003210E-24      0.32699601E-15      0.15229596E-25
    0.323422332154         0.30921526E-06      0.21808017E-07     -0.92284281E-18      0.12922596E-14     -0.54684132E-25      0.33105373E-15      0.15057887E-25
    0.326562354796         0.31851537E-06      0.21517990E-07     -0.59055657E-18      0.13007944E-14     -0.35700019E-25      0.33513826E-15      0.14945788E-25
    0.329702377438         0.32803906E-06      0.21225145E-07     -0.52211288E-18      0.13088709E-14     -0.32196641E-25      0.33924814E-15      0.14844689E-25
    0.332842400080         0.33779045E-06      0.20948160E-07      0.15521204E-17      0.13176415E-14      0.97628545E-25      0.34338556E-15      0.15151245E-25
    0.335982422723         0.34777368E-06      0.20672611E-07      0.33940645E-18      0.13262279E-14      0.21774235E-25      0.34754995E-15      0.15219617E-25
    0.339122445365         0.35799293E-06      0.20407219E-07     -0.15871347E-17      0.13351942E-14     -0.10384232E-24      0.35174249E-15      0.14893550E-25
    0.342262468007         0.36845245E-06      0.20147380E-07     -0.29742751E-18      0.13442605E-14     -0.19844766E-25      0.35596350E-15      0.14831237E-25
    0.345402490650         0.37915648E-06      0.19894312E-07     -0.16192921E-17      0.13535199E-14     -0.11016937E-24      0.36021358E-15      0.14485302E-25
    0.348542513292         0.39010935E-06      0.19648991E-07     -0.19492902E-17      0.13630555E-14     -0.13522275E-24      0.36449361E-15      0.14060700E-25
    0.351682535934         0.40131538E-06      0.19408517E-07     -0.81287537E-18      0.13726822E-14     -0.57491235E-25      0.36880386E-15      0.13880176E-25
    0.354822558576         0.41277896E-06      0.19177073E-07     -0.32153855E-17      0.13827107E-14     -0.23183663E-24      0.37314560E-15      0.13152204E-25
    0.357962581219         0.42450450E-06      0.18948938E-07     -0.99405262E-18      0.13927470E-14     -0.73062869E-25      0.37751886E-15      0.12922785E-25
    0.361102603861         0.43649646E-06      0.18731192E-07      0.18347523E-18      0.14033248E-14      0.13745807E-25      0.38192533E-15      0.12965947E-25
    0.364242626503         0.44875932E-06      0.18515183E-07     -0.20679601E-17      0.14138176E-14     -0.15790924E-24      0.38636475E-15      0.12470108E-25
    0.367382649145         0.46129760E-06      0.18311032E-07      0.18694417E-17      0.14250105E-14      0.14548464E-24      0.39083932E-15      0.12926933E-25
    0.370522671788         0.47411586E-06      0.18107069E-07      0.11612596E-17      0.14360201E-14      0.92096198E-25      0.39534845E-15      0.13216117E-25
    0.373662694430         0.48721866E-06      0.17916474E-07      0.31114583E-17      0.14479028E-14      0.25144953E-24      0.39989490E-15      0.14005675E-25
    0.376802717072         0.50061064E-06      0.17724407E-07     -0.19031532E-17      0.14594877E-14     -0.15671208E-24      0.40447772E-15      0.13513595E-25
    0.379942739715         0.51429644E-06      0.17547676E-07     -0.17816796E-17      0.14721690E-14     -0.14947469E-24      0.40910037E-15      0.13044241E-25
    0.383082762357         0.52828072E-06      0.17367524E-07     -0.16667289E-17      0.14844061E-14     -0.14245569E-24      0.41376144E-15      0.12596927E-25
