 
 # Omega; pulse ft; projected flux at t=    1000.25000000000     
    0.000000000000         0.18717486E-09      0.00000000E+00      0.00000000E+00     -0.28315602E-13      0.12924697E-25
    0.003140022642         0.20186436E-09     -0.57052537E-06      0.16381224E-18     -0.14283163E-13      0.41010567E-26
    0.006280045285         0.24594737E-09      0.66272611E-06     -0.11058955E-17      0.10107321E-13     -0.16866154E-25
    0.009420067927         0.31946741E-09      0.98370332E-06      0.58133849E-18      0.12991497E-13      0.76775764E-26
    0.012560090569         0.42249703E-09      0.11770369E-05      0.24010888E-17      0.15418549E-13      0.31452969E-25
    0.015700113211         0.55513782E-09      0.11572246E-05     -0.63743154E-18      0.15934492E-13     -0.87771623E-26
    0.018840135854         0.71752051E-09      0.11333635E-05      0.44830779E-18      0.16809007E-13      0.66488895E-26
    0.021980158496         0.90980495E-09      0.10551001E-05     -0.16987929E-17      0.17007234E-13     -0.27382964E-25
    0.025120181138         0.11321802E-08      0.99624939E-06     -0.82266486E-18      0.17485715E-13     -0.14439039E-25
    0.028260203780         0.13848647E-08      0.92127537E-06     -0.38983993E-19      0.17581019E-13     -0.74394514E-27
    0.031400226423         0.16681061E-08      0.87345695E-06      0.65212483E-19      0.18069866E-13      0.13491001E-26
    0.034540249065         0.19821816E-08      0.82010236E-06      0.98095580E-18      0.18327726E-13      0.21922494E-25
    0.037680271707         0.23273981E-08      0.76378928E-06      0.16062183E-17      0.18371844E-13      0.38635252E-25
    0.040820294349         0.27040919E-08      0.71088091E-06      0.25158264E-18      0.18338538E-13      0.64900573E-26
    0.043960316992         0.31126296E-08      0.67244565E-06      0.92489898E-18      0.18541564E-13      0.25502542E-25
    0.047100339634         0.35534072E-08      0.63297921E-06      0.47381059E-18      0.18596573E-13      0.13920289E-25
    0.050240362276         0.40268513E-08      0.60136561E-06      0.30678847E-18      0.18770419E-13      0.95757853E-26
    0.053380384919         0.45334185E-08      0.56944143E-06      0.65466149E-18      0.18832836E-13      0.21651274E-25
    0.056520407561         0.50735959E-08      0.54319195E-06      0.41104608E-18      0.18988317E-13      0.14368904E-25
    0.059660430203         0.56479014E-08      0.51682880E-06     -0.20432603E-19      0.19053290E-13     -0.75326356E-27
    0.062800452845         0.62568834E-08      0.49475403E-06     -0.39848408E-19      0.19195842E-13     -0.15460688E-26
    0.065940475488         0.69011217E-08      0.47264414E-06     -0.32329688E-18      0.19263022E-13     -0.13176245E-25
    0.069080498130         0.75812269E-08      0.45389236E-06     -0.58298753E-18      0.19398112E-13     -0.24915284E-25
    0.072220520772         0.82978416E-08      0.43514481E-06     -0.12198810E-17      0.19469772E-13     -0.54581385E-25
    0.075360543414         0.90516395E-08      0.41902060E-06      0.33009654E-19      0.19599326E-13      0.15439980E-26
    0.078500566057         0.98433265E-08      0.40304601E-06      0.13140532E-18      0.19680960E-13      0.64165946E-26
    0.081640588699         0.10673641E-07      0.38883873E-06     -0.33747126E-18      0.19796960E-13     -0.17181686E-25
    0.084780611341         0.11543353E-07      0.37487498E-06      0.18783571E-18      0.19876706E-13      0.99594675E-26
    0.087920633984         0.12453265E-07      0.36241195E-06      0.43425998E-18      0.19990216E-13      0.23953268E-25
    0.091060656626         0.13404215E-07      0.35019565E-06      0.35785530E-18      0.20074460E-13      0.20513539E-25
    0.094200679268         0.14397070E-07      0.33912510E-06      0.19890774E-18      0.20183783E-13      0.11838436E-25
    0.097340701910         0.15432734E-07      0.32833064E-06      0.62003671E-19      0.20271336E-13      0.38281448E-26
    0.100480724553         0.16512144E-07      0.31843674E-06     -0.27025086E-18      0.20378228E-13     -0.17294592E-25
    0.103620747195         0.17636269E-07      0.30885026E-06      0.82287066E-19      0.20470597E-13      0.54539871E-26
    0.106760769837         0.18806114E-07      0.29994035E-06      0.40882385E-18      0.20575235E-13      0.28044400E-25
    0.109900792479         0.20022721E-07      0.29138214E-06      0.15541221E-18      0.20673201E-13      0.11026303E-25
    0.113040815122         0.21287162E-07      0.28329201E-06      0.53823176E-19      0.20774919E-13      0.39470655E-26
    0.116180837764         0.22600547E-07      0.27560473E-06      0.77767430E-19      0.20878229E-13      0.58912132E-26
    0.119320860406         0.23964023E-07      0.26821417E-06      0.24570125E-18      0.20977205E-13      0.19216454E-25
    0.122460883048         0.25378770E-07      0.26128050E-06     -0.25405986E-18      0.21086414E-13     -0.20503678E-25
    0.125600905691         0.26846007E-07      0.25448774E-06     -0.15180487E-18      0.21182457E-13     -0.12635580E-25
    0.128740928333         0.28366986E-07      0.24821575E-06     -0.20621042E-19      0.21298472E-13     -0.17694150E-26
    0.131880950975         0.29943001E-07      0.24193129E-06     -0.19232817E-18      0.21390839E-13     -0.17005080E-25
    0.135020973618         0.31575378E-07      0.23625115E-06      0.48019167E-19      0.21515121E-13      0.43730504E-26
    0.138160996260         0.33265483E-07      0.23039126E-06     -0.19043642E-18      0.21602147E-13     -0.17855867E-25
    0.141301018902         0.35014721E-07      0.22525545E-06     -0.27137186E-18      0.21737181E-13     -0.26187421E-25
    0.144441041544         0.36824533E-07      0.21973190E-06     -0.21110687E-18      0.21815355E-13     -0.20959048E-25
    0.147581064187         0.38696400E-07      0.21512258E-06     -0.35185552E-18      0.21965873E-13     -0.35927487E-25
    0.150721086829         0.40631842E-07      0.20982669E-06      0.89915465E-19      0.22028035E-13      0.94395096E-26
    0.153861109471         0.42632417E-07      0.20577814E-06      0.19452479E-18      0.22204085E-13      0.20989814E-25
    0.157001132113         0.44699723E-07      0.20054158E-06      0.18863151E-18      0.22234585E-13      0.20914083E-25
    0.160141154756         0.46835399E-07      0.19718461E-06      0.17328430E-18      0.22457780E-13      0.19735722E-25
    0.163281177398         0.49041122E-07      0.19174430E-06      0.20759755E-18      0.22426902E-13      0.24281139E-25
    0.166421200040         0.51318613E-07      0.18925259E-06      0.26498787E-18      0.22726400E-13      0.31821071E-25
    0.169561222683         0.53669630E-07      0.18373226E-06      0.48773935E-19      0.22646965E-13      0.60119090E-26
    0.172701245325         0.56095974E-07      0.18105120E-06      0.84548374E-19      0.22901303E-13      0.10694587E-25
    0.175841267967         0.58599489E-07      0.17779873E-06      0.19998654E-18      0.23074071E-13      0.25953524E-25
    0.178981290609         0.61182058E-07      0.17295905E-06     -0.99230824E-20      0.23024079E-13     -0.13209476E-26
    0.182121313252         0.63845608E-07      0.17132115E-06     -0.19938371E-19      0.23388575E-13     -0.27219646E-26
    0.185261335894         0.66592107E-07      0.16686007E-06     -0.24187982E-19      0.23356778E-13     -0.33857910E-26
    0.188401358536         0.69423567E-07      0.16449503E-06      0.20939484E-19      0.23604686E-13      0.30047712E-26
    0.191541381178         0.72342043E-07      0.16100203E-06     -0.45581857E-19      0.23680019E-13     -0.67041344E-26
    0.194681403821         0.75349631E-07      0.15824858E-06     -0.94921094E-19      0.23851684E-13     -0.14306781E-25
    0.197821426463         0.78448474E-07      0.15526761E-06     -0.19666517E-21      0.23978090E-13     -0.30371145E-28
    0.200961449105         0.81640757E-07      0.15247134E-06     -0.99777061E-19      0.24121541E-13     -0.15785107E-25
    0.204101471747         0.84928709E-07      0.14978512E-06     -0.13769252E-18      0.24271667E-13     -0.22312142E-25
    0.207241494390         0.88314602E-07      0.14706602E-06      0.74022966E-19      0.24405667E-13      0.12284142E-25
    0.210381517032         0.91800755E-07      0.14458483E-06      0.54015534E-18      0.24568801E-13      0.91786727E-25
    0.213521539674         0.95389531E-07      0.14198139E-06      0.23134458E-19      0.24700912E-13      0.40247683E-26
    0.216661562317         0.99083337E-07      0.13966529E-06      0.21676644E-18      0.24873092E-13      0.38604092E-25
    0.219801584959         0.10288463E-06      0.13718837E-06      0.96029738E-19      0.25006879E-13      0.17504429E-25
    0.222941607601         0.10679590E-06      0.13501322E-06      0.43078519E-19      0.25186178E-13      0.80361260E-26
    0.226081630243         0.11081969E-06      0.13266263E-06      0.15049169E-18      0.25323446E-13      0.28726764E-25
    0.229221652886         0.11495860E-06      0.13061260E-06      0.17244022E-18      0.25509001E-13      0.33678050E-25
    0.232361675528         0.11921526E-06      0.12838490E-06     -0.81009321E-19      0.25650972E-13     -0.16185454E-25
    0.235501698170         0.12359235E-06      0.12644874E-06      0.86628594E-19      0.25842503E-13      0.17704405E-25
    0.238641720812         0.12809259E-06      0.12433855E-06      0.11986556E-18      0.25989983E-13      0.25055011E-25
    0.241781743455         0.13271877E-06      0.12250634E-06      0.21929427E-18      0.26187253E-13      0.46876876E-25
    0.244921766097         0.13747370E-06      0.12050868E-06      0.45938832E-19      0.26341051E-13      0.10041410E-25
    0.248061788739         0.14236024E-06      0.11877280E-06     -0.22045313E-19      0.26544122E-13     -0.49268308E-26
    0.251201811381         0.14738131E-06      0.11688219E-06      0.53057566E-19      0.26704874E-13      0.12122426E-25
    0.254341834024         0.15253987E-06      0.11523546E-06      0.95708574E-19      0.26913754E-13      0.22353163E-25
    0.257481856666         0.15783893E-06      0.11344695E-06      0.11113317E-18      0.27082133E-13      0.26529787E-25
    0.260621879308         0.16328153E-06      0.11188347E-06      0.72876305E-19      0.27296984E-13      0.17780136E-25
    0.263761901951         0.16887077E-06      0.11019274E-06      0.95574725E-19      0.27473752E-13      0.23829121E-25
    0.266901924593         0.17460981E-06      0.10870736E-06      0.93648364E-19      0.27694812E-13      0.23858309E-25
    0.270041947235         0.18050182E-06      0.10710963E-06      0.67251877E-19      0.27880554E-13      0.17505612E-25
    0.273181969877         0.18655005E-06      0.10569691E-06      0.63116797E-19      0.28107884E-13      0.16784593E-25
    0.276321992520         0.19275778E-06      0.10418792E-06      0.52659295E-19      0.28303255E-13      0.14305204E-25
    0.279462015162         0.19912834E-06      0.10284436E-06      0.24048424E-19      0.28537327E-13      0.66729744E-26
    0.282602037804         0.20566511E-06      0.10142054E-06      0.73451224E-19      0.28743114E-13      0.20816462E-25
    0.285742060446         0.21237151E-06      0.10014220E-06      0.34451084E-20      0.28984230E-13      0.99712018E-27
    0.288882083089         0.21925100E-06      0.98799041E-07      0.72504778E-19      0.29200901E-13      0.21429406E-25
    0.292022105731         0.22630710E-06      0.97582074E-07      0.14379278E-19      0.29449304E-13      0.43395238E-26
    0.295162128373         0.23354337E-06      0.96314036E-07      0.59831473E-20      0.29676934E-13      0.18435679E-26
    0.298302151016         0.24096340E-06      0.95152726E-07     -0.92570859E-19      0.29932189E-13     -0.29120011E-25
    0.301442173658         0.24857086E-06      0.93989339E-07      0.95475153E-19      0.30181953E-13      0.30659079E-25
    0.304582196300         0.25636942E-06      0.92906423E-07      0.57297951E-19      0.30452994E-13      0.18781200E-25
    0.307722218942         0.26436283E-06      0.91779140E-07      0.50941358E-19      0.30704927E-13      0.17042551E-25
    0.310862241585         0.27255487E-06      0.90729473E-07      0.53659626E-19      0.30978252E-13      0.18321295E-25
    0.314002264227         0.28094936E-06      0.89682353E-07      0.79995055E-19      0.31248185E-13      0.27872822E-25
    0.317142286869         0.28955016E-06      0.88688308E-07      0.34568114E-20      0.31532512E-13      0.12290453E-26
    0.320282309511         0.29836118E-06      0.87710175E-07      0.70535736E-19      0.31818660E-13      0.25588281E-25
    0.323422332154         0.30738639E-06      0.86767862E-07      0.52283038E-19      0.32114123E-13      0.19350758E-25
    0.326562354796         0.31662976E-06      0.85855542E-07      0.63500937E-19      0.32417274E-13      0.23976638E-25
    0.329702377438         0.32609534E-06      0.84964092E-07     -0.14521170E-19      0.32725062E-13     -0.55930238E-26
    0.332842400080         0.33578719E-06      0.84112888E-07     -0.83410150E-20      0.33045366E-13     -0.32769282E-26
    0.335982422723         0.34570944E-06      0.83275970E-07      0.43920099E-19      0.33368518E-13      0.17598698E-25
    0.339122445365         0.35586624E-06      0.82480950E-07      0.67693388E-19      0.33705940E-13      0.27662985E-25
    0.342262468007         0.36626178E-06      0.81689132E-07      0.47850698E-19      0.34042320E-13      0.19940826E-25
    0.345402490650         0.37690029E-06      0.80968670E-07      0.94322984E-19      0.34406505E-13      0.40081234E-25
    0.348542513292         0.38778604E-06      0.80211011E-07     -0.49669048E-20      0.34753052E-13     -0.21520125E-26
    0.351682535934         0.39892335E-06      0.79554756E-07      0.41752621E-20      0.35142071E-13      0.18443568E-26
    0.354822558576         0.41031655E-06      0.78843552E-07      0.73047630E-20      0.35505574E-13      0.32895500E-26
    0.357962581219         0.42197002E-06      0.78246147E-07      0.36513375E-19      0.35919433E-13      0.16761717E-25
    0.361102603861         0.43388818E-06      0.77580730E-07     -0.79388826E-20      0.36301419E-13     -0.37147460E-26
    0.364242626503         0.44607547E-06      0.77043138E-07      0.34431631E-19      0.36742955E-13      0.16420929E-25
    0.367382649145         0.45853638E-06      0.76422191E-07     -0.35576505E-20      0.37144728E-13     -0.17291831E-26
    0.370522671788         0.47127541E-06      0.75945454E-07     -0.67703170E-20      0.37617014E-13     -0.33534477E-26
    0.373662694430         0.48429711E-06      0.75368521E-07      0.43847067E-19      0.38040365E-13      0.22130704E-25
    0.376802717072         0.49760605E-06      0.74952927E-07      0.19442595E-19      0.38546307E-13      0.99988120E-26
    0.379942739715         0.51120685E-06      0.74418747E-07      0.29960734E-19      0.38992710E-13      0.15698332E-25
    0.383082762357         0.52510413E-06      0.74068020E-07      0.19477826E-20      0.39537218E-13      0.10397187E-26
    0.386222784999         0.53930256E-06      0.73576224E-07      0.11559329E-19      0.40008718E-13      0.62856437E-26
    0.389362807641         0.55380682E-06      0.73290383E-07     -0.65143369E-20      0.40595077E-13     -0.36082498E-26
    0.392502830284         0.56862162E-06      0.72841639E-07     -0.11312168E-19      0.41094417E-13     -0.63818847E-26
    0.395642852926         0.58375171E-06      0.72623565E-07      0.25674066E-20      0.41727748E-13      0.14751699E-26
    0.398782875568         0.59920184E-06      0.72217341E-07      0.57620334E-20      0.42257196E-13      0.33715915E-26
    0.401922898210         0.61497679E-06      0.72070293E-07     -0.62859746E-19      0.42943240E-13     -0.37455116E-25
    0.405062920853         0.63108138E-06      0.71706396E-07      0.33805578E-22      0.43505415E-13      0.20510384E-28
    0.408202943495         0.64752043E-06      0.71633348E-07     -0.15413733E-19      0.44250190E-13     -0.95215511E-26
    0.411342966137         0.66429877E-06      0.71311780E-07     -0.35580874E-19      0.44848012E-13     -0.22376828E-25
    0.414482988779         0.68142128E-06      0.71316012E-07     -0.10291043E-19      0.45658177E-13     -0.65885663E-26
    0.417623011422         0.69889282E-06      0.71036727E-07     -0.11993273E-19      0.46294739E-13     -0.78160338E-26
    0.420763034064         0.71671828E-06      0.71120192E-07     -0.17015547E-19      0.47176571E-13     -0.11287022E-25
    0.423903056706         0.73490258E-06      0.70882315E-07      0.55378097E-19      0.47854597E-13      0.37387274E-25
    0.427043079349         0.75345064E-06      0.71043679E-07      0.17343800E-18      0.48812505E-13      0.11916533E-24
    0.430183101991         0.77236737E-06      0.70846475E-07      0.40628468E-19      0.49534908E-13      0.28406881E-25
    0.433323124633         0.79165771E-06      0.71074964E-07      0.76507040E-21      0.50566719E-13      0.54431402E-27
    0.436463147275         0.81132662E-06      0.70916399E-07      0.57844312E-20      0.51335449E-13      0.41872737E-26
    0.439603169918         0.83137904E-06      0.71176418E-07     -0.22575003E-19      0.52419989E-13     -0.16626032E-25
    0.442743192560         0.85181993E-06      0.71053757E-07     -0.64120851E-20      0.53236009E-13     -0.48041629E-26
    0.445883215202         0.87265424E-06      0.71236955E-07      0.10495298E-19      0.54293642E-13      0.79990496E-26
    0.449023237844         0.89388696E-06      0.71148392E-07     -0.12170132E-19      0.55157099E-13     -0.94347764E-26
    0.452163260487         0.91552302E-06      0.70898055E-07      0.31414745E-20      0.55902452E-13      0.24770232E-26
    0.455303283129         0.93756741E-06      0.70867816E-07      0.47736510E-19      0.56829432E-13      0.38280264E-25
    0.458443305771         0.96002506E-06      0.68706652E-07      0.94954490E-20      0.56029696E-13      0.77434586E-26
    0.461583328413         0.98290095E-06      0.69066238E-07     -0.85426888E-20      0.57272743E-13     -0.70839709E-26
    0.464723351056         0.10062000E-05      0.54958603E-07     -0.34991267E-20      0.46339148E-13     -0.29503398E-26
    0.467863373698         0.10299272E-05      0.65309325E-07     -0.21623267E-19      0.55986745E-13     -0.18536654E-25
    0.471003396340         0.10540874E-05     -0.12949471E-06      0.10101584E-19     -0.11285665E-12      0.88036877E-26
    0.474143418983         0.10786856E-05     -0.10661975E-06      0.14339252E-19     -0.94459435E-13      0.12703816E-25
    0.477283441625         0.11037267E-05      0.77022666E-07     -0.13395441E-19      0.69362744E-13     -0.12063261E-25
    0.480423464267         0.11292155E-05      0.54159125E-07      0.62000572E-20      0.49573184E-13      0.56750654E-26
    0.483563486909         0.11551570E-05      0.77365441E-07      0.22604003E-19      0.71970920E-13      0.21027876E-25
    0.486703509552         0.11815559E-05      0.75770887E-07     -0.14672555E-19      0.71633261E-13     -0.13871330E-25
    0.489843532194         0.12084172E-05      0.83876792E-07      0.78501191E-20      0.80579374E-13      0.75415103E-26
    0.492983554836         0.12357457E-05      0.83602703E-07      0.22226807E-19      0.81609277E-13      0.21696830E-25
    0.496123577478         0.12635461E-05      0.89936737E-07     -0.34519652E-19      0.89199185E-13     -0.34236563E-25
    0.499263600121         0.12918231E-05      0.89791694E-07     -0.97580306E-20      0.90475681E-13     -0.98323623E-26
    0.502403622763         0.13205817E-05      0.96862490E-07     -0.95377447E-20      0.99149532E-13     -0.97629426E-26
    0.505543645405         0.13498263E-05      0.96425615E-07      0.29285049E-20      0.10026150E-12      0.30450031E-26
    0.508683668048         0.13795618E-05      0.10567359E-06     -0.10268903E-19      0.11160467E-12     -0.10845260E-25
