 
 # Omega; pulse ft; proj flux t=    1000.25000000000     
    0.000000000000         0.64285036E-11      0.00000000E+00      0.00000000E+00      0.22705864E-13     -0.13164988E-24      0.71296927E-16     -0.41338361E-27
    0.003140022642         0.21245158E-10      0.37235590E-04     -0.26510865E-15      0.15614501E-13     -0.11117157E-24      0.12032681E-15     -0.76246488E-27
    0.006280045285         0.65709671E-10      0.27947994E-05     -0.11913404E-15      0.18124241E-14     -0.77258284E-25      0.12601787E-15     -0.10050576E-26
    0.009420067927         0.13986570E-09     -0.35259047E-05     -0.21870707E-15     -0.32446691E-14     -0.20126241E-24      0.11582953E-15     -0.16370262E-26
    0.012560090569         0.24378600E-09     -0.31034344E-05     -0.11935872E-15     -0.37333718E-14     -0.14358624E-24      0.10410666E-15     -0.20878902E-26
    0.015700113211         0.37757252E-09     -0.28118639E-05     -0.73700784E-16     -0.41911632E-14     -0.10985312E-24      0.90946313E-16     -0.24328315E-26
    0.018840135854         0.54135636E-09     -0.24141169E-05     -0.54768340E-16     -0.42993241E-14     -0.97537466E-25      0.77446338E-16     -0.27391013E-26
    0.021980158496         0.73529789E-09     -0.21314242E-05     -0.11675474E-15     -0.44192143E-14     -0.24207486E-24      0.63569905E-16     -0.34992219E-26
    0.025120181138         0.95958676E-09     -0.19444415E-05     -0.59837157E-16     -0.46036154E-14     -0.14166909E-24      0.49114448E-16     -0.39440660E-26
    0.028260203780         0.12144420E-08     -0.17975332E-05     -0.58510512E-17     -0.47876357E-14     -0.15583969E-25      0.34081164E-16     -0.39930000E-26
    0.031400226423         0.15001122E-08     -0.16343403E-05     -0.45327242E-16     -0.48392287E-14     -0.13421249E-24      0.18885876E-16     -0.44144303E-26
    0.034540249065         0.18168754E-08     -0.15108975E-05     -0.30141183E-16     -0.49258068E-14     -0.98265858E-25      0.34187314E-17     -0.47229873E-26
    0.037680271707         0.21650394E-08     -0.14347038E-05     -0.17061257E-16     -0.51092447E-14     -0.60758279E-25     -0.12624413E-16     -0.49137697E-26
    0.040820294349         0.25449417E-08     -0.13659681E-05     -0.28113117E-16     -0.52781890E-14     -0.10863090E-24     -0.29198046E-16     -0.52548732E-26
    0.043960316992         0.29569499E-08     -0.12955231E-05     -0.12822335E-16     -0.54009601E-14     -0.53455568E-25     -0.46157183E-16     -0.54227249E-26
    0.047100339634         0.34014614E-08     -0.12340581E-05     -0.22159665E-16     -0.55235692E-14     -0.99185316E-25     -0.63501315E-16     -0.57341690E-26
    0.050240362276         0.38789041E-08     -0.11995624E-05     -0.24013720E-16     -0.57401310E-14     -0.11491015E-24     -0.81525457E-16     -0.60949895E-26
    0.053380384919         0.43897362E-08     -0.11746280E-05     -0.30081428E-16     -0.59868689E-14     -0.15331966E-24     -0.10032436E-15     -0.65764167E-26
    0.056520407561         0.49344463E-08     -0.12358078E-05     -0.43760745E-17     -0.66869298E-14     -0.23678846E-25     -0.12132147E-15     -0.66507688E-26
    0.059660430203         0.55135541E-08     -0.13775610E-05     -0.96711305E-17     -0.78903957E-14     -0.55394312E-25     -0.14609749E-15     -0.68247082E-26
    0.062800452845         0.61276098E-08     -0.73594903E-06     -0.33107855E-16     -0.44506018E-14     -0.20021750E-24     -0.16007248E-15     -0.74533957E-26
    0.065940475488         0.67771950E-08      0.62441297E-07     -0.31806205E-16      0.39775212E-15     -0.20260607E-24     -0.15882353E-15     -0.80895833E-26
    0.069080498130         0.74629227E-08     -0.15857386E-06     -0.28288939E-16     -0.10617634E-14     -0.18941433E-24     -0.16215749E-15     -0.86843486E-26
    0.072220520772         0.81854373E-08     -0.49120518E-06     -0.31911503E-16     -0.34505386E-14     -0.22416676E-24     -0.17299226E-15     -0.93882373E-26
    0.075360543414         0.89454151E-08     -0.51137937E-06     -0.84658360E-17     -0.37622041E-14     -0.62282925E-25     -0.18480567E-15     -0.95838071E-26
    0.078500566057         0.97435644E-08     -0.51416134E-06     -0.13779961E-16     -0.39553705E-14     -0.10600729E-24     -0.19722562E-15     -0.99166724E-26
    0.081640588699         0.10580626E-07     -0.47908597E-06     -0.18734364E-16     -0.38482330E-14     -0.15048280E-24     -0.20930916E-15     -0.10389192E-25
    0.084780611341         0.11457373E-07     -0.43393849E-06     -0.11618781E-16     -0.36346228E-14     -0.97317681E-25     -0.22072196E-15     -0.10694772E-25
    0.087920633984         0.12374611E-07     -0.41769632E-06     -0.96089498E-17     -0.36437121E-14     -0.83822254E-25     -0.23216330E-15     -0.10957975E-25
    0.091060656626         0.13333179E-07     -0.42402151E-06     -0.70820091E-17     -0.38479861E-14     -0.64269081E-25     -0.24424606E-15     -0.11159782E-25
    0.094200679268         0.14333950E-07     -0.42878913E-06     -0.14609779E-16     -0.40438803E-14     -0.13778381E-24     -0.25694394E-15     -0.11592426E-25
    0.097340701910         0.15377830E-07     -0.42909334E-06     -0.86941286E-17     -0.42014096E-14     -0.85127389E-25     -0.27013646E-15     -0.11859728E-25
    0.100480724553         0.16465758E-07     -0.42231109E-06     -0.68106681E-17     -0.42891788E-14     -0.69172166E-25     -0.28360458E-15     -0.12076930E-25
    0.103620747195         0.17598710E-07     -0.41408608E-06     -0.51733964E-17     -0.43588048E-14     -0.54456853E-25     -0.29729132E-15     -0.12247926E-25
    0.106760769837         0.18777693E-07     -0.40529128E-06     -0.59831224E-17     -0.44181501E-14     -0.65223050E-25     -0.31116441E-15     -0.12452728E-25
    0.109900792479         0.20003751E-07     -0.39761667E-06     -0.73237680E-17     -0.44855725E-14     -0.82620510E-25     -0.32524921E-15     -0.12712158E-25
    0.113040815122         0.21277963E-07     -0.39037616E-06     -0.12648157E-17     -0.45542906E-14     -0.14755865E-25     -0.33954979E-15     -0.12758492E-25
    0.116180837764         0.22601444E-07     -0.38454365E-06     -0.53719538E-17     -0.46364972E-14     -0.64770406E-25     -0.35410849E-15     -0.12961872E-25
    0.119320860406         0.23975342E-07     -0.37865395E-06     -0.68114742E-17     -0.47155635E-14     -0.84826632E-25     -0.36891547E-15     -0.13228230E-25
    0.122460883048         0.25400844E-07     -0.37347438E-06     -0.14279401E-16     -0.48012493E-14     -0.18357073E-24     -0.38399150E-15     -0.13804646E-25
    0.125600905691         0.26879174E-07     -0.36792775E-06     -0.79693754E-17     -0.48800960E-14     -0.10570368E-24     -0.39931511E-15     -0.14136558E-25
    0.128740928333         0.28411589E-07     -0.36255956E-06     -0.10930904E-16     -0.49590778E-14     -0.14951254E-24     -0.41488673E-15     -0.14606031E-25
    0.131880950975         0.29999386E-07     -0.35688040E-06     -0.73837062E-17     -0.50314790E-14     -0.10409920E-24     -0.43068569E-15     -0.14932905E-25
    0.135020973618         0.31643900E-07     -0.35121023E-06     -0.11343651E-16     -0.51015084E-14     -0.16477234E-24     -0.44670454E-15     -0.15450293E-25
    0.138160996260         0.33346502E-07     -0.34542055E-06     -0.11020600E-16     -0.51672047E-14     -0.16485903E-24     -0.46292968E-15     -0.15967955E-25
    0.141301018902         0.35108601E-07     -0.33966928E-06     -0.12743000E-16     -0.52307886E-14     -0.19623777E-24     -0.47935447E-15     -0.16584146E-25
    0.144441041544         0.36931646E-07     -0.33407351E-06     -0.14181994E-16     -0.52941077E-14     -0.22474396E-24     -0.49597809E-15     -0.17289847E-25
    0.147581064187         0.38817124E-07     -0.32860812E-06     -0.10252901E-16     -0.53569018E-14     -0.16714067E-24     -0.51279889E-15     -0.17814672E-25
    0.150721086829         0.40766561E-07     -0.32311953E-06     -0.38032479E-17     -0.54167145E-14     -0.63756927E-25     -0.52980749E-15     -0.18014870E-25
    0.153861109471         0.42781523E-07     -0.31795533E-06     -0.81687112E-17     -0.54794400E-14     -0.14077437E-24     -0.54701306E-15     -0.18456905E-25
    0.157001132113         0.44863615E-07     -0.31278176E-06     -0.72041137E-18     -0.55395639E-14     -0.12758943E-25     -0.56440741E-15     -0.18496968E-25
    0.160141154756         0.47014483E-07     -0.30782788E-06     -0.38550653E-17     -0.56011775E-14     -0.70146034E-25     -0.58199524E-15     -0.18717229E-25
    0.163281177398         0.49235812E-07     -0.30301521E-06     -0.61071400E-17     -0.56630720E-14     -0.11413676E-24     -0.59977741E-15     -0.19075621E-25
    0.166421200040         0.51529331E-07     -0.29849004E-06     -0.27020059E-17     -0.57282027E-14     -0.51853112E-25     -0.61776410E-15     -0.19238441E-25
    0.169561222683         0.53896806E-07     -0.29411220E-06     -0.26133546E-17     -0.57941830E-14     -0.51484619E-25     -0.63595796E-15     -0.19400103E-25
    0.172701245325         0.56340048E-07     -0.28997260E-06     -0.54492493E-17     -0.58630201E-14     -0.11017958E-24     -0.65436798E-15     -0.19746070E-25
    0.175841267967         0.58860908E-07     -0.28573446E-06     -0.50607863E-17     -0.59280444E-14     -0.10499457E-24     -0.67298217E-15     -0.20075755E-25
    0.178981290609         0.61461278E-07     -0.28171139E-06     -0.33239490E-17     -0.59957157E-14     -0.70744223E-25     -0.69180886E-15     -0.20297894E-25
    0.182121313252         0.64143096E-07     -0.27714348E-06     -0.41903231E-17     -0.60497368E-14     -0.91470137E-25     -0.71080517E-15     -0.20585112E-25
    0.185261335894         0.66908339E-07     -0.27306296E-06     -0.41427086E-17     -0.61122475E-14     -0.92730482E-25     -0.72999776E-15     -0.20876288E-25
    0.188401358536         0.69759030E-07     -0.26779811E-06     -0.22058205E-17     -0.61456326E-14     -0.50620827E-25     -0.74929519E-15     -0.21035238E-25
    0.191541381178         0.72697233E-07     -0.26329001E-06     -0.37324520E-17     -0.61934455E-14     -0.87799525E-25     -0.76874275E-15     -0.21310931E-25
    0.194681403821         0.75725056E-07     -0.25769025E-06     -0.27411112E-17     -0.62123484E-14     -0.66082196E-25     -0.78824966E-15     -0.21518430E-25
    0.197821426463         0.78844653E-07     -0.24990268E-06     -0.65476359E-17     -0.61732306E-14     -0.16174323E-24     -0.80763375E-15     -0.22026308E-25
    0.200961449105         0.82058219E-07     -0.24560996E-06     -0.95757967E-17     -0.62158135E-14     -0.24234102E-24     -0.82715154E-15     -0.22787264E-25
    0.204101471747         0.85367996E-07     -0.23841033E-06     -0.80318165E-17     -0.61804016E-14     -0.20821183E-24     -0.84655814E-15     -0.23441054E-25
    0.207241494390         0.88776268E-07     -0.23147639E-06     -0.26834703E-17     -0.61456745E-14     -0.71245862E-25     -0.86585570E-15     -0.23664767E-25
    0.210381517032         0.92285368E-07     -0.22605258E-06      0.50779422E-17     -0.61457856E-14      0.13805613E-24     -0.88515360E-15     -0.23231268E-25
    0.213521539674         0.95897669E-07     -0.21978892E-06      0.40254993E-18     -0.61180755E-14      0.11205437E-25     -0.90436450E-15     -0.23196083E-25
    0.216661562317         0.99615594E-07     -0.21406387E-06     -0.24818309E-19     -0.61000233E-14     -0.70722942E-27     -0.92351871E-15     -0.23198303E-25
    0.219801584959         0.10344161E-06     -0.20816300E-06     -0.68430190E-18     -0.60717048E-14     -0.19959739E-25     -0.94258400E-15     -0.23260978E-25
    0.222941607601         0.10737822E-06     -0.20223968E-06      0.49443861E-18     -0.60371800E-14      0.14759789E-25     -0.96154088E-15     -0.23214631E-25
    0.226081630243         0.11142800E-06     -0.19659950E-06      0.11146377E-17     -0.60055686E-14      0.34049085E-25     -0.98039851E-15     -0.23107717E-25
    0.229221652886         0.11559354E-06     -0.19131711E-06      0.29130757E-18     -0.59796315E-14      0.91048411E-26     -0.99917468E-15     -0.23079127E-25
    0.232361675528         0.11987749E-06     -0.18641446E-06      0.26887440E-18     -0.59606749E-14      0.85973635E-26     -0.10178913E-14     -0.23052131E-25
    0.235501698170         0.12428256E-06     -0.18216258E-06     -0.17283852E-17     -0.59582399E-14     -0.56532653E-25     -0.10366003E-14     -0.23229645E-25
    0.238641720812         0.12881148E-06     -0.17810098E-06     -0.20515768E-17     -0.59582290E-14     -0.68633897E-25     -0.10553093E-14     -0.23445157E-25
    0.241781743455         0.13346705E-06     -0.17454875E-06     -0.97803752E-18     -0.59718647E-14     -0.33461757E-25     -0.10740611E-14     -0.23550228E-25
    0.244921766097         0.13825210E-06     -0.17104559E-06     -0.13530256E-17     -0.59841007E-14     -0.47336159E-25     -0.10928513E-14     -0.23698864E-25
    0.248061788739         0.14316951E-06     -0.16791933E-06     -0.18211854E-17     -0.60066738E-14     -0.65145961E-25     -0.11117124E-14     -0.23903424E-25
    0.251201811381         0.14822222E-06     -0.16482688E-06      0.18011110E-18     -0.60278335E-14      0.65867880E-26     -0.11306399E-14     -0.23882741E-25
    0.254341834024         0.15341320E-06     -0.16206728E-06     -0.26257448E-17     -0.60587490E-14     -0.98161258E-25     -0.11496646E-14     -0.24190970E-25
    0.257481856666         0.15874548E-06     -0.15936498E-06     -0.18853929E-17     -0.60896218E-14     -0.72044242E-25     -0.11687861E-14     -0.24417191E-25
    0.260621879308         0.16422213E-06     -0.15693054E-06     -0.10555839E-17     -0.61287367E-14     -0.41224582E-25     -0.11880305E-14     -0.24546637E-25
    0.263761901951         0.16984627E-06     -0.15451908E-06      0.10645048E-17     -0.61669260E-14      0.42484864E-25     -0.12073948E-14     -0.24413233E-25
    0.266901924593         0.17562106E-06     -0.15232974E-06      0.59366457E-18     -0.62122975E-14      0.24210774E-25     -0.12269015E-14     -0.24337211E-25
    0.270041947235         0.18154971E-06     -0.15022801E-06     -0.22671741E-17     -0.62597633E-14     -0.94469554E-25     -0.12465573E-14     -0.24633847E-25
    0.273181969877         0.18763548E-06     -0.14823370E-06     -0.94531568E-18     -0.63103370E-14     -0.40242270E-25     -0.12663719E-14     -0.24760209E-25
    0.276321992520         0.19388169E-06     -0.14626766E-06     -0.37114172E-17     -0.63608088E-14     -0.16140010E-24     -0.12863450E-14     -0.25267009E-25
    0.279462015162         0.20029168E-06     -0.14439059E-06     -0.12062654E-17     -0.64138925E-14     -0.53582829E-25     -0.13064848E-14     -0.25435260E-25
    0.282602037804         0.20686884E-06     -0.14255673E-06     -0.20178961E-18     -0.64677050E-14     -0.91550616E-26     -0.13267935E-14     -0.25464007E-25
    0.285742060446         0.21361663E-06     -0.14077940E-06     -0.36045164E-18     -0.65229296E-14     -0.16701311E-25     -0.13472757E-14     -0.25516450E-25
    0.288882083089         0.22053854E-06     -0.13905269E-06     -0.50365493E-18     -0.65793950E-14     -0.23830857E-25     -0.13679351E-14     -0.25591279E-25
    0.292022105731         0.22763810E-06     -0.13736450E-06     -0.15026308E-17     -0.66366116E-14     -0.72597922E-25     -0.13887742E-14     -0.25819238E-25
    0.295162128373         0.23491890E-06     -0.13573445E-06     -0.39474886E-17     -0.66956092E-14     -0.19472463E-24     -0.14097986E-14     -0.26430678E-25
    0.298302151016         0.24238456E-06     -0.13413017E-06     -0.38297887E-17     -0.67548813E-14     -0.19287061E-24     -0.14310091E-14     -0.27036296E-25
    0.301442173658         0.25003877E-06     -0.13251305E-06      0.33179952E-18     -0.68124707E-14      0.17057751E-25     -0.14524004E-14     -0.26982735E-25
    0.304582196300         0.25788523E-06     -0.13091727E-06      0.92603760E-18     -0.68700762E-14      0.48595186E-25     -0.14739726E-14     -0.26830145E-25
    0.307722218942         0.26592771E-06     -0.12943156E-06     -0.56647131E-18     -0.69324638E-14     -0.30340682E-25     -0.14957407E-14     -0.26925415E-25
    0.310862241585         0.27417002E-06     -0.12796016E-06     -0.14125133E-17     -0.69947055E-14     -0.77212428E-25     -0.15177042E-14     -0.27167864E-25
    0.314002264227         0.28261602E-06     -0.12648446E-06     -0.90564017E-18     -0.70557605E-14     -0.50519884E-25     -0.15398594E-14     -0.27326497E-25
    0.317142286869         0.29126959E-06     -0.12507754E-06     -0.75370642E-18     -0.71197211E-14     -0.42902824E-25     -0.15622155E-14     -0.27461213E-25
    0.320282309511         0.30013468E-06     -0.12365589E-06     -0.50728958E-18     -0.71819221E-14     -0.29463331E-25     -0.15847669E-14     -0.27553729E-25
    0.323422332154         0.30921526E-06     -0.12226692E-06      0.11895285E-17     -0.72450699E-14      0.70486906E-25     -0.16075166E-14     -0.27332398E-25
    0.326562354796         0.31851537E-06     -0.12091282E-06      0.10543127E-18     -0.73093590E-14      0.63734767E-26     -0.16304682E-14     -0.27312385E-25
    0.329702377438         0.32803906E-06     -0.11956598E-06     -0.15269759E-17     -0.73731623E-14     -0.94162581E-25     -0.16536201E-14     -0.27608058E-25
    0.332842400080         0.33779045E-06     -0.11825655E-06     -0.59625298E-18     -0.74383497E-14     -0.37504377E-25     -0.16769766E-14     -0.27725823E-25
    0.335982422723         0.34777368E-06     -0.11696034E-06     -0.12878635E-17     -0.75034579E-14     -0.82621421E-25     -0.17005377E-14     -0.27985256E-25
    0.339122445365         0.35799293E-06     -0.11569718E-06      0.16082814E-17     -0.75697821E-14      0.10522589E-24     -0.17243070E-14     -0.27654844E-25
    0.342262468007         0.36845245E-06     -0.11445208E-06      0.11437038E-17     -0.76363973E-14      0.76309464E-25     -0.17482854E-14     -0.27415231E-25
    0.345402490650         0.37915648E-06     -0.11323912E-06      0.17823749E-18     -0.77042823E-14      0.12126480E-25     -0.17724770E-14     -0.27377153E-25
    0.348542513292         0.39010935E-06     -0.11204819E-06     -0.10317307E-17     -0.77728109E-14     -0.71571416E-25     -0.17968838E-14     -0.27601889E-25
    0.351682535934         0.40131538E-06     -0.11088939E-06     -0.69804418E-18     -0.78427375E-14     -0.49369711E-25     -0.18215102E-14     -0.27756911E-25
    0.354822558576         0.41277896E-06     -0.10975746E-06     -0.10623691E-17     -0.79137634E-14     -0.76599236E-25     -0.18463596E-14     -0.27997434E-25
    0.357962581219         0.42450450E-06     -0.10865816E-06     -0.30881815E-18     -0.79863746E-14     -0.22698135E-25     -0.18714370E-14     -0.28068707E-25
    0.361102603861         0.43649646E-06     -0.10759107E-06     -0.10123806E-17     -0.80606305E-14     -0.75846683E-25     -0.18967476E-14     -0.28306867E-25
    0.364242626503         0.44875932E-06     -0.10655923E-06      0.45527954E-19     -0.81368527E-14      0.34765103E-26     -0.19222975E-14     -0.28295951E-25
    0.367382649145         0.46129760E-06     -0.10556325E-06     -0.98645596E-18     -0.82151969E-14     -0.76768479E-25     -0.19480934E-14     -0.28537006E-25
    0.370522671788         0.47411586E-06     -0.10460884E-06     -0.13505865E-17     -0.82962294E-14     -0.10711117E-24     -0.19741437E-14     -0.28873337E-25
    0.373662694430         0.48721866E-06     -0.10369215E-06     -0.87201222E-18     -0.83797820E-14     -0.70470835E-25     -0.20004564E-14     -0.29094617E-25
    0.376802717072         0.50061064E-06     -0.10282860E-06     -0.72888007E-18     -0.84672549E-14     -0.60018454E-25     -0.20270438E-14     -0.29283077E-25
    0.379942739715         0.51429644E-06     -0.10200127E-06     -0.64750529E-18     -0.85574348E-14     -0.54322702E-25     -0.20539143E-14     -0.29453651E-25
    0.383082762357         0.52828072E-06     -0.10124209E-06     -0.59582493E-18     -0.86531836E-14     -0.50925289E-25     -0.20810855E-14     -0.29613558E-25
