 
 # Omega; pulse ft; proj flux t=    1000.25000000000     
    0.000000000000         0.64285036E-11      0.00000000E+00      0.00000000E+00     -0.68000424E-15     -0.30855441E-26     -0.21352287E-17     -0.96886785E-29
    0.003140022642         0.21245158E-10     -0.63978179E-06     -0.10519133E-16     -0.26828831E-15     -0.44111296E-26     -0.29776601E-17     -0.23539725E-28
    0.006280045285         0.65709671E-10      0.71867582E-06     -0.10096635E-16      0.46606042E-15     -0.65476560E-26     -0.15142198E-17     -0.44099513E-28
    0.009420067927         0.13986570E-09      0.73683153E-06     -0.29765452E-17      0.67805988E-15     -0.27391280E-26      0.61490360E-18     -0.52700437E-28
    0.012560090569         0.24378600E-09      0.60927566E-06     -0.36511878E-17      0.73294688E-15     -0.43923086E-26      0.29163734E-17     -0.66492386E-28
    0.015700113211         0.37757252E-09      0.52888892E-06     -0.39407598E-17      0.78832399E-15     -0.58738146E-26      0.53917286E-17     -0.84936297E-28
    0.018840135854         0.54135636E-09      0.46134913E-06     -0.19390911E-17      0.82162111E-15     -0.34533461E-26      0.79716375E-17     -0.95779882E-28
    0.021980158496         0.73529789E-09      0.41256218E-06     -0.29526891E-17      0.85539083E-15     -0.61219939E-26      0.10657584E-16     -0.11500308E-27
    0.025120181138         0.95958676E-09      0.37460514E-06     -0.28452971E-17      0.88690660E-15     -0.67364606E-26      0.13442491E-16     -0.13615572E-27
    0.028260203780         0.12144420E-08      0.34493166E-06     -0.76346141E-18      0.91870745E-15     -0.20334395E-26      0.16327253E-16     -0.14254077E-27
    0.031400226423         0.15001122E-08      0.31573186E-06     -0.10481768E-17      0.93487178E-15     -0.31036176E-26      0.19262772E-16     -0.15228620E-27
    0.034540249065         0.18168754E-08      0.29187934E-06     -0.17907217E-17      0.95158089E-15     -0.58380855E-26      0.22250757E-16     -0.17061792E-27
    0.037680271707         0.21650394E-08      0.27060970E-06     -0.83044073E-18      0.96369101E-15     -0.29573525E-26      0.25276769E-16     -0.17990407E-27
    0.040820294349         0.25449417E-08      0.25265190E-06     -0.11864284E-17      0.97626329E-15     -0.45844361E-26      0.28342258E-16     -0.19429930E-27
    0.043960316992         0.29569499E-08      0.23735334E-06     -0.16045814E-17      0.98951223E-15     -0.66894064E-26      0.31449348E-16     -0.21530419E-27
    0.047100339634         0.34014614E-08      0.22413172E-06     -0.47503586E-18      0.10031999E-14     -0.21262316E-26      0.34599419E-16     -0.22198061E-27
    0.050240362276         0.38789041E-08      0.21259528E-06     -0.89163789E-18      0.10173083E-14     -0.42666545E-26      0.37793790E-16     -0.23537800E-27
    0.053380384919         0.43897362E-08      0.20245470E-06     -0.10189500E-17      0.10318754E-14     -0.51934061E-26      0.41033902E-16     -0.25168541E-27
    0.056520407561         0.49344463E-08      0.19342665E-06     -0.35883707E-18      0.10466274E-14     -0.19416597E-26      0.44320336E-16     -0.25778227E-27
    0.059660430203         0.55135541E-08      0.18537803E-06     -0.71861218E-18      0.10618085E-14     -0.41160677E-26      0.47654439E-16     -0.27070681E-27
    0.062800452845         0.61276098E-08      0.17821595E-06     -0.70429308E-18      0.10777489E-14     -0.42591646E-26      0.51038594E-16     -0.28408069E-27
    0.065940475488         0.67771950E-08      0.17176179E-06     -0.12456332E-17      0.10941255E-14     -0.79347048E-26      0.54474173E-16     -0.30899584E-27
    0.069080498130         0.74629227E-08      0.16698928E-06     -0.99990873E-18      0.11181106E-14     -0.66950915E-26      0.57985066E-16     -0.33001858E-27
    0.072220520772         0.81854373E-08      0.16255562E-06     -0.13738178E-17      0.11418944E-14     -0.96505726E-26      0.61570640E-16     -0.36032159E-27
    0.075360543414         0.89454151E-08      0.15286419E-06     -0.81467093E-18      0.11246177E-14     -0.59935119E-26      0.65101965E-16     -0.37914136E-27
    0.078500566057         0.97435644E-08      0.14410580E-06     -0.10449287E-17      0.11085855E-14     -0.80384884E-26      0.68582949E-16     -0.40438239E-27
    0.081640588699         0.10580626E-07      0.13936359E-06     -0.14186587E-17      0.11194307E-14     -0.11395301E-25      0.72097986E-16     -0.44016390E-27
    0.084780611341         0.11457373E-07      0.13494740E-06     -0.56647206E-18      0.11303051E-14     -0.47447099E-26      0.75647170E-16     -0.45506239E-27
    0.087920633984         0.12374611E-07      0.12860382E-06     -0.65819020E-18      0.11218564E-14     -0.57416250E-26      0.79169824E-16     -0.47309123E-27
    0.091060656626         0.13333179E-07      0.12278680E-06     -0.10295475E-17      0.11142876E-14     -0.93431214E-26      0.82668713E-16     -0.50242884E-27
    0.094200679268         0.14333950E-07      0.11745822E-06     -0.47310079E-18      0.11077403E-14     -0.44617805E-26      0.86147042E-16     -0.51643893E-27
    0.097340701910         0.15377830E-07      0.11258412E-06     -0.54401956E-18      0.11023523E-14     -0.53266943E-26      0.89608453E-16     -0.53316487E-27
    0.100480724553         0.16465758E-07      0.11016961E-06     -0.56426231E-18      0.11189314E-14     -0.57308982E-26      0.93121923E-16     -0.55116002E-27
    0.103620747195         0.17598710E-07      0.10792504E-06     -0.28156585E-18      0.11360541E-14     -0.29638537E-26      0.96689159E-16     -0.56046659E-27
    0.106760769837         0.18777693E-07      0.10684163E-06     -0.19525417E-18      0.11646990E-14     -0.21284994E-26      0.10034634E-15     -0.56715013E-27
    0.109900792479         0.20003751E-07      0.10582277E-06     -0.39971384E-18      0.11938023E-14     -0.45092310E-26      0.10409491E-15     -0.58130921E-27
    0.113040815122         0.21277963E-07      0.10546830E-06     -0.41406863E-18      0.12304370E-14     -0.48306968E-26      0.10795851E-15     -0.59647771E-27
    0.116180837764         0.22601444E-07      0.10511520E-06     -0.31333132E-18      0.12673889E-14     -0.37778801E-26      0.11193814E-15     -0.60834034E-27
    0.119320860406         0.23975342E-07      0.10477519E-06     -0.51288375E-18      0.13048169E-14     -0.63871931E-26      0.11603529E-15     -0.62839627E-27
    0.122460883048         0.25400844E-07      0.10442858E-06     -0.16393600E-18      0.13424954E-14     -0.21075010E-26      0.12025076E-15     -0.63501387E-27
    0.125600905691         0.26879174E-07      0.10367213E-06     -0.21737489E-18      0.13750795E-14     -0.28832028E-26      0.12456854E-15     -0.64406719E-27
    0.128740928333         0.28411589E-07      0.10294102E-06     -0.27917359E-18      0.14080239E-14     -0.38185272E-26      0.12898976E-15     -0.65605746E-27
    0.131880950975         0.29999386E-07      0.10193096E-06     -0.48119125E-18      0.14370738E-14     -0.67840759E-26      0.13350221E-15     -0.67735961E-27
    0.135020973618         0.31643900E-07      0.10096712E-06     -0.49319753E-18      0.14665992E-14     -0.71639465E-26      0.13810736E-15     -0.69985456E-27
    0.138160996260         0.33346502E-07      0.99929356E-07     -0.51529379E-18      0.14948602E-14     -0.77083675E-26      0.14280126E-15     -0.72405901E-27
    0.141301018902         0.35108601E-07      0.98939186E-07     -0.14657608E-18      0.15236290E-14     -0.22572207E-26      0.14758549E-15     -0.73114673E-27
    0.144441041544         0.36931646E-07      0.97932237E-07     -0.21686044E-18      0.15519453E-14     -0.34366164E-26      0.15245863E-15     -0.74193779E-27
    0.147581064187         0.38817124E-07      0.96968371E-07     -0.42857509E-18      0.15807584E-14     -0.69865428E-26      0.15742225E-15     -0.76387569E-27
    0.150721086829         0.40766561E-07      0.95988633E-07     -0.28902022E-18      0.16091352E-14     -0.48450802E-26      0.16247497E-15     -0.77908935E-27
    0.153861109471         0.42781523E-07      0.95051568E-07     -0.46955092E-18      0.16380583E-14     -0.80919418E-26      0.16761851E-15     -0.80449823E-27
    0.157001132113         0.44863615E-07      0.94099934E-07     -0.38924232E-18      0.16665697E-14     -0.68937291E-26      0.17285158E-15     -0.82614470E-27
    0.160141154756         0.47014483E-07      0.93192280E-07     -0.79637229E-19      0.16957090E-14     -0.14490639E-26      0.17817614E-15     -0.83069479E-27
    0.163281177398         0.49235812E-07      0.92284849E-07     -0.16289456E-18      0.17247179E-14     -0.30443477E-26      0.18359179E-15     -0.84025411E-27
    0.166421200040         0.51529331E-07      0.91420149E-07     -0.27567226E-18      0.17544074E-14     -0.52903158E-26      0.18910067E-15     -0.85686582E-27
    0.169561222683         0.53896806E-07      0.90573400E-07     -0.96018247E-19      0.17843491E-14     -0.18916158E-26      0.19470357E-15     -0.86280554E-27
    0.172701245325         0.56340048E-07      0.89763945E-07     -0.57265497E-19      0.18149570E-14     -0.11578637E-26      0.20040258E-15     -0.86644126E-27
    0.175841267967         0.58860908E-07      0.88991098E-07     -0.16839241E-18      0.18462707E-14     -0.34935853E-26      0.20619991E-15     -0.87741119E-27
    0.178981290609         0.61461278E-07      0.88252426E-07     -0.17758429E-18      0.18782928E-14     -0.37795593E-26      0.21209779E-15     -0.88927910E-27
    0.182121313252         0.64143096E-07      0.87555373E-07     -0.18039753E-18      0.19112373E-14     -0.39378793E-26      0.21809912E-15     -0.90164413E-27
    0.185261335894         0.66908339E-07      0.86894828E-07     -0.25347036E-18      0.19450558E-14     -0.56736862E-26      0.22420664E-15     -0.91945963E-27
    0.188401358536         0.69759030E-07      0.86281120E-07     -0.20599161E-18      0.19800441E-14     -0.47272505E-26      0.23042402E-15     -0.93430330E-27
    0.191541381178         0.72697233E-07      0.85701976E-07     -0.15563870E-18      0.20159919E-14     -0.36611332E-26      0.23675428E-15     -0.94579934E-27
    0.194681403821         0.75725056E-07      0.85174025E-07     -0.30408806E-18      0.20533594E-14     -0.73308981E-26      0.24320188E-15     -0.96881853E-27
    0.197821426463         0.78844653E-07      0.84677407E-07     -0.13612891E-18      0.20917469E-14     -0.33627296E-26      0.24977001E-15     -0.97937758E-27
    0.200961449105         0.82058219E-07      0.84232136E-07     -0.13717516E-18      0.21317183E-14     -0.34715824E-26      0.25646365E-15     -0.99027842E-27
    0.204101471747         0.85367996E-07      0.83816178E-07     -0.21688766E-18      0.21727986E-14     -0.56224613E-26      0.26328629E-15     -0.10079331E-26
    0.207241494390         0.88776268E-07      0.83452191E-07     -0.47067663E-19      0.22156471E-14     -0.12496416E-26      0.27024347E-15     -0.10118570E-26
    0.210381517032         0.92285368E-07      0.83115561E-07     -0.32582201E-19      0.22596974E-14     -0.88582587E-27      0.27733897E-15     -0.10146385E-26
    0.213521539674         0.95897669E-07      0.82832331E-07     -0.49457262E-19      0.23057325E-14     -0.13766993E-26      0.28457902E-15     -0.10189614E-26
    0.216661562317         0.99615594E-07      0.82575267E-07     -0.15406583E-18      0.23530877E-14     -0.43903027E-26      0.29196777E-15     -0.10327470E-26
    0.219801584959         0.10344161E-06      0.82371537E-07     -0.12803785E-18      0.24026156E-14     -0.37346120E-26      0.29951204E-15     -0.10444738E-26
    0.222941607601         0.10737822E-06      0.82192858E-07     -0.16750286E-18      0.24535892E-14     -0.50002300E-26      0.30721637E-15     -0.10601746E-26
    0.226081630243         0.11142800E-06      0.82067445E-07     -0.15693877E-18      0.25069325E-14     -0.47940437E-26      0.31508819E-15     -0.10752280E-26
    0.229221652886         0.11559354E-06      0.81966401E-07     -0.16215555E-18      0.25618663E-14     -0.50681845E-26      0.32313251E-15     -0.10911422E-26
    0.232361675528         0.11987749E-06      0.81916976E-07     -0.15380462E-18      0.26193272E-14     -0.49179626E-26      0.33135726E-15     -0.11065847E-26
    0.235501698170         0.12428256E-06      0.81892823E-07     -0.82629507E-19      0.26785803E-14     -0.27026760E-26      0.33976806E-15     -0.11150712E-26
    0.238641720812         0.12881148E-06      0.81919255E-07     -0.11022148E-18      0.27405446E-14     -0.36873734E-26      0.34837343E-15     -0.11266496E-26
    0.241781743455         0.13346705E-06      0.81971132E-07     -0.10837094E-18      0.28044917E-14     -0.37077127E-26      0.35717960E-15     -0.11382920E-26
    0.244921766097         0.13825210E-06      0.82072232E-07     -0.26009964E-18      0.28713310E-14     -0.90996935E-26      0.36619564E-15     -0.11668652E-26
    0.248061788739         0.14316951E-06      0.82199773E-07     -0.22316962E-18      0.29403834E-14     -0.79830419E-26      0.37542851E-15     -0.11919321E-26
    0.251201811381         0.14822222E-06      0.82376319E-07     -0.27149869E-18      0.30125593E-14     -0.99288959E-26      0.38488802E-15     -0.12231091E-26
    0.254341834024         0.15341320E-06      0.82580092E-07     -0.12975698E-18      0.30871873E-14     -0.48508556E-26      0.39458186E-15     -0.12383409E-26
    0.257481856666         0.15874548E-06      0.82832844E-07     -0.14833459E-18      0.31651915E-14     -0.56681305E-26      0.40452063E-15     -0.12561389E-26
    0.260621879308         0.16422213E-06      0.83115065E-07     -0.20200823E-18      0.32459605E-14     -0.78891925E-26      0.41471302E-15     -0.12809112E-26
    0.263761901951         0.16984627E-06      0.83446617E-07      0.60681306E-19      0.33303920E-14      0.24218182E-26      0.42517052E-15     -0.12733066E-26
    0.266901924593         0.17562106E-06      0.83808683E-07      0.38790338E-19      0.34178781E-14      0.15819440E-26      0.43590274E-15     -0.12683393E-26
    0.270041947235         0.18154971E-06      0.84222100E-07     -0.74935801E-20      0.35094016E-14     -0.31224562E-27      0.44692234E-15     -0.12693197E-26
    0.273181969877         0.18763548E-06      0.84669174E-07     -0.90626730E-19      0.36043830E-14     -0.38579974E-26      0.45824018E-15     -0.12814339E-26
    0.276321992520         0.19388169E-06      0.85169250E-07     -0.10270300E-18      0.37037942E-14     -0.44662925E-26      0.46987018E-15     -0.12954582E-26
    0.279462015162         0.20029168E-06      0.85703348E-07     -0.11603614E-18      0.38069798E-14     -0.51543754E-26      0.48182418E-15     -0.13116431E-26
    0.282602037804         0.20686884E-06      0.86209937E-07     -0.23344074E-18      0.39112880E-14     -0.10591052E-25      0.49410572E-15     -0.13448992E-26
    0.285742060446         0.21361663E-06      0.86771476E-07     -0.19174735E-18      0.40205045E-14     -0.88844989E-26      0.50673019E-15     -0.13727967E-26
    0.288882083089         0.22053854E-06      0.87470511E-07     -0.24008321E-18      0.41387408E-14     -0.11359739E-25      0.51972593E-15     -0.14084666E-26
    0.292022105731         0.22763810E-06      0.88201887E-07     -0.56822195E-19      0.42613752E-14     -0.27453006E-26      0.53310675E-15     -0.14170869E-26
    0.295162128373         0.23491890E-06      0.89007178E-07     -0.10023475E-18      0.43906117E-14     -0.49444539E-26      0.54689337E-15     -0.14326126E-26
    0.298302151016         0.24238456E-06      0.89857270E-07     -0.15626627E-18      0.45252697E-14     -0.78696693E-26      0.56110282E-15     -0.14573235E-26
    0.301442173658         0.25003877E-06      0.90764202E-07     -0.80400873E-19      0.46661705E-14     -0.41333937E-26      0.57575470E-15     -0.14703025E-26
    0.304582196300         0.25788523E-06      0.91723246E-07     -0.88444360E-19      0.48133123E-14     -0.46412480E-26      0.59086861E-15     -0.14848761E-26
    0.307722218942         0.26592771E-06      0.92772710E-07     -0.10905850E-18      0.49689847E-14     -0.58412655E-26      0.60647133E-15     -0.15032178E-26
    0.310862241585         0.27417002E-06      0.93876495E-07     -0.32148511E-19      0.51315851E-14     -0.17573389E-26      0.62258462E-15     -0.15087359E-26
    0.314002264227         0.28261602E-06      0.95045408E-07     -0.20159347E-19      0.53019766E-14     -0.11245613E-26      0.63923295E-15     -0.15122670E-26
    0.317142286869         0.29126959E-06      0.96275939E-07     -0.73662144E-19      0.54802634E-14     -0.41930305E-26      0.65644110E-15     -0.15254332E-26
    0.320282309511         0.30013468E-06      0.97588807E-07     -0.74007832E-19      0.56679487E-14     -0.42983679E-26      0.67423859E-15     -0.15389302E-26
    0.323422332154         0.30921526E-06      0.98971196E-07     -0.84880662E-19      0.58646542E-14     -0.50297031E-26      0.69265374E-15     -0.15547236E-26
    0.326562354796         0.31851537E-06      0.10046963E-06     -0.13865321E-18      0.60735382E-14     -0.83817923E-26      0.71172478E-15     -0.15810426E-26
    0.329702377438         0.32803906E-06      0.10204257E-06     -0.29275417E-19      0.62925629E-14     -0.18052994E-26      0.73148357E-15     -0.15867113E-26
    0.332842400080         0.33779045E-06      0.10374414E-06     -0.29140183E-19      0.65255179E-14     -0.18329207E-26      0.75197385E-15     -0.15924667E-26
    0.335982422723         0.34777368E-06      0.10553315E-06     -0.76823258E-19      0.67703593E-14     -0.49285089E-26      0.77323293E-15     -0.16079423E-26
    0.339122445365         0.35799293E-06      0.10745959E-06     -0.11308276E-18      0.70308166E-14     -0.73987271E-26      0.79530985E-15     -0.16311745E-26
    0.342262468007         0.36845245E-06      0.10949000E-06     -0.97213580E-19      0.73053207E-14     -0.64862216E-26      0.81824872E-15     -0.16515414E-26
    0.345402490650         0.37915648E-06      0.11169576E-06     -0.14259589E-18      0.75992788E-14     -0.97015856E-26      0.84211063E-15     -0.16820046E-26
    0.348542513292         0.39010935E-06      0.11399626E-06     -0.11150969E-18      0.79079490E-14     -0.77354551E-26      0.86694177E-15     -0.17062941E-26
    0.351682535934         0.40131538E-06      0.11651648E-06     -0.88031276E-19      0.82407175E-14     -0.62260797E-26      0.89281781E-15     -0.17258441E-26
    0.354822558576         0.41277896E-06      0.11914585E-06     -0.14417548E-18      0.85906879E-14     -0.10395381E-25      0.91979277E-15     -0.17584858E-26
    0.357962581219         0.42450450E-06      0.12203619E-06     -0.66707782E-19      0.89696603E-14     -0.49030220E-26      0.94795770E-15     -0.17738814E-26
    0.361102603861         0.43649646E-06      0.12505077E-06     -0.84458056E-19      0.93686964E-14     -0.63275250E-26      0.97737562E-15     -0.17937500E-26
    0.364242626503         0.44875932E-06      0.12838412E-06     -0.93278868E-19      0.98033995E-14     -0.71227657E-26      0.10081585E-14     -0.18161157E-26
    0.367382649145         0.46129760E-06      0.13185490E-06     -0.35989513E-19      0.10261279E-13     -0.28007942E-26      0.10403792E-14     -0.18249102E-26
    0.370522671788         0.47411586E-06      0.13572398E-06     -0.28711092E-19      0.10763882E-13     -0.22769950E-26      0.10741780E-14     -0.18320600E-26
    0.373662694430         0.48721866E-06      0.13974123E-06     -0.49944501E-19      0.11293054E-13     -0.40362172E-26      0.11096384E-14     -0.18447338E-26
    0.376802717072         0.50061064E-06      0.14426000E-06     -0.50886209E-19      0.11878857E-13     -0.41901428E-26      0.11469383E-14     -0.18578910E-26
    0.379942739715         0.51429644E-06      0.14894294E-06     -0.50330961E-19      0.12495624E-13     -0.42225350E-26      0.11861749E-14     -0.18711498E-26
    0.383082762357         0.52828072E-06      0.15426670E-06     -0.85692415E-19      0.13185209E-13     -0.73241497E-26      0.12275767E-14     -0.18941478E-26
