 
 # Omega; pulse ft; projected flux at t=    1000.25000000000     
    0.000000000000         0.18717486E-09      0.00000000E+00      0.00000000E+00      0.56985458E-08     -0.14840299E-20
    0.003140022642         0.20186436E-09      0.22793634E+00     -0.87927564E-13      0.57064101E-08     -0.22012758E-20
    0.006280045285         0.24594737E-09      0.37709011E+00     -0.18209718E-12      0.57510495E-08     -0.27771873E-20
    0.009420067927         0.31946741E-09      0.43930065E+00     -0.11464340E-12      0.58017221E-08     -0.15140637E-20
    0.012560090569         0.42249703E-09      0.44660952E+00     -0.18708885E-12      0.58503441E-08     -0.24507631E-20
    0.015700113211         0.55513782E-09      0.42849148E+00     -0.23386980E-12      0.59001462E-08     -0.32202880E-20
    0.018840135854         0.71752051E-09      0.40118333E+00     -0.12910508E-12      0.59499828E-08     -0.19147680E-20
    0.021980158496         0.90980495E-09      0.37226911E+00     -0.14237847E-12      0.60006324E-08     -0.22950086E-20
    0.025120181138         0.11321802E-08      0.34479747E+00     -0.18141080E-12      0.60517282E-08     -0.31840398E-20
    0.028260203780         0.13848647E-08      0.31983214E+00     -0.59693335E-13      0.61034684E-08     -0.11391487E-20
    0.031400226423         0.16681061E-08      0.29757479E+00     -0.10379211E-12      0.61561552E-08     -0.21472261E-20
    0.034540249065         0.19821816E-08      0.27784963E+00     -0.90797325E-13      0.62094101E-08     -0.20291473E-20
    0.037680271707         0.23273981E-08      0.26040156E+00     -0.46307899E-13      0.62635819E-08     -0.11138694E-20
    0.040820294349         0.27040919E-08      0.24492730E+00     -0.82595050E-13      0.63183700E-08     -0.21306979E-20
    0.043960316992         0.31126296E-08      0.23116699E+00     -0.65064458E-13      0.63740429E-08     -0.17940435E-20
    0.047100339634         0.35534072E-08      0.21887330E+00     -0.25593317E-13      0.64303746E-08     -0.75191726E-21
    0.050240362276         0.40268513E-08      0.20785084E+00     -0.69756481E-13      0.64876462E-08     -0.21773084E-20
    0.053380384919         0.45334185E-08      0.19791663E+00     -0.46012262E-13      0.65455920E-08     -0.15217392E-20
    0.056520407561         0.50735959E-08      0.18893393E+00     -0.10909222E-13      0.66045480E-08     -0.38135279E-21
    0.059660430203         0.56479014E-08      0.18076904E+00     -0.38787788E-13      0.66641890E-08     -0.14299415E-20
    0.062800452845         0.62568834E-08      0.17332795E+00     -0.46314538E-13      0.67249092E-08     -0.17969466E-20
    0.065940475488         0.69011217E-08      0.16651149E+00     -0.87002454E-13      0.67863203E-08     -0.35458606E-20
    0.069080498130         0.75812269E-08      0.16025580E+00     -0.99542520E-13      0.68488924E-08     -0.42541736E-20
    0.072220520772         0.82978416E-08      0.15448465E+00     -0.10080506E-12      0.69121379E-08     -0.45103414E-20
    0.075360543414         0.90516395E-08      0.14915649E+00     -0.45915446E-13      0.69766658E-08     -0.21476553E-20
    0.078500566057         0.98433265E-08      0.14421154E+00     -0.71255453E-13      0.70419293E-08     -0.34794432E-20
    0.081640588699         0.10673641E-07      0.13962105E+00     -0.69218902E-13      0.71085314E-08     -0.35241445E-20
    0.084780611341         0.11543353E-07      0.13533802E+00     -0.33653494E-13      0.71759231E-08     -0.17843832E-20
    0.087920633984         0.12453265E-07      0.13134026E+00     -0.72300287E-13      0.72445739E-08     -0.39879986E-20
    0.091060656626         0.13404215E-07      0.12759454E+00     -0.56707005E-13      0.73141729E-08     -0.32506473E-20
    0.094200679268         0.14397070E-07      0.12407839E+00     -0.38806098E-13      0.73848009E-08     -0.23096310E-20
    0.097340701910         0.15432734E-07      0.12077179E+00     -0.45222723E-13      0.74565244E-08     -0.27920787E-20
    0.100480724553         0.16512144E-07      0.11765454E+00     -0.30909928E-13      0.75292536E-08     -0.19780681E-20
    0.103620747195         0.17636269E-07      0.11471202E+00     -0.30114602E-14      0.76031131E-08     -0.19959959E-21
    0.106760769837         0.18806114E-07      0.11193011E+00     -0.10990620E-13      0.76781543E-08     -0.75393187E-21
    0.109900792479         0.20022721E-07      0.10929422E+00     -0.27228402E-13      0.77542892E-08     -0.19318213E-20
    0.113040815122         0.21287162E-07      0.10679679E+00     -0.30405019E-13      0.78318294E-08     -0.22297198E-20
    0.116180837764         0.22600547E-07      0.10442197E+00     -0.27548127E-13      0.79104080E-08     -0.20868876E-20
    0.119320860406         0.23964023E-07      0.10216765E+00     -0.30854477E-13      0.79905982E-08     -0.24131487E-20
    0.122460883048         0.25378770E-07      0.10001712E+00     -0.62253959E-14      0.80717943E-08     -0.50241513E-21
    0.125600905691         0.26846007E-07      0.97971717E-01     -0.26501810E-13      0.81547413E-08     -0.22058958E-20
    0.128740928333         0.28366986E-07      0.96015077E-01     -0.17160955E-13      0.82386972E-08     -0.14725178E-20
    0.131880950975         0.29943001E-07      0.94150439E-01     -0.25851087E-13      0.83244997E-08     -0.22856757E-20
    0.135020973618         0.31575378E-07      0.92362360E-01     -0.32425951E-13      0.84113340E-08     -0.29529941E-20
    0.138160996260         0.33265483E-07      0.90655469E-01     -0.42184067E-13      0.85001175E-08     -0.39552994E-20
    0.141301018902         0.35014721E-07      0.89015003E-01     -0.24742232E-13      0.85899597E-08     -0.23876287E-20
    0.144441041544         0.36824533E-07      0.87446814E-01     -0.19431506E-13      0.86818678E-08     -0.19291929E-20
    0.147581064187         0.38696400E-07      0.85936521E-01     -0.26386523E-13      0.87748609E-08     -0.26942918E-20
    0.150721086829         0.40631842E-07      0.84491085E-01     -0.23107168E-13      0.88700470E-08     -0.24258378E-20
    0.153861109471         0.42632417E-07      0.83096334E-01     -0.22603910E-13      0.89663462E-08     -0.24390303E-20
    0.157001132113         0.44699723E-07      0.81760180E-01     -0.30327931E-13      0.90649712E-08     -0.33625393E-20
    0.160141154756         0.46835399E-07      0.80468556E-01     -0.68837548E-14      0.91647372E-08     -0.78400566E-21
    0.163281177398         0.49041122E-07      0.79230270E-01     -0.13499303E-13      0.92669742E-08     -0.15789129E-20
    0.166421200040         0.51318613E-07      0.78031205E-01     -0.18059356E-13      0.93703780E-08     -0.21686579E-20
    0.169561222683         0.53669630E-07      0.76881041E-01     -0.46226694E-14      0.94764104E-08     -0.56979343E-21
    0.172701245325         0.56095974E-07      0.75765515E-01     -0.97649140E-14      0.95836368E-08     -0.12351713E-20
    0.175841267967         0.58599489E-07      0.74695064E-01     -0.17426188E-13      0.96936530E-08     -0.22615071E-20
    0.178981290609         0.61182058E-07      0.73655367E-01     -0.14071795E-13      0.98049049E-08     -0.18732188E-20
    0.182121313252         0.63845608E-07      0.72657454E-01     -0.18992322E-13      0.99191161E-08     -0.25928111E-20
    0.185261335894         0.66592107E-07      0.71686804E-01     -0.22528578E-13      0.10034592E-07     -0.31535106E-20
    0.188401358536         0.69423567E-07      0.70755299E-01     -0.17432895E-13      0.10153234E-07     -0.25015831E-20
    0.191541381178         0.72342043E-07      0.69847842E-01     -0.78406715E-14      0.10273151E-07     -0.11531982E-20
    0.194681403821         0.75349631E-07      0.68977369E-01     -0.19180004E-13      0.10396468E-07     -0.28908656E-20
    0.197821426463         0.78448474E-07      0.68128047E-01     -0.10630004E-13      0.10521064E-07     -0.16415992E-20
    0.200961449105         0.81640757E-07      0.67313924E-01     -0.60426570E-14      0.10649316E-07     -0.95597109E-21
    0.204101471747         0.84928709E-07      0.66518321E-01     -0.19348109E-13      0.10778844E-07     -0.31352303E-20
    0.207241494390         0.88314602E-07      0.65756465E-01     -0.32558924E-14      0.10912313E-07     -0.54031670E-21
    0.210381517032         0.91800755E-07      0.65010705E-01     -0.55484825E-14      0.11047044E-07     -0.94283444E-21
    0.213521539674         0.95389531E-07      0.64297558E-01     -0.71640923E-14      0.11186032E-07     -0.12463578E-20
    0.216661562317         0.99083337E-07      0.63598237E-01     -0.11234672E-13      0.11326256E-07     -0.20007908E-20
    0.219801584959         0.10288463E-06      0.62930688E-01     -0.10411213E-13      0.11471090E-07     -0.18977699E-20
    0.222941607601         0.10679590E-06      0.62274809E-01     -0.15271074E-13      0.11617118E-07     -0.28487581E-20
    0.226081630243         0.11081969E-06      0.61650133E-01     -0.12779031E-13      0.11768151E-07     -0.24393388E-20
    0.229221652886         0.11495860E-06      0.61035059E-01     -0.10901614E-13      0.11920315E-07     -0.21291152E-20
    0.232361675528         0.11921526E-06      0.60450876E-01     -0.16659667E-13      0.12077929E-07     -0.33285585E-20
    0.235501698170         0.12359235E-06      0.59874273E-01     -0.84379432E-14      0.12236588E-07     -0.17244741E-20
    0.238641720812         0.12809259E-06      0.59328499E-01     -0.43811075E-14      0.12401195E-07     -0.91576511E-21
    0.241781743455         0.13271877E-06      0.58788311E-01     -0.96337774E-14      0.12566732E-07     -0.20593397E-20
    0.244921766097         0.13747370E-06      0.58279139E-01     -0.22131824E-13      0.12738782E-07     -0.48376226E-20
    0.248061788739         0.14236024E-06      0.57773544E-01     -0.20832678E-13      0.12911610E-07     -0.46558232E-20
    0.251201811381         0.14738131E-06      0.57299404E-01     -0.23005953E-13      0.13091587E-07     -0.52563277E-20
    0.254341834024         0.15253987E-06      0.56826797E-01     -0.11197181E-13      0.13272151E-07     -0.26151513E-20
    0.257481856666         0.15783893E-06      0.56386341E-01     -0.10808025E-13      0.13460585E-07     -0.25800991E-20
    0.260621879308         0.16328153E-06      0.55945309E-01     -0.11881808E-13      0.13649364E-07     -0.28988868E-20
    0.263761901951         0.16887077E-06      0.55537388E-01      0.61111244E-14      0.13846832E-07      0.15236531E-20
    0.266901924593         0.17460981E-06      0.55126680E-01      0.69706074E-15      0.14044339E-07      0.17758656E-21
    0.270041947235         0.18050182E-06      0.54750338E-01      0.42604100E-15      0.14251471E-07      0.11089815E-21
    0.273181969877         0.18655005E-06      0.54368866E-01     -0.40855904E-14      0.14458264E-07     -0.10864774E-20
    0.276321992520         0.19275778E-06      0.54023317E-01     -0.80274150E-14      0.14675748E-07     -0.21806940E-20
    0.279462015162         0.19912834E-06      0.53670131E-01     -0.10407254E-13      0.14892427E-07     -0.28878126E-20
    0.282602037804         0.20566511E-06      0.53354761E-01     -0.20964008E-13      0.15121019E-07     -0.59413098E-20
    0.285742060446         0.21237151E-06      0.53029038E-01     -0.19558841E-13      0.15348232E-07     -0.56609294E-20
    0.288882083089         0.21925100E-06      0.52743401E-01     -0.21944448E-13      0.15588763E-07     -0.64858690E-20
    0.292022105731         0.22630710E-06      0.52444435E-01     -0.18025686E-14      0.15827212E-07     -0.54399738E-21
    0.295162128373         0.23354337E-06      0.52188242E-01     -0.93260963E-14      0.16080595E-07     -0.28736200E-20
    0.298302151016         0.24096340E-06      0.51915435E-01     -0.92967325E-14      0.16331036E-07     -0.29244728E-20
    0.301442173658         0.24857086E-06      0.51688558E-01     -0.59548088E-14      0.16598283E-07     -0.19122143E-20
    0.304582196300         0.25636942E-06      0.51441408E-01     -0.86437508E-14      0.16861535E-07     -0.28332604E-20
    0.307722218942         0.26436283E-06      0.51243891E-01     -0.98631372E-14      0.17143764E-07     -0.32997357E-20
    0.310862241585         0.27255487E-06      0.51021994E-01     -0.23659051E-14      0.17420714E-07     -0.80780369E-21
    0.314002264227         0.28094936E-06      0.50854049E-01     -0.42704821E-14      0.17719169E-07     -0.14879718E-20
    0.317142286869         0.28955016E-06      0.50657080E-01     -0.38569792E-14      0.18010773E-07     -0.13713222E-20
    0.320282309511         0.29836118E-06      0.50519105E-01     -0.63567448E-14      0.18326839E-07     -0.23060392E-20
    0.323422332154         0.30738639E-06      0.50346813E-01     -0.90311148E-14      0.18634131E-07     -0.33425548E-20
    0.326562354796         0.31662976E-06      0.50239403E-01     -0.12098011E-13      0.18969358E-07     -0.45679584E-20
    0.329702377438         0.32609534E-06      0.50091611E-01     -0.43650470E-14      0.19293457E-07     -0.16812565E-20
    0.332842400080         0.33578719E-06      0.50015574E-01     -0.58643761E-14      0.19649580E-07     -0.23039330E-20
    0.335982422723         0.34570944E-06      0.49892158E-01     -0.20556263E-14      0.19991690E-07     -0.82368546E-21
    0.339122445365         0.35586624E-06      0.49848541E-01     -0.54212680E-14      0.20370667E-07     -0.22154078E-20
    0.342262468007         0.36626178E-06      0.49749441E-01     -0.12448716E-13      0.20732089E-07     -0.51877544E-20
    0.345402490650         0.37690029E-06      0.49739529E-01     -0.10390937E-13      0.21136118E-07     -0.44154834E-20
    0.348542513292         0.38778604E-06      0.49664713E-01     -0.61277698E-14      0.21518247E-07     -0.26549809E-20
    0.351682535934         0.39892335E-06      0.49690131E-01     -0.89512428E-14      0.21949839E-07     -0.39540717E-20
    0.354822558576         0.41031655E-06      0.49639556E-01     -0.11494718E-13      0.22354154E-07     -0.51764102E-20
    0.357962581219         0.42197002E-06      0.49702264E-01     -0.81427291E-14      0.22816167E-07     -0.37379759E-20
    0.361102603861         0.43388818E-06      0.49675893E-01     -0.92013710E-14      0.23244244E-07     -0.43054871E-20
    0.364242626503         0.44607547E-06      0.49778246E-01     -0.93063759E-14      0.23739945E-07     -0.44383414E-20
    0.367382649145         0.45853638E-06      0.49775986E-01     -0.32804005E-14      0.24193437E-07     -0.15944267E-20
    0.370522671788         0.47127541E-06      0.49920812E-01     -0.22014216E-14      0.24726587E-07     -0.10903998E-20
    0.373662694430         0.48429711E-06      0.49942471E-01     -0.46719268E-14      0.25207205E-07     -0.23580375E-20
    0.376802717072         0.49760605E-06      0.50133152E-01     -0.77618653E-14      0.25782153E-07     -0.39917219E-20
    0.379942739715         0.51120685E-06      0.50178350E-01     -0.63315499E-14      0.26291626E-07     -0.33175012E-20
    0.383082762357         0.52510413E-06      0.50418936E-01     -0.45003732E-14      0.26913430E-07     -0.24022815E-20
    0.386222784999         0.53930256E-06      0.50487020E-01     -0.76087179E-14      0.27453446E-07     -0.41374105E-20
    0.389362807641         0.55380682E-06      0.50782345E-01     -0.80230831E-14      0.28128018E-07     -0.44439347E-20
    0.392502830284         0.56862162E-06      0.50872215E-01     -0.83348551E-14      0.28700124E-07     -0.47022008E-20
    0.395642852926         0.58375171E-06      0.51228067E-01     -0.32635195E-14      0.29434411E-07     -0.18751395E-20
    0.398782875568         0.59920184E-06      0.51337974E-01     -0.35631846E-14      0.30039860E-07     -0.20849589E-20
    0.401922898210         0.61497679E-06      0.51761297E-01     -0.46590736E-14      0.30842081E-07     -0.27761191E-20
    0.405062920853         0.63108138E-06      0.51888451E-01     -0.50028558E-14      0.31481551E-07     -0.30353125E-20
    0.408202943495         0.64752043E-06      0.52387573E-01     -0.51511672E-14      0.32361464E-07     -0.31820392E-20
    0.411342966137         0.66429877E-06      0.52527733E-01     -0.62084016E-14      0.33034716E-07     -0.39044667E-20
    0.414482988779         0.68142128E-06      0.53112529E-01     -0.37703250E-14      0.34003882E-07     -0.24138502E-20
    0.417623011422         0.69889282E-06      0.53259218E-01     -0.63739448E-14      0.34709111E-07     -0.41539092E-20
    0.420763034064         0.71671828E-06      0.53941279E-01     -0.78921233E-14      0.35781182E-07     -0.52351281E-20
    0.423903056706         0.73490258E-06      0.54084728E-01     -0.33910215E-14      0.36514085E-07     -0.22893717E-20
    0.427043079349         0.75345064E-06      0.54877028E-01     -0.22868329E-14      0.37704765E-07     -0.15712312E-20
    0.430183101991         0.77236737E-06      0.55002729E-01     -0.80417557E-14      0.38457173E-07     -0.56226881E-20
    0.433323124633         0.79165771E-06      0.55917915E-01     -0.51036285E-14      0.39783143E-07     -0.36310078E-20
    0.436463147275         0.81132662E-06      0.56005201E-01     -0.57081219E-14      0.40541429E-07     -0.41320344E-20
    0.439603169918         0.83137904E-06      0.57049174E-01     -0.50603318E-14      0.42015560E-07     -0.37268318E-20
    0.442743192560         0.85181993E-06      0.57072630E-01     -0.31246421E-14      0.42760850E-07     -0.23410933E-20
    0.445883215202         0.87265424E-06      0.58220527E-01     -0.34989210E-14      0.44373099E-07     -0.26667221E-20
    0.449023237844         0.89388696E-06      0.58171339E-01     -0.40133998E-14      0.45096765E-07     -0.31113492E-20
    0.452163260487         0.91552302E-06      0.59265445E-01     -0.46300084E-14      0.46730249E-07     -0.36507183E-20
    0.455303283129         0.93756741E-06      0.59307261E-01     -0.77792802E-14      0.47558936E-07     -0.62382629E-20
    0.458443305771         0.96002506E-06      0.59479167E-01     -0.79674769E-14      0.48504759E-07     -0.64974103E-20
    0.461583328413         0.98290095E-06      0.61377048E-01     -0.81833142E-14      0.50896531E-07     -0.67859618E-20
    0.464723351056         0.10062000E-05      0.53282051E-01     -0.68003844E-14      0.44925539E-07     -0.57338434E-20
    0.467863373698         0.10299272E-05      0.89906050E-01     -0.10279112E-13      0.77072410E-07     -0.88118200E-20
    0.471003396340         0.10540874E-05     -0.11798349E+00      0.39608336E-14     -0.10282445E-06      0.34519280E-20
    0.474143418983         0.10786856E-05     -0.21238312E-01     -0.36938344E-15     -0.18816017E-07     -0.32725412E-21
    0.477283441625         0.11037267E-05      0.16349389E+00     -0.21243800E-15      0.14723438E-06     -0.19131099E-21
    0.480423464267         0.11292155E-05      0.73253159E-01     -0.35416237E-14      0.67050423E-07     -0.32417356E-20
    0.483563486909         0.11551570E-05      0.96082030E-01     -0.10922318E-13      0.89382443E-07     -0.10160729E-19
    0.486703509552         0.11815559E-05      0.82885612E-01     -0.89208668E-14      0.78359473E-07     -0.84337245E-20
    0.489843532194         0.12084172E-05      0.91450765E-01     -0.23158581E-14      0.87855594E-07     -0.22248157E-20
    0.492983554836         0.12357457E-05      0.87038035E-01     -0.38600546E-14      0.84962697E-07     -0.37680153E-20
    0.496123577478         0.12635461E-05      0.93950895E-01     -0.59918262E-14      0.93180423E-07     -0.59426884E-20
    0.499263600121         0.12918231E-05      0.91414104E-01     -0.45921678E-14      0.92110450E-07     -0.46271487E-20
    0.502403622763         0.13205817E-05      0.99089357E-01     -0.56568788E-14      0.10142898E-06     -0.57904446E-20
    0.505543645405         0.13498263E-05      0.96305271E-01     -0.41120109E-14      0.10013637E-06     -0.42755898E-20
    0.508683668048         0.13795618E-05      0.10609449E+00     -0.15030009E-13      0.11204919E-06     -0.15873589E-19
