 
 # Omega; pulse ft; proj flux t=    1000.25000000000     
    0.000000000000         0.64285036E-11      0.00000000E+00      0.00000000E+00      0.00000000E+00      0.00000000E+00      0.00000000E+00      0.00000000E+00
    0.003140022642         0.21245158E-10     -0.35687614E-05      0.13925914E-14     -0.14965367E-14      0.58397409E-24     -0.46991593E-17      0.18336919E-26
    0.006280045285         0.65709671E-10     -0.87233752E-06     -0.10562005E-14     -0.56570986E-15     -0.68494479E-24     -0.64755010E-17     -0.31705030E-27
    0.009420067927         0.13986570E-09     -0.47140143E-06     -0.69279382E-15     -0.43380120E-15     -0.63753474E-24     -0.78376466E-17     -0.23189238E-26
    0.012560090569         0.24378600E-09     -0.27601324E-06      0.11307887E-15     -0.33203861E-15      0.13603170E-24     -0.88802554E-17     -0.18917812E-26
    0.015700113211         0.37757252E-09     -0.15387019E-06     -0.34833062E-16     -0.22934790E-15     -0.51919670E-25     -0.96004130E-17     -0.20548102E-26
    0.018840135854         0.54135636E-09     -0.99688216E-07     -0.53690070E-16     -0.17753571E-15     -0.95617164E-25     -0.10157879E-16     -0.23550502E-26
    0.021980158496         0.73529789E-09     -0.60352825E-07     -0.21454030E-15     -0.12513327E-15     -0.44481975E-24     -0.10550800E-16     -0.37517943E-26
    0.025120181138         0.95958676E-09     -0.40489442E-07     -0.70500425E-16     -0.95861881E-16     -0.16691520E-24     -0.10851809E-16     -0.42759118E-26
    0.028260203780         0.12144420E-08     -0.23794029E-07      0.87375023E-17     -0.63374151E-16      0.23271881E-25     -0.11050805E-16     -0.42028376E-26
    0.031400226423         0.15001122E-08     -0.36301160E-08     -0.10239675E-16     -0.10748656E-16     -0.30319347E-25     -0.11084556E-16     -0.42980410E-26
    0.034540249065         0.18168754E-08      0.10329586E-07     -0.22179545E-17      0.33676371E-16     -0.72309441E-26     -0.10978812E-16     -0.43207463E-26
    0.037680271707         0.21650394E-08      0.55451256E-08     -0.11556826E-17      0.19747214E-16     -0.41155989E-26     -0.10916805E-16     -0.43336694E-26
    0.040820294349         0.25449417E-08      0.28435354E-08     -0.10956482E-16      0.10987604E-16     -0.42336556E-25     -0.10882304E-16     -0.44666071E-26
    0.043960316992         0.29569499E-08      0.52386773E-08     -0.17556276E-16      0.21839740E-16     -0.73191090E-25     -0.10813726E-16     -0.46964288E-26
    0.047100339634         0.34014614E-08      0.72766398E-08      0.20710413E-17      0.32569797E-16      0.92698550E-26     -0.10711456E-16     -0.46673213E-26
    0.050240362276         0.38789041E-08      0.86802049E-08      0.95583763E-17      0.41536408E-16      0.45738622E-25     -0.10581031E-16     -0.45237010E-26
    0.053380384919         0.43897362E-08      0.98931801E-08     -0.97515629E-17      0.50423769E-16     -0.49701972E-25     -0.10422699E-16     -0.46797663E-26
    0.056520407561         0.49344463E-08      0.10661679E-07      0.28033825E-17      0.57690120E-16      0.15169043E-25     -0.10241551E-16     -0.46321351E-26
    0.059660430203         0.55135541E-08      0.11331887E-07      0.10581481E-16      0.64906795E-16      0.60608618E-25     -0.10037742E-16     -0.44418227E-26
    0.062800452845         0.61276098E-08      0.11722291E-07      0.96335034E-18      0.70889756E-16      0.58257957E-26     -0.98151468E-17     -0.44235296E-26
    0.065940475488         0.67771950E-08      0.12057380E-07     -0.40778590E-17      0.76805711E-16     -0.25976031E-25     -0.95739751E-17     -0.45050949E-26
    0.069080498130         0.74629227E-08      0.12064977E-07     -0.20987175E-16      0.80783501E-16     -0.14052388E-24     -0.93203131E-17     -0.49463431E-26
    0.072220520772         0.81854373E-08      0.12049200E-07     -0.44656241E-16      0.84641265E-16     -0.31369393E-24     -0.90545376E-17     -0.59313491E-26
    0.075360543414         0.89454151E-08      0.12652841E-07      0.55767901E-17      0.93086611E-16      0.41028293E-25     -0.87622436E-17     -0.58025193E-26
    0.078500566057         0.97435644E-08      0.13174085E-07      0.78963691E-17      0.10134637E-15      0.60745651E-25     -0.84440137E-17     -0.56117766E-26
    0.081640588699         0.10580626E-07      0.13014811E-07     -0.89199343E-17      0.10454079E-15     -0.71648906E-25     -0.81157532E-17     -0.58367558E-26
    0.084780611341         0.11457373E-07      0.12851446E-07      0.57628198E-17      0.10764235E-15      0.48268768E-25     -0.77777538E-17     -0.56851908E-26
    0.087920633984         0.12374611E-07      0.12763687E-07      0.56149261E-17      0.11134213E-15      0.48980978E-25     -0.74281370E-17     -0.55313894E-26
    0.091060656626         0.13333179E-07      0.12659322E-07      0.86087670E-19      0.11488308E-15      0.78124376E-27     -0.70674015E-17     -0.55289363E-26
    0.094200679268         0.14333950E-07      0.12545274E-07     -0.11825611E-17      0.11831360E-15     -0.11152651E-25     -0.66958941E-17     -0.55639558E-26
    0.097340701910         0.15377830E-07      0.12412513E-07     -0.61221257E-17      0.12153545E-15     -0.59943970E-25     -0.63142700E-17     -0.57521813E-26
    0.100480724553         0.16465758E-07      0.12261665E-07     -0.17314986E-16      0.12453491E-15     -0.17585868E-24     -0.59232276E-17     -0.63043815E-26
    0.103620747195         0.17598710E-07      0.12097628E-07     -0.10446090E-18      0.12734357E-15     -0.10995894E-26     -0.55233659E-17     -0.63078342E-26
    0.106760769837         0.18777693E-07      0.11971146E-07     -0.22356713E-17      0.13049953E-15     -0.24371439E-25     -0.51135944E-17     -0.63843611E-26
    0.109900792479         0.20003751E-07      0.11827662E-07      0.37585160E-17      0.13342961E-15      0.42400375E-25     -0.46946225E-17     -0.62512230E-26
    0.113040815122         0.21277963E-07      0.11691441E-07      0.15185137E-17      0.13639721E-15      0.17715612E-25     -0.42663321E-17     -0.61955955E-26
    0.116180837764         0.22601444E-07      0.11533978E-07      0.21237648E-18      0.13906681E-15      0.25606532E-26     -0.38296592E-17     -0.61875550E-26
    0.119320860406         0.23975342E-07      0.11396520E-07      0.70816190E-18      0.14192646E-15      0.88190878E-26     -0.33840069E-17     -0.61598629E-26
    0.122460883048         0.25400844E-07      0.11233519E-07     -0.65216841E-17      0.14441399E-15     -0.83840373E-25     -0.29305437E-17     -0.64231236E-26
    0.125600905691         0.26879174E-07      0.11100222E-07     -0.43766115E-17      0.14723039E-15     -0.58050213E-25     -0.24682369E-17     -0.66054026E-26
    0.128740928333         0.28411589E-07      0.10933712E-07     -0.60093020E-17      0.14955096E-15     -0.82195035E-25     -0.19986435E-17     -0.68634968E-26
    0.131880950975         0.29999386E-07      0.10809695E-07     -0.10265137E-17      0.15240050E-15     -0.14472306E-25     -0.15201025E-17     -0.69089402E-26
    0.135020973618         0.31643900E-07      0.10640864E-07      0.21339399E-17      0.15456399E-15      0.30996569E-25     -0.10347681E-17     -0.68116103E-26
    0.138160996260         0.33346502E-07      0.10530673E-07     -0.69601771E-17      0.15753013E-15     -0.10411847E-24     -0.54011989E-18     -0.71385446E-26
    0.141301018902         0.35108601E-07      0.10352659E-07     -0.35313243E-17      0.15942734E-15     -0.54381166E-25     -0.39514426E-19     -0.73093027E-26
    0.144441041544         0.36931646E-07      0.10262753E-07     -0.98982015E-18      0.16263522E-15     -0.15685813E-25      0.47116384E-18     -0.73585565E-26
    0.147581064187         0.38817124E-07      0.10065711E-07     -0.24202066E-17      0.16408915E-15     -0.39453709E-25      0.98640747E-18     -0.74824421E-26
    0.150721086829         0.40766561E-07      0.10011599E-07      0.27416875E-17      0.16783254E-15      0.45961129E-25      0.15134054E-17     -0.73381231E-26
    0.153861109471         0.42781523E-07      0.97770972E-08      0.13347718E-17      0.16849227E-15      0.23002608E-25      0.20424750E-17     -0.72658944E-26
    0.157001132113         0.44863615E-07      0.97882319E-08     -0.88095515E-20      0.17335581E-15     -0.15602276E-27      0.25868162E-17     -0.72663843E-26
    0.160141154756         0.47014483E-07      0.95032544E-08      0.14617196E-17      0.17291941E-15      0.26597171E-25      0.31297870E-17     -0.71828686E-26
    0.163281177398         0.49235812E-07      0.95864706E-08      0.34677359E-17      0.17916221E-15      0.64808754E-25      0.36923604E-17     -0.69793676E-26
    0.166421200040         0.51529331E-07      0.94414102E-08      0.46137224E-18      0.18118632E-15      0.88540096E-26      0.42612896E-17     -0.69515658E-26
    0.169561222683         0.53896806E-07      0.91608081E-08     -0.14178599E-17      0.18047330E-15     -0.27932672E-25      0.48279798E-17     -0.70392750E-26
    0.172701245325         0.56340048E-07      0.99860398E-08     -0.85748374E-18      0.20190994E-15     -0.17337653E-25      0.54619816E-17     -0.70937157E-26
    0.175841267967         0.58860908E-07      0.91340597E-08     -0.91988360E-18      0.18950151E-15     -0.19084540E-25      0.60570206E-17     -0.71536416E-26
    0.178981290609         0.61461278E-07      0.94816376E-08     -0.23722737E-17      0.20179945E-15     -0.50489540E-25      0.66906755E-17     -0.73121799E-26
    0.182121313252         0.64143096E-07      0.96413327E-08      0.15052065E-17      0.21045967E-15      0.32857001E-25      0.73515236E-17     -0.72090081E-26
    0.185261335894         0.66908339E-07      0.91536063E-08     -0.12743649E-17      0.20489453E-15     -0.28525413E-25      0.79948971E-17     -0.72985786E-26
    0.188401358536         0.69759030E-07      0.93165582E-08     -0.56495088E-19      0.21380339E-15     -0.12964918E-26      0.86662445E-17     -0.73026496E-26
    0.191541381178         0.72697233E-07      0.90100262E-08      0.48518772E-18      0.21194540E-15      0.11413208E-25      0.93317579E-17     -0.72668118E-26
    0.194681403821         0.75725056E-07      0.89977707E-08     -0.17981263E-17      0.21691657E-15     -0.43348891E-25      0.10012881E-16     -0.74029283E-26
    0.197821426463         0.78844653E-07      0.88252123E-08     -0.63370843E-18      0.21800515E-15     -0.15654207E-25      0.10697422E-16     -0.74520829E-26
    0.200961449105         0.82058219E-07      0.87601415E-08      0.30088109E-19      0.22169869E-15      0.76145965E-27      0.11393561E-16     -0.74496919E-26
    0.204101471747         0.85367996E-07      0.86407665E-08     -0.65936237E-18      0.22399787E-15     -0.17092901E-25      0.12096919E-16     -0.75033640E-26
    0.207241494390         0.88776268E-07      0.85663673E-08     -0.22316590E-18      0.22743617E-15     -0.59250316E-26      0.12811074E-16     -0.75219687E-26
    0.210381517032         0.92285368E-07      0.84732105E-08      0.53244768E-17      0.23036470E-15      0.14475877E-24      0.13534424E-16     -0.70674229E-26
    0.213521539674         0.95897669E-07      0.84020057E-08     -0.87697405E-18      0.23387942E-15     -0.24411574E-25      0.14268811E-16     -0.71440758E-26
    0.216661562317         0.99615594E-07      0.83226265E-08      0.17679252E-17      0.23716388E-15      0.50379287E-25      0.15013511E-16     -0.69858837E-26
    0.219801584959         0.10344161E-06      0.82564490E-08      0.16423535E-17      0.24082436E-15      0.47904219E-25      0.15769705E-16     -0.68354634E-26
    0.222941607601         0.10737822E-06      0.81876730E-08      0.68160049E-18      0.24441522E-15      0.20346872E-25      0.16537174E-16     -0.67715738E-26
    0.226081630243         0.11142800E-06      0.81277708E-08      0.24323604E-18      0.24828083E-15      0.74301855E-26      0.17316782E-16     -0.67482428E-26
    0.229221652886         0.11559354E-06      0.80671828E-08      0.71796625E-18      0.25214043E-15      0.22440092E-25      0.18108508E-16     -0.66777804E-26
    0.232361675528         0.11987749E-06      0.80135909E-08      0.93506760E-18      0.25623769E-15      0.29899150E-25      0.18913100E-16     -0.65838964E-26
    0.235501698170         0.12428256E-06      0.79603111E-08      0.51984757E-18      0.26036876E-15      0.17003364E-25      0.19730664E-16     -0.65305055E-26
    0.238641720812         0.12881148E-06      0.79130182E-08      0.13918211E-17      0.26472383E-15      0.46562286E-25      0.20561903E-16     -0.63842988E-26
    0.241781743455         0.13346705E-06      0.78665896E-08      0.90880822E-19      0.26914091E-15      0.31093204E-26      0.21407012E-16     -0.63745355E-26
    0.244921766097         0.13825210E-06      0.78256594E-08      0.75106157E-18      0.27378393E-15      0.26276200E-25      0.22266699E-16     -0.62920276E-26
    0.248061788739         0.14316951E-06      0.77860520E-08     -0.25685420E-18      0.27851632E-15     -0.91879795E-26      0.23141247E-16     -0.63208781E-26
    0.251201811381         0.14822222E-06      0.77510170E-08     -0.78595622E-19      0.28346008E-15     -0.28742965E-26      0.24031318E-16     -0.63299034E-26
    0.254341834024         0.15341320E-06      0.77183190E-08      0.80004953E-19      0.28854286E-15      0.29909178E-26      0.24937349E-16     -0.63205119E-26
    0.257481856666         0.15874548E-06      0.76898727E-08      0.83544558E-18      0.29384382E-15      0.31923874E-25      0.25860025E-16     -0.62202702E-26
    0.260621879308         0.16422213E-06      0.76633534E-08     -0.32213592E-18      0.29928320E-15     -0.12580637E-25      0.26799781E-16     -0.62597737E-26
    0.263761901951         0.16984627E-06      0.76401864E-08      0.30334342E-18      0.30492327E-15      0.12106572E-25      0.27757247E-16     -0.62217588E-26
    0.266901924593         0.17562106E-06      0.76200096E-08      0.10547637E-17      0.31075854E-15      0.43015279E-25      0.28733036E-16     -0.60866898E-26
    0.270041947235         0.18154971E-06      0.76030105E-08      0.21855334E-18      0.31680541E-15      0.91067715E-26      0.29727812E-16     -0.60580944E-26
    0.273181969877         0.18763548E-06      0.75895536E-08      0.40738103E-18      0.32308876E-15      0.17342289E-25      0.30742318E-16     -0.60036392E-26
    0.276321992520         0.19388169E-06      0.75796701E-08      0.46783786E-18      0.32962058E-15      0.20345079E-25      0.31777334E-16     -0.59397552E-26
    0.279462015162         0.20029168E-06      0.75729490E-08     -0.10595091E-18      0.33639367E-15     -0.47063855E-26      0.32833618E-16     -0.59545333E-26
    0.282602037804         0.20686884E-06      0.75693260E-08      0.70253901E-18      0.34341533E-15      0.31873732E-25      0.33911950E-16     -0.58544491E-26
    0.285742060446         0.21361663E-06      0.75694997E-08      0.59931818E-18      0.35072825E-15      0.27769050E-25      0.35013245E-16     -0.57672536E-26
    0.288882083089         0.22053854E-06      0.75713221E-08      0.27824772E-18      0.35824347E-15      0.13165525E-25      0.36138137E-16     -0.57259136E-26
    0.292022105731         0.22763810E-06      0.75769438E-08     -0.10991029E-18      0.36607154E-15     -0.53101921E-26      0.37287610E-16     -0.57425877E-26
    0.295162128373         0.23491890E-06      0.75763059E-08      0.93271746E-19      0.37372960E-15      0.46009775E-26      0.38461130E-16     -0.57281406E-26
    0.298302151016         0.24238456E-06      0.75856094E-08     -0.63345025E-18      0.38201615E-15     -0.31900960E-25      0.39660669E-16     -0.58283103E-26
    0.301442173658         0.25003877E-06      0.76436850E-08      0.45193087E-18      0.39296040E-15      0.23233681E-25      0.40894574E-16     -0.57553560E-26
    0.304582196300         0.25788523E-06      0.77032698E-08      0.63742049E-18      0.40424042E-15      0.33449578E-25      0.42163898E-16     -0.56503236E-26
    0.307722218942         0.26592771E-06      0.77214696E-08     -0.23151491E-19      0.41356843E-15     -0.12400134E-26      0.43462512E-16     -0.56542172E-26
    0.310862241585         0.27417002E-06      0.77440837E-08     -0.41112977E-21      0.42331602E-15     -0.22473649E-28      0.44791734E-16     -0.56542878E-26
    0.314002264227         0.28261602E-06      0.77793285E-08      0.28643260E-18      0.43395908E-15      0.15978247E-25      0.46154375E-16     -0.56041158E-26
    0.317142286869         0.29126959E-06      0.78218605E-08     -0.25668270E-18      0.44523955E-15     -0.14611011E-25      0.47552437E-16     -0.56499947E-26
    0.320282309511         0.30013468E-06      0.78697306E-08      0.38710845E-18      0.45707321E-15      0.22483222E-25      0.48987658E-16     -0.55793968E-26
    0.323422332154         0.30921526E-06      0.79245859E-08      0.64762291E-18      0.46958063E-15      0.38375655E-25      0.50462151E-16     -0.54588964E-26
    0.326562354796         0.31851537E-06      0.79850360E-08     -0.45442625E-19      0.48270726E-15     -0.27470740E-26      0.51977863E-16     -0.54675223E-26
    0.329702377438         0.32803906E-06      0.80518199E-08      0.19312048E-18      0.49652396E-15      0.11908978E-25      0.53536960E-16     -0.54301278E-26
    0.332842400080         0.33779045E-06      0.81277595E-08      0.18322571E-18      0.51123696E-15      0.11524917E-25      0.55142255E-16     -0.53939393E-26
    0.335982422723         0.34777368E-06      0.82046420E-08     -0.25768694E-18      0.52635950E-15     -0.16531613E-25      0.56795036E-16     -0.54458490E-26
    0.339122445365         0.35799293E-06      0.82958079E-08      0.42985026E-18      0.54277431E-15      0.28124046E-25      0.58499360E-16     -0.53575388E-26
    0.342262468007         0.36845245E-06      0.83961585E-08      0.67883021E-18      0.56020305E-15      0.45292470E-25      0.60258410E-16     -0.52153194E-26
    0.345402490650         0.37915648E-06      0.84965374E-08      0.56915894E-18      0.57806633E-15      0.38723023E-25      0.62073551E-16     -0.50937283E-26
    0.348542513292         0.39010935E-06      0.86140875E-08     -0.34692486E-19      0.59756142E-15     -0.24066265E-26      0.63949908E-16     -0.51012851E-26
    0.351682535934         0.40131538E-06      0.87393479E-08      0.12073901E-18      0.61809709E-15      0.85393589E-26      0.65890747E-16     -0.50744713E-26
    0.354822558576         0.41277896E-06      0.88741643E-08      0.34695675E-19      0.63984749E-15      0.25016373E-26      0.67899882E-16     -0.50666161E-26
    0.357962581219         0.42450450E-06      0.90228637E-08      0.16124371E-18      0.66318049E-15      0.11851413E-25      0.69982284E-16     -0.50294024E-26
    0.361102603861         0.43649646E-06      0.91811644E-08      0.85693346E-19      0.68784494E-15      0.64200718E-26      0.72142133E-16     -0.50092433E-26
    0.364242626503         0.44875932E-06      0.93566820E-08     -0.17399870E-18      0.71447537E-15     -0.13286525E-25      0.74385601E-16     -0.50509633E-26
    0.367382649145         0.46129760E-06      0.95427948E-08      0.34697662E-19      0.74264424E-15      0.27002592E-26      0.76717521E-16     -0.50424844E-26
    0.370522671788         0.47411586E-06      0.97509248E-08      0.46149130E-19      0.77331810E-15      0.36599562E-26      0.79145757E-16     -0.50309920E-26
    0.373662694430         0.48721866E-06      0.99700824E-08      0.18255501E-18      0.80572269E-15      0.14753009E-25      0.81675745E-16     -0.49846673E-26
    0.376802717072         0.50061064E-06      0.10215505E-07      0.56239142E-19      0.84117924E-15      0.46309214E-26      0.84317067E-16     -0.49701261E-26
    0.379942739715         0.51429644E-06      0.10473941E-07      0.52770662E-19      0.87871525E-15      0.44272147E-26      0.87076253E-16     -0.49562245E-26
    0.383082762357         0.52828072E-06      0.10768631E-07     -0.28670772E-18      0.92039728E-15     -0.24504972E-25      0.89966321E-16     -0.50331707E-26
