
 # six columns.
 # Omega (column 1); |pulse ft|^2 (2); cross section (Mb) (3); flux (column 5)

  0.0000      0.187175E-09      0.000000E+00      0.000000E+00      0.151428E-07      0.423516E-20
  0.0031      0.201864E-09      0.302334E+00      0.440429E-13      0.151379E-07      0.220524E-20
  0.0063      0.245947E-09      0.501072E+00      0.332507E-13      0.152838E-07      0.101422E-20
  0.0094      0.319467E-09      0.583549E+00      0.239485E-12      0.154135E-07      0.632562E-20
  0.0126      0.422497E-09      0.593011E+00      0.718209E-13      0.155362E-07      0.188163E-20
  0.0157      0.555138E-09      0.568579E+00      0.173537E-12      0.156582E-07      0.477906E-20
  0.0188      0.717521E-09      0.531983E+00      0.182950E-12      0.157798E-07      0.542669E-20
  0.0220      0.909805E-09      0.493254E+00      0.863671E-13      0.159016E-07      0.278432E-20
  0.0251      0.113218E-08      0.456549E+00      0.861202E-13      0.160263E-07      0.302309E-20
  0.0283      0.138486E-08      0.423187E+00      0.923154E-13      0.161517E-07      0.352338E-20
  0.0314      0.166811E-08      0.393423E+00      0.230408E-13      0.162781E-07      0.953326E-21
  0.0345      0.198218E-08      0.367049E+00      0.660714E-13      0.164057E-07      0.295314E-20
  0.0377      0.232740E-08      0.343718E+00      0.727158E-13      0.165353E-07      0.349815E-20
  0.0408      0.270409E-08      0.323024E+00      0.449543E-13      0.166661E-07      0.231936E-20
  0.0440      0.311263E-08      0.304623E+00      0.752036E-13      0.167989E-07      0.414723E-20
  0.0471      0.355341E-08      0.288178E+00      0.905564E-13      0.169330E-07      0.532099E-20
  0.0502      0.402685E-08      0.273438E+00      0.195761E-13      0.170696E-07      0.122206E-20
  0.0534      0.453342E-08      0.260148E+00      0.723885E-13      0.172075E-07      0.478813E-20
  0.0565      0.507360E-08      0.248130E+00      0.873603E-13      0.173477E-07      0.610769E-20
  0.0597      0.564790E-08      0.237204E+00      0.618564E-13      0.174894E-07      0.456076E-20
  0.0628      0.625688E-08      0.227238E+00      0.265977E-13      0.176331E-07      0.206392E-20
  0.0659      0.690112E-08      0.218107E+00      0.528964E-13      0.177783E-07      0.431168E-20
  0.0691      0.758123E-08      0.209732E+00      0.176506E-13      0.179267E-07      0.150867E-20
  0.0722      0.829784E-08      0.202003E+00      0.362917E-13      0.180766E-07      0.324761E-20
  0.0754      0.905164E-08      0.194861E+00      0.326214E-13      0.182289E-07      0.305168E-20
  0.0785      0.984333E-08      0.188233E+00      0.386450E-13      0.183830E-07      0.377411E-20
  0.0816      0.106736E-07      0.182073E+00      0.292414E-13      0.185398E-07      0.297754E-20
  0.0848      0.115434E-07      0.176326E+00      0.336399E-13      0.186984E-07      0.356732E-20
  0.0879      0.124533E-07      0.170959E+00      0.213510E-14      0.188598E-07      0.235540E-21
  0.0911      0.134042E-07      0.165928E+00      0.159722E-13      0.190231E-07      0.183117E-20
  0.0942      0.143971E-07      0.161207E+00      0.265664E-13      0.191892E-07      0.316231E-20
  0.0973      0.154327E-07      0.156765E+00      0.220208E-13      0.193575E-07      0.271915E-20
  0.1005      0.165121E-07      0.152580E+00      0.313305E-13      0.195286E-07      0.400996E-20
  0.1036      0.176363E-07      0.148627E+00      0.524757E-13      0.197020E-07      0.695618E-20
  0.1068      0.188061E-07      0.144891E+00      0.193447E-13      0.198783E-07      0.265401E-20
  0.1099      0.200227E-07      0.141349E+00      0.284520E-13      0.200571E-07      0.403726E-20
  0.1130      0.212872E-07      0.137991E+00      0.332919E-13      0.202389E-07      0.488285E-20
  0.1162      0.226005E-07      0.134800E+00      0.567256E-14      0.204233E-07      0.859441E-21
  0.1193      0.239640E-07      0.131764E+00      0.234609E-13      0.206107E-07      0.366979E-20
  0.1225      0.253788E-07      0.128872E+00      0.377978E-13      0.208010E-07      0.610087E-20
  0.1256      0.268460E-07      0.126114E+00      0.288954E-13      0.209944E-07      0.481026E-20
  0.1287      0.283670E-07      0.123481E+00      0.311833E-13      0.211908E-07      0.535144E-20
  0.1319      0.299430E-07      0.120964E+00      0.251767E-13      0.213905E-07      0.445209E-20
  0.1350      0.315754E-07      0.118555E+00      0.115684E-13      0.215933E-07      0.210704E-20
  0.1382      0.332655E-07      0.116248E+00      0.157837E-13      0.217995E-07      0.295986E-20
  0.1413      0.350147E-07      0.114037E+00      0.355912E-13      0.220091E-07      0.686911E-20
  0.1444      0.368245E-07      0.111914E+00      0.213686E-13      0.222221E-07      0.424302E-20
  0.1476      0.386964E-07      0.109877E+00      0.321872E-13      0.224387E-07      0.657319E-20
  0.1507      0.406318E-07      0.107918E+00      0.469013E-14      0.226589E-07      0.984759E-21
  0.1539      0.426324E-07      0.106035E+00     -0.705269E-14      0.228829E-07     -0.152201E-20
  0.1570      0.446997E-07      0.104221E+00      0.290032E-15      0.231106E-07      0.643133E-22
  0.1601      0.468354E-07      0.102476E+00      0.181498E-13      0.233424E-07      0.413425E-20
  0.1633      0.490411E-07      0.100793E+00      0.231084E-14      0.235780E-07      0.540563E-21
  0.1664      0.513186E-07      0.991714E-01      0.138196E-13      0.238180E-07      0.331906E-20
  0.1696      0.536696E-07      0.976056E-01      0.263031E-13      0.240619E-07      0.648427E-20
  0.1727      0.560960E-07      0.960958E-01      0.620104E-14      0.243105E-07      0.156875E-20
  0.1758      0.585995E-07      0.946362E-01      0.835299E-14      0.245631E-07      0.216804E-20
  0.1790      0.611821E-07      0.932279E-01      0.132635E-13      0.248208E-07      0.353123E-20
  0.1821      0.638456E-07      0.918646E-01      0.107579E-13      0.250825E-07      0.293732E-20
  0.1853      0.665921E-07      0.905487E-01      0.133226E-13      0.253497E-07      0.372976E-20
  0.1884      0.694236E-07      0.892730E-01      0.142756E-13      0.256210E-07      0.409703E-20
  0.1915      0.723420E-07      0.880415E-01      0.900693E-14      0.258981E-07      0.264946E-20
  0.1947      0.753496E-07      0.868457E-01      0.276188E-14      0.261793E-07      0.832557E-21
  0.1978      0.784485E-07      0.856922E-01      0.186293E-13      0.264670E-07      0.575387E-20
  0.2010      0.816408E-07      0.845702E-01      0.383778E-14      0.267586E-07      0.121430E-20
  0.2041      0.849287E-07      0.834879E-01      0.570194E-14      0.270573E-07      0.184792E-20
  0.2072      0.883146E-07      0.824363E-01      0.118843E-13      0.273607E-07      0.394441E-20
  0.2104      0.918008E-07      0.814198E-01      0.162940E-13      0.276708E-07      0.553756E-20
  0.2135      0.953895E-07      0.804331E-01      0.157498E-13      0.279864E-07      0.548007E-20
  0.2167      0.990833E-07      0.794789E-01      0.101371E-13      0.283089E-07      0.361064E-20
  0.2198      0.102885E-06      0.785525E-01      0.560321E-14      0.286373E-07      0.204272E-20
  0.2229      0.106796E-06      0.776565E-01      0.422689E-14      0.289730E-07      0.157702E-20
  0.2261      0.110820E-06      0.767865E-01      0.108475E-13      0.293149E-07      0.414128E-20
  0.2292      0.114959E-06      0.759452E-01      0.723614E-14      0.296646E-07      0.282648E-20
  0.2324      0.119215E-06      0.751283E-01      0.103554E-13      0.300209E-07      0.413797E-20
  0.2355      0.123592E-06      0.743385E-01      0.811511E-14      0.303853E-07      0.331699E-20
  0.2386      0.128093E-06      0.735719E-01      0.748426E-14      0.307569E-07      0.312881E-20
  0.2418      0.132719E-06      0.728308E-01      0.999524E-14      0.311370E-07      0.427322E-20
  0.2449      0.137474E-06      0.721119E-01      0.118486E-13      0.315248E-07      0.517980E-20
  0.2481      0.142360E-06      0.714171E-01      0.478572E-14      0.319215E-07      0.213909E-20
  0.2512      0.147381E-06      0.707438E-01      0.433907E-14      0.323266E-07      0.198275E-20
  0.2543      0.152540E-06      0.700931E-01      0.283159E-14      0.327411E-07      0.132266E-20
  0.2575      0.157839E-06      0.694634E-01     -0.952891E-15      0.331647E-07     -0.454949E-21
  0.2606      0.163282E-06      0.688550E-01      0.632480E-14      0.335981E-07      0.308621E-20
  0.2638      0.168871E-06      0.682673E-01      0.941891E-14      0.340414E-07      0.469673E-20
  0.2669      0.174610E-06      0.676995E-01      0.410563E-14      0.344949E-07      0.209194E-20
  0.2700      0.180502E-06      0.671524E-01      0.698641E-14      0.349595E-07      0.363711E-20
  0.2732      0.186550E-06      0.666238E-01      0.681828E-14      0.354344E-07      0.362636E-20
  0.2763      0.192758E-06      0.661163E-01      0.575193E-14      0.359218E-07      0.312509E-20
  0.2795      0.199128E-06      0.656256E-01      0.397969E-14      0.364197E-07      0.220857E-20
  0.2826      0.205665E-06      0.651568E-01      0.341636E-14      0.369315E-07      0.193643E-20
  0.2857      0.212372E-06      0.647030E-01     -0.408688E-15      0.374541E-07     -0.236574E-21
  0.2889      0.219251E-06      0.642721E-01      0.258320E-14      0.379924E-07      0.152698E-20
  0.2920      0.226307E-06      0.638544E-01      0.706470E-14      0.385413E-07      0.426412E-20
  0.2952      0.233543E-06      0.634611E-01      0.101972E-13      0.391081E-07      0.628409E-20
  0.2983      0.240963E-06      0.630789E-01      0.916928E-14      0.396854E-07      0.576876E-20
  0.3014      0.248571E-06      0.627229E-01      0.681458E-14      0.402833E-07      0.437661E-20
  0.3046      0.256369E-06      0.623756E-01      0.207438E-14      0.408911E-07      0.135988E-20
  0.3077      0.264363E-06      0.620571E-01      0.296824E-14      0.415227E-07      0.198606E-20
  0.3109      0.272555E-06      0.617444E-01      0.301378E-14      0.421634E-07      0.205803E-20
  0.3140      0.280949E-06      0.614636E-01      0.491539E-14      0.428317E-07      0.342535E-20
  0.3171      0.289550E-06      0.611853E-01      0.872913E-14      0.435080E-07      0.620716E-20
  0.3203      0.298361E-06      0.609429E-01      0.371441E-14      0.442166E-07      0.269495E-20
  0.3234      0.307386E-06      0.606990E-01     -0.140353E-14      0.449313E-07     -0.103894E-20
  0.3266      0.316630E-06      0.604960E-01      0.260151E-14      0.456841E-07      0.196455E-20
  0.3297      0.326095E-06      0.602867E-01      0.789891E-14      0.464404E-07      0.608474E-20
  0.3328      0.335787E-06      0.601243E-01      0.448468E-14      0.472420E-07      0.352379E-20
  0.3360      0.345709E-06      0.599499E-01      0.571412E-14      0.480436E-07      0.457927E-20
  0.3391      0.355866E-06      0.598301E-01      0.244115E-14      0.488993E-07      0.199516E-20
  0.3423      0.366262E-06      0.596910E-01      0.167131E-14      0.497501E-07      0.139297E-20
  0.3454      0.376900E-06      0.596161E-01      0.213737E-14      0.506661E-07      0.181649E-20
  0.3485      0.387786E-06      0.595130E-01      0.159033E-14      0.515704E-07      0.137808E-20
  0.3517      0.398923E-06      0.594860E-01     -0.252798E-14      0.525541E-07     -0.223339E-20
  0.3548      0.410317E-06      0.594197E-01     -0.508803E-15      0.535168E-07     -0.458258E-21
  0.3580      0.421970E-06      0.594445E-01      0.477147E-14      0.545768E-07      0.438075E-20
  0.3611      0.433888E-06      0.594159E-01      0.335350E-14      0.556035E-07      0.313832E-20
  0.3642      0.446075E-06      0.594974E-01      0.392852E-14      0.567503E-07      0.374713E-20
  0.3674      0.458536E-06      0.595077E-01      0.522640E-14      0.578470E-07      0.508054E-20
  0.3705      0.471275E-06      0.596520E-01     -0.312291E-14      0.590932E-07     -0.309366E-20
  0.3737      0.484297E-06      0.597024E-01     -0.137993E-14      0.602666E-07     -0.139297E-20
  0.3768      0.497606E-06      0.599174E-01      0.266037E-14      0.616279E-07      0.273631E-20
  0.3799      0.511207E-06      0.600094E-01     -0.126296E-16      0.628855E-07     -0.132349E-22
  0.3831      0.525104E-06      0.603053E-01      0.272733E-15      0.643815E-07      0.291168E-21
  0.3862      0.539303E-06      0.604403E-01      0.597827E-15      0.657315E-07      0.650164E-21
  0.3894      0.553807E-06      0.608302E-01     -0.262837E-14      0.673869E-07     -0.291168E-20
  0.3925      0.568622E-06      0.610096E-01     -0.224037E-14      0.688385E-07     -0.252786E-20
  0.3956      0.583752E-06      0.615107E-01      0.163543E-14      0.706851E-07      0.187935E-20
  0.3988      0.599202E-06      0.617357E-01      0.242865E-14      0.722480E-07      0.284219E-20
  0.4019      0.614977E-06      0.623712E-01      0.253352E-14      0.743280E-07      0.301921E-20
  0.4051      0.631081E-06      0.626425E-01      0.362385E-14      0.760124E-07      0.439729E-20
  0.4082      0.647520E-06      0.634435E-01      0.317893E-14      0.783821E-07      0.392745E-20
  0.4113      0.664299E-06      0.637609E-01      0.126267E-14      0.801985E-07      0.158819E-20
  0.4145      0.681421E-06      0.647710E-01      0.371326E-14      0.829358E-07      0.475463E-20
  0.4176      0.698893E-06      0.651324E-01      0.361232E-14      0.848938E-07      0.470831E-20
  0.4208      0.716718E-06      0.664133E-01      0.148144E-14      0.881086E-07      0.196538E-20
  0.4239      0.734903E-06      0.668137E-01      0.376388E-14      0.902155E-07      0.508220E-20
  0.4270      0.753451E-06      0.684558E-01      0.404033E-14      0.940689E-07      0.555204E-20
  0.4302      0.772367E-06      0.688843E-01      0.386388E-14      0.963260E-07      0.540314E-20
  0.4333      0.791658E-06      0.710252E-01      0.322754E-14      0.101063E-06      0.459251E-20
  0.4365      0.811327E-06      0.714609E-01     -0.158834E-14      0.103459E-06     -0.229956E-20
  0.4396      0.831379E-06      0.743185E-01     -0.255405E-14      0.109468E-06     -0.376202E-20
  0.4427      0.851820E-06      0.747214E-01      0.125860E-14      0.111968E-06      0.188597E-20
  0.4459      0.872654E-06      0.786607E-01     -0.143262E-15      0.119903E-06     -0.218376E-21
  0.4490      0.893887E-06      0.789541E-01     -0.195901E-14      0.122417E-06     -0.303741E-20
  0.4522      0.915523E-06      0.846308E-01      0.140575E-15      0.133461E-06      0.221684E-21
  0.4553      0.937567E-06      0.846607E-01     -0.433237E-15      0.135780E-06     -0.694832E-21
  0.4584      0.960025E-06      0.933705E-01     -0.754664E-15      0.152286E-06     -0.123084E-20
  0.4616      0.982901E-06      0.928052E-01      0.132470E-14      0.153916E-06      0.219699E-20
  0.4647      0.100620E-05      0.107482E+00      0.120472E-14      0.181249E-06      0.203156E-20
  0.4679      0.102993E-05      0.105512E+00      0.860707E-15      0.180901E-06      0.147569E-20
  0.4710      0.105409E-05      0.134391E+00     -0.261960E-15      0.234248E-06     -0.456604E-21
  0.4741      0.107869E-05      0.128542E+00      0.433222E-15      0.227763E-06      0.767624E-21
  0.4773      0.110373E-05      0.206115E+00      0.116102E-14      0.371234E-06      0.209111E-20
  0.4804      0.112922E-05      0.183606E+00      0.404858E-15      0.336118E-06      0.741154E-21
  0.4836      0.115516E-05      0.765800E+00     -0.355673E-14      0.142480E-05     -0.661744E-20
  0.4867      0.118156E-05      0.106046E+01     -0.184791E-14      0.200511E-05     -0.349401E-20
  0.4898      0.120842E-05      0.587711E-01      0.480627E-14      0.112921E-06      0.923464E-20
  0.4930      0.123575E-05     -0.136675E+00      0.392509E-14     -0.266833E-06      0.766300E-20
  0.4961      0.126355E-05     -0.153095E-01      0.452456E-14     -0.303678E-07      0.897491E-20
  0.4993      0.129182E-05     -0.276521E-01      0.257853E-14     -0.557256E-07      0.519635E-20
  0.5024      0.132058E-05      0.226021E-02      0.226248E-14      0.462715E-08      0.463180E-20
  0.5055      0.134983E-05      0.520532E-02      0.264356E-14      0.108248E-07      0.549744E-20
  0.5087      0.137956E-05      0.116649E-01     -0.168980E-14      0.246392E-07     -0.356928E-20
  0.5118      0.140979E-05      0.203607E-01     -0.833621E-15      0.436797E-07     -0.178836E-20
  0.5150      0.144052E-05      0.138019E-01      0.186037E-16      0.300701E-07      0.405319E-22
  0.5181      0.147176E-05      0.267345E-01     -0.177965E-14      0.591486E-07     -0.393738E-20
  0.5212      0.150350E-05      0.689793E-02     -0.265325E-14      0.154966E-07     -0.596066E-20
  0.5244      0.153576E-05      0.237644E-01     -0.568616E-15      0.542069E-07     -0.129702E-20
  0.5275      0.156854E-05     -0.178229E-01     -0.177021E-14     -0.412746E-07     -0.409951E-20
  0.5307      0.160184E-05      0.102097E-02     -0.273945E-14      0.240030E-08     -0.644043E-20
  0.5338      0.163566E-05     -0.926646E-01      0.388198E-16     -0.221146E-06      0.926442E-22
  0.5369      0.167002E-05     -0.881547E-01      0.946833E-14     -0.213546E-06      0.229361E-19
  0.5401      0.170491E-05     -0.384029E+00      0.839752E-14     -0.944186E-06      0.206464E-19
  0.5432      0.174035E-05     -0.564294E+00      0.418387E-13     -0.140804E-05      0.104397E-18
  0.5464      0.177632E-05     -0.326870E+01      0.376323E-13     -0.827689E-05      0.952912E-19
  0.5495      0.181284E-05     -0.101578E+02      0.668208E-12     -0.261001E-04      0.171694E-17
  0.5526      0.184992E-05     -0.864066E+01      0.555567E-13     -0.225272E-04      0.144843E-18
  0.5558      0.188755E-05     -0.147975E+01      0.940661E-13     -0.391412E-05      0.248816E-18
  0.5589      0.192574E-05      0.216696E+00      0.398505E-14      0.581499E-06      0.106938E-19
  0.5621      0.196450E-05      0.174095E+01     -0.928032E-13      0.473918E-05     -0.252628E-18
  0.5652      0.200382E-05      0.346633E+01      0.156446E-13      0.957139E-05      0.431987E-19
  0.5683      0.204371E-05      0.824488E+01     -0.415553E-12      0.230911E-04     -0.116382E-17
  0.5715      0.208418E-05      0.150124E+02      0.134193E-12      0.426415E-04      0.381165E-18
  0.5746      0.212522E-05      0.167913E+02     -0.757483E-12      0.483679E-04     -0.218196E-17
  0.5778      0.216685E-05      0.165960E+02      0.236625E-12      0.484769E-04      0.691179E-18
  0.5809      0.220906E-05      0.142440E+02     -0.569684E-12      0.421880E-04     -0.168729E-17
  0.5840      0.225186E-05      0.128772E+02      0.247090E-12      0.386695E-04      0.742001E-18
  0.5872      0.229525E-05      0.123614E+02     -0.435696E-12      0.376338E-04     -0.132645E-17
  0.5903      0.233924E-05      0.120632E+02      0.292564E-12      0.372304E-04      0.902937E-18
  0.5935      0.238382E-05      0.122699E+02     -0.369303E-12      0.383859E-04     -0.115535E-17
  0.5966      0.242901E-05      0.122424E+02      0.356872E-12      0.388204E-04      0.113164E-17
  0.5997      0.247479E-05      0.125143E+02     -0.314160E-12      0.402191E-04     -0.100966E-17
  0.6029      0.252119E-05      0.123836E+02      0.427021E-12      0.403338E-04      0.139083E-17
  0.6060      0.256819E-05      0.124820E+02     -0.247393E-12      0.411980E-04     -0.816540E-18
  0.6092      0.261581E-05      0.122319E+02     -0.907199E-12      0.409089E-04     -0.303407E-17
  0.6123      0.266403E-05      0.121921E+02     -0.177474E-12      0.413147E-04     -0.601393E-18
  0.6154      0.271288E-05      0.119271E+02     -0.821581E-12      0.409477E-04     -0.282062E-17
  0.6186      0.276234E-05      0.118453E+02     -0.112515E-12      0.411979E-04     -0.391329E-18
  0.6217      0.281243E-05      0.116275E+02     -0.739522E-12      0.409658E-04     -0.260547E-17
  0.6249      0.286313E-05      0.115515E+02     -0.498438E-13      0.412236E-04     -0.177877E-18
  0.6280      0.291446E-05      0.113865E+02     -0.667877E-12      0.411566E-04     -0.241404E-17
