
 # Omega; pulse ft; projected flux at t=    1000.2500000000000     
    0.000000000000         0.18717486E-09      0.00000000E+00     -0.00000000E+00      0.56803532E-08     -0.42351647E-21
    0.003140022642         0.20186436E-09      0.22720858E+00      0.75795789E-14      0.56881908E-08      0.18975556E-21
    0.006280045285         0.24594737E-09      0.37589349E+00     -0.14782769E-12      0.57327996E-08     -0.22545389E-20
    0.009420067927         0.31946741E-09      0.43791087E+00      0.18356939E-14      0.57833677E-08      0.24243501E-22
    0.012560090569         0.42249703E-09      0.44519752E+00      0.34084124E-14      0.58318476E-08      0.44648366E-22
    0.015700113211         0.55513782E-09      0.42713792E+00     -0.19653184E-12      0.58815082E-08     -0.27061601E-20
    0.018840135854         0.71752051E-09      0.39991842E+00      0.27145984E-15      0.59312229E-08      0.40260431E-23
    0.021980158496         0.90980495E-09      0.37109705E+00      0.53954097E-13      0.59817399E-08      0.86968994E-21
    0.025120181138         0.11321802E-08      0.34371423E+00     -0.12662953E-12      0.60327156E-08     -0.22225438E-20
    0.028260203780         0.13848647E-08      0.31882873E+00     -0.22343340E-13      0.60843199E-08     -0.42638576E-21
    0.031400226423         0.16681061E-08      0.29664399E+00     -0.19428506E-13      0.61368991E-08     -0.40193223E-21
    0.034540249065         0.19821816E-08      0.27698245E+00     -0.92139834E-13      0.61900303E-08     -0.20591498E-20
    0.037680271707         0.23273981E-08      0.25959140E+00     -0.32046369E-13      0.62440947E-08     -0.77082893E-21
    0.040820294349         0.27040919E-08      0.24416730E+00     -0.85373306E-14      0.62987643E-08     -0.22023684E-21
    0.043960316992         0.31126296E-08      0.23045185E+00     -0.61927938E-13      0.63543243E-08     -0.17075593E-20
    0.047100339634         0.35534072E-08      0.21819805E+00     -0.21724289E-13      0.64105360E-08     -0.63824739E-21
    0.050240362276         0.40268513E-08      0.20721152E+00     -0.36008459E-14      0.64676910E-08     -0.11239317E-21
    0.053380384919         0.45334185E-08      0.19730955E+00     -0.80291269E-13      0.65255145E-08     -0.26554307E-20
    0.056520407561         0.50735959E-08      0.18835617E+00     -0.18482172E-13      0.65843510E-08     -0.64607976E-21
    0.059660430203         0.56479014E-08      0.18021783E+00      0.14880359E-13      0.66438684E-08      0.54857584E-21
    0.062800452845         0.62568834E-08      0.17280106E+00     -0.42622218E-13      0.67044665E-08     -0.16536891E-20
    0.065940475488         0.69011217E-08      0.16600690E+00     -0.11523681E-13      0.67657552E-08     -0.46965764E-21
    0.069080498130         0.75812269E-08      0.15977142E+00     -0.99436448E-14      0.68281913E-08     -0.42496404E-21
    0.072220520772         0.82978416E-08      0.15401926E+00     -0.55666389E-13      0.68913149E-08     -0.24906925E-20
    0.075360543414         0.90516395E-08      0.14870899E+00     -0.30971214E-13      0.69557345E-08     -0.14486517E-20
    0.078500566057         0.98433265E-08      0.14377980E+00     -0.23543169E-13      0.70208471E-08     -0.11496260E-20
    0.081640588699         0.10673641E-07      0.13920490E+00     -0.31317991E-13      0.70873442E-08     -0.15944940E-20
    0.084780611341         0.11543353E-07      0.13493624E+00     -0.17205555E-13      0.71546197E-08     -0.91227682E-21
    0.087920633984         0.12453265E-07      0.13095193E+00     -0.10982010E-13      0.72231543E-08     -0.60575470E-21
    0.091060656626         0.13404215E-07      0.12721896E+00     -0.53531800E-13      0.72926433E-08     -0.30686333E-20
    0.094200679268         0.14397070E-07      0.12371436E+00     -0.27001545E-13      0.73631344E-08     -0.16070568E-20
    0.097340701910         0.15432734E-07      0.12041894E+00     -0.18460320E-13      0.74347394E-08     -0.11397515E-20
    0.100480724553         0.16512144E-07      0.11731159E+00     -0.48931387E-13      0.75073067E-08     -0.31313439E-20
    0.103620747195         0.17636269E-07      0.11437884E+00      0.49467968E-14      0.75810301E-08      0.32787372E-21
    0.106760769837         0.18806114E-07      0.11160571E+00      0.20907794E-13      0.76559013E-08      0.14342278E-20
    0.109900792479         0.20022721E-07      0.10897840E+00     -0.14321434E-13      0.77318824E-08     -0.10160880E-20
    0.113040815122         0.21287162E-07      0.10648893E+00     -0.56024574E-14      0.78092528E-08     -0.41085027E-21
    0.116180837764         0.22600547E-07      0.10412179E+00      0.32901106E-14      0.78876679E-08      0.24923986E-21
    0.119320860406         0.23964023E-07      0.10187476E+00     -0.26473843E-13      0.79676910E-08     -0.20705365E-20
    0.122460883048         0.25378770E-07      0.99731211E-01      0.22702744E-14      0.80487201E-08      0.18322051E-21
    0.125600905691         0.26846007E-07      0.97692503E-01      0.12269474E-13      0.81315007E-08      0.10212579E-20
    0.128740928333         0.28366986E-07      0.95742262E-01     -0.10028107E-13      0.82152880E-08     -0.86047463E-21
    0.131880950975         0.29943001E-07      0.93883772E-01      0.61862895E-15      0.83009218E-08      0.54697318E-22
    0.135020973618         0.31575378E-07      0.92101573E-01     -0.12716234E-14      0.83875845E-08     -0.11580529E-21
    0.138160996260         0.33265483E-07      0.90400342E-01     -0.17183144E-13      0.84761961E-08     -0.16111410E-20
    0.141301018902         0.35014721E-07      0.88765292E-01      0.79985682E-14      0.85658626E-08      0.77186291E-21
    0.144441041544         0.36824533E-07      0.87202333E-01      0.17274641E-13      0.86575954E-08      0.17150556E-20
    0.147581064187         0.38696400E-07      0.85697047E-01     -0.69678605E-14      0.87504086E-08     -0.71147872E-21
    0.150721086829         0.40631842E-07      0.84256460E-01     -0.61330173E-14      0.88454156E-08     -0.64385671E-21
    0.153861109471         0.42632417E-07      0.82866353E-01     -0.16235551E-13      0.89415305E-08     -0.17518651E-20
    0.157001132113         0.44699723E-07      0.81534708E-01     -0.24195770E-13      0.90399725E-08     -0.26826501E-20
    0.160141154756         0.46835399E-07      0.80247404E-01      0.37766773E-15      0.91395497E-08      0.43013392E-22
    0.163281177398         0.49041122E-07      0.79013318E-01     -0.15779810E-14      0.92415990E-08     -0.18456467E-21
    0.166421200040         0.51318613E-07      0.77818281E-01     -0.17045939E-13      0.93448091E-08     -0.20469618E-20
    0.169561222683         0.53669630E-07      0.76672039E-01     -0.15468446E-14      0.94506487E-08     -0.19066513E-21
    0.172701245325         0.56095974E-07      0.75560280E-01      0.52503652E-14      0.95576765E-08      0.66412263E-21
    0.175841267967         0.58599489E-07      0.74493490E-01     -0.79546187E-14      0.96674935E-08     -0.10323214E-20
    0.178981290609         0.61182058E-07      0.73457327E-01     -0.10085092E-13      0.97785421E-08     -0.13425141E-20
    0.182121313252         0.63845608E-07      0.72462839E-01      0.35627461E-14      0.98925474E-08      0.48638220E-21
    0.185261335894         0.66592107E-07      0.71495502E-01     -0.58354848E-14      0.10007814E-07     -0.81684085E-21
    0.188401358536         0.69423567E-07      0.70567212E-01     -0.83396611E-14      0.10126244E-07     -0.11967236E-20
    0.191541381178         0.72342043E-07      0.69662866E-01     -0.79664756E-14      0.10245945E-07     -0.11717013E-20
    0.194681403821         0.75349631E-07      0.68795413E-01     -0.11600448E-13      0.10369043E-07     -0.17484530E-20
    0.197821426463         0.78448474E-07      0.67949016E-01     -0.36972009E-14      0.10493416E-07     -0.57096142E-21
    0.200961449105         0.81640757E-07      0.67137734E-01     -0.29423819E-14      0.10621442E-07     -0.46549589E-21
    0.204101471747         0.84928709E-07      0.66344885E-01     -0.59699356E-14      0.10750740E-07     -0.96738773E-21
    0.207241494390         0.88314602E-07      0.65585703E-01     -0.11987734E-14      0.10883975E-07     -0.19893694E-21
    0.210381517032         0.91800755E-07      0.64842538E-01      0.23536160E-14      0.11018468E-07      0.39994183E-21
    0.213521539674         0.95389531E-07      0.64131911E-01     -0.31618439E-14      0.11157213E-07     -0.55007511E-21
    0.216661562317         0.99083337E-07      0.63435040E-01     -0.42917165E-14      0.11297192E-07     -0.76431489E-21
    0.219801584959         0.10288463E-06      0.62769865E-01     -0.18151735E-15      0.11441775E-07     -0.33087225E-22
    0.222941607601         0.10679590E-06      0.62116298E-01     -0.57444941E-14      0.11587548E-07     -0.10716125E-20
    0.226081630243         0.11081969E-06      0.61493864E-01     -0.43344571E-14      0.11738321E-07     -0.82738741E-21
    0.229221652886         0.11495860E-06      0.60880975E-01     -0.65436560E-14      0.11890222E-07     -0.12779940E-20
    0.232361675528         0.11921526E-06      0.60298907E-01     -0.62298102E-14      0.12047566E-07     -0.12447000E-20
    0.235501698170         0.12359235E-06      0.59724368E-01     -0.37347740E-14      0.12205951E-07     -0.76328091E-21
    0.238641720812         0.12809259E-06      0.59180592E-01     -0.85082183E-15      0.12370279E-07     -0.17784383E-21
    0.241781743455         0.13271877E-06      0.58642357E-01     -0.32872471E-14      0.12535533E-07     -0.70268993E-21
    0.244921766097         0.13747370E-06      0.58135073E-01     -0.18637678E-14      0.12707291E-07     -0.40738645E-21
    0.248061788739         0.14236024E-06      0.57631325E-01     -0.34625237E-14      0.12879826E-07     -0.77382746E-21
    0.251201811381         0.14738131E-06      0.57158967E-01     -0.10231288E-13      0.13059501E-07     -0.23376124E-20
    0.254341834024         0.15253987E-06      0.56688107E-01     -0.76633612E-14      0.13239759E-07     -0.17898121E-20
    0.257481856666         0.15783893E-06      0.56249336E-01     -0.61920558E-14      0.13427880E-07     -0.14781718E-20
    0.260621879308         0.16328153E-06      0.55809957E-01     -0.72020684E-14      0.13616341E-07     -0.17571384E-20
    0.263761901951         0.16887077E-06      0.55403626E-01     -0.33392517E-14      0.13813482E-07     -0.83255729E-21
    0.266901924593         0.17460981E-06      0.54994481E-01     -0.21916170E-15      0.14010660E-07     -0.55834691E-22
    0.270041947235         0.18050182E-06      0.54619641E-01     -0.59011867E-14      0.14217451E-07     -0.15360744E-20
    0.273181969877         0.18655005E-06      0.54239648E-01     -0.42769795E-14      0.14423901E-07     -0.11373733E-20
    0.276321992520         0.19275778E-06      0.53895514E-01     -0.15346590E-14      0.14641030E-07     -0.41689903E-21
    0.279462015162         0.19912834E-06      0.53543725E-01     -0.50290111E-14      0.14857352E-07     -0.13954537E-20
    0.282602037804         0.20566511E-06      0.53229690E-01     -0.28472116E-14      0.15085573E-07     -0.80691469E-21
    0.285742060446         0.21237151E-06      0.52905286E-01     -0.55830195E-14      0.15312415E-07     -0.16158973E-20
    0.288882083089         0.21925100E-06      0.52620905E-01     -0.98906168E-14      0.15552558E-07     -0.29232563E-20
    0.292022105731         0.22630710E-06      0.52323185E-01     -0.44635779E-14      0.15790619E-07     -0.13470636E-20
    0.295162128373         0.23354337E-06      0.52068170E-01     -0.23892462E-15      0.16043598E-07     -0.73619075E-22
    0.298302151016         0.24096340E-06      0.51796538E-01     -0.21983122E-14      0.16293635E-07     -0.69152299E-21
    0.301442173658         0.24857086E-06      0.51570767E-01      0.19319366E-15      0.16560458E-07      0.62038546E-22
    0.304582196300         0.25636942E-06      0.51324723E-01     -0.42976470E-14      0.16823288E-07     -0.14086886E-20
    0.307722218942         0.26436283E-06      0.51128239E-01     -0.56793320E-14      0.17105073E-07     -0.19000339E-20
    0.310862241585         0.27255487E-06      0.50907383E-01     -0.74254420E-15      0.17381581E-07     -0.25353086E-21
    0.314002264227         0.28094936E-06      0.50740399E-01      0.84277355E-16      0.17679569E-07      0.29364912E-22
    0.317142286869         0.28955016E-06      0.50544408E-01     -0.34281380E-14      0.17970713E-07     -0.12188506E-20
    0.320282309511         0.29836118E-06      0.50407325E-01     -0.46230575E-14      0.18286289E-07     -0.16771087E-20
    0.323422332154         0.30738639E-06      0.50235950E-01     -0.47436308E-14      0.18593099E-07     -0.17556909E-20
    0.326562354796         0.31662976E-06      0.50129362E-01     -0.85384357E-14      0.18927809E-07     -0.32239364E-20
    0.329702377438         0.32609534E-06      0.49982427E-01     -0.34039609E-15      0.19251403E-07     -0.13110813E-21
    0.332842400080         0.33578719E-06      0.49907144E-01      0.11190657E-14      0.19606982E-07      0.43964650E-21
    0.335982422723         0.34570944E-06      0.49784528E-01     -0.26206911E-14      0.19948563E-07     -0.10501058E-20
    0.339122445365         0.35586624E-06      0.49741595E-01     -0.52365347E-14      0.20326963E-07     -0.21399162E-20
    0.342262468007         0.36626178E-06      0.49643236E-01     -0.28424217E-14      0.20687830E-07     -0.11845226E-20
    0.345402490650         0.37690029E-06      0.49633945E-01     -0.62719464E-14      0.21091251E-07     -0.26651759E-20
    0.348542513292         0.38778604E-06      0.49559811E-01     -0.34670271E-14      0.21472796E-07     -0.15021600E-20
    0.351682535934         0.39892335E-06      0.49585779E-01     -0.58911199E-14      0.21903743E-07     -0.26023102E-20
    0.354822558576         0.41031655E-06      0.49535834E-01     -0.55141767E-14      0.22307445E-07     -0.24831962E-20
    0.357962581219         0.42197002E-06      0.49599020E-01      0.00000000E+00      0.22768772E-07      0.00000000E+00
    0.361102603861         0.43388818E-06      0.49573226E-01     -0.29911002E-14      0.23196204E-07     -0.13995896E-20
    0.364242626503         0.44607547E-06      0.49675984E-01     -0.56872412E-14      0.23691175E-07     -0.27123252E-20
    0.367382649145         0.45853638E-06      0.49674249E-01      0.98026870E-15      0.24143988E-07      0.47645603E-21
    0.370522671788         0.47127541E-06      0.49819405E-01     -0.39796223E-14      0.24676359E-07     -0.19711714E-20
    0.373662694430         0.48429711E-06      0.49841538E-01     -0.44216831E-14      0.25156262E-07     -0.22317333E-20
    0.376802717072         0.49760605E-06      0.50032471E-01     -0.30946479E-14      0.25730376E-07     -0.15914955E-20
    0.379942739715         0.51120685E-06      0.50078094E-01     -0.45482313E-14      0.26239095E-07     -0.23831073E-20
    0.383082762357         0.52510413E-06      0.50318848E-01     -0.44783994E-14      0.26860003E-07     -0.23905520E-20
    0.386222784999         0.53930256E-06      0.50387309E-01     -0.44966351E-14      0.27399226E-07     -0.24451459E-20
    0.389362807641         0.55380682E-06      0.50682714E-01     -0.36229702E-14      0.28072833E-07     -0.20067402E-20
    0.392502830284         0.56862162E-06      0.50772915E-01     -0.72738854E-14      0.28644102E-07     -0.41036430E-20
    0.395642852926         0.58375171E-06      0.51128752E-01     -0.17189264E-14      0.29377347E-07     -0.98765365E-21
    0.398782875568         0.59920184E-06      0.51238948E-01     -0.11945322E-14      0.29981916E-07     -0.69896762E-21
    0.401922898210         0.61497679E-06      0.51662153E-01     -0.23627696E-14      0.30783006E-07     -0.14078614E-20
    0.405062920853         0.63108138E-06      0.51789557E-01      0.17042172E-15      0.31421551E-07      0.10339758E-21
    0.408202943495         0.64752043E-06      0.52288449E-01     -0.34293360E-14      0.32300232E-07     -0.21184095E-20
    0.411342966137         0.66429877E-06      0.52428829E-01     -0.38445653E-14      0.32972515E-07     -0.24178489E-20
    0.414482988779         0.68142128E-06      0.53013269E-01     -0.18734272E-15      0.33940333E-07     -0.11994119E-21
    0.417623011422         0.69889282E-06      0.53160155E-01     -0.16119641E-14      0.34644551E-07     -0.10505194E-20
    0.420763034064         0.71671828E-06      0.53841721E-01     -0.29653690E-14      0.35715142E-07     -0.19670355E-20
    0.423903056706         0.73490258E-06      0.53985357E-01     -0.22544074E-15      0.36446997E-07     -0.15220123E-21
    0.427043079349         0.75345064E-06      0.54777008E-01     -0.57546986E-15      0.37636044E-07     -0.39539233E-21
    0.430183101991         0.77236737E-06      0.54902906E-01     -0.33575279E-14      0.38387377E-07     -0.23475386E-20
    0.433323124633         0.79165771E-06      0.55817273E-01     -0.60923313E-15      0.39711541E-07     -0.43344264E-21
    0.436463147275         0.81132662E-06      0.55904792E-01     -0.46050538E-14      0.40468744E-07     -0.33335379E-20
    0.439603169918         0.83137904E-06      0.56947771E-01     -0.63008974E-14      0.41940879E-07     -0.46404832E-20
    0.442743192560         0.85181993E-06      0.56971529E-01     -0.22168975E-14      0.42685102E-07     -0.16609787E-20
    0.445883215202         0.87265424E-06      0.58118286E-01     -0.44063882E-14      0.44295175E-07     -0.33583533E-20
    0.449023237844         0.89388696E-06      0.58069486E-01     -0.36256627E-14      0.45017804E-07     -0.28107597E-20
    0.452163260487         0.91552302E-06      0.59162510E-01     -0.17771219E-14      0.46649085E-07     -0.14012440E-20
    0.455303283129         0.93756741E-06      0.59204600E-01     -0.41652627E-14      0.47476612E-07     -0.33401553E-20
    0.458443305771         0.96002506E-06      0.59376592E-01     -0.44062657E-14      0.48421110E-07     -0.35932726E-20
    0.461583328413         0.98290095E-06      0.61272453E-01     -0.14583627E-14      0.50809796E-07     -0.12093381E-20
    0.464723351056         0.10062000E-05      0.53188101E-01     -0.16304932E-14      0.44846324E-07     -0.13747742E-20
    0.467863373698         0.10299272E-05      0.89766732E-01     -0.28175600E-14      0.76952979E-07     -0.24153674E-20
    0.471003396340         0.10540874E-05     -0.11785753E+00      0.27942356E-14     -0.10271467E-06      0.24352197E-20
    0.474143418983         0.10786856E-05     -0.21233853E-01      0.53499197E-15     -0.18812067E-07      0.47397449E-21
    0.477283441625         0.11037267E-05      0.16326357E+00     -0.87443912E-15      0.14702697E-06     -0.78747594E-21
    0.480423464267         0.11292155E-05      0.73136317E-01     -0.25592837E-14      0.66943475E-07     -0.23425755E-20
    0.483563486909         0.11551570E-05      0.95936176E-01     -0.25964093E-14      0.89246759E-07     -0.24153674E-20
    0.486703509552         0.11815559E-05      0.82756561E-01     -0.32548496E-14      0.78237469E-07     -0.30771119E-20
    0.489843532194         0.12084172E-05      0.91311024E-01      0.13707597E-14      0.87721346E-07      0.13168715E-20
    0.492983554836         0.12357457E-05      0.86904110E-01      0.17862891E-14      0.84831966E-07      0.17436967E-20
    0.496123577478         0.12635461E-05      0.93808441E-01      0.47038742E-15      0.93039137E-07      0.46652987E-21
    0.499263600121         0.12918231E-05      0.91275144E-01      0.91943847E-15      0.91970432E-07      0.92644229E-21
    0.502403622763         0.13205817E-05      0.98940942E-01     -0.36170573E-14      0.10127706E-06     -0.37024604E-20
    0.505543645405         0.13498263E-05      0.96160711E-01     -0.38058331E-14      0.99986057E-07     -0.39572321E-20
    0.508683668048         0.13795618E-05      0.10593785E+00     -0.83648026E-14      0.11188376E-06     -0.88342889E-20
