 
 # Omega; pulse ft; projected flux at t=    1000.25000000000     
    0.000000000000         0.18717486E-09      0.00000000E+00      0.00000000E+00      0.11804396E-10     -0.16543612E-23
    0.003140022642         0.20186436E-09      0.45244937E-03     -0.30433171E-15      0.11327118E-10     -0.76189764E-23
    0.006280045285         0.24594737E-09      0.70968287E-03     -0.81875865E-15      0.10823464E-10     -0.12486993E-22
    0.009420067927         0.31946741E-09      0.81284318E-03     -0.52777555E-16      0.10734995E-10     -0.69701856E-24
    0.012560090569         0.42249703E-09      0.82103209E-03      0.63608652E-16      0.10755078E-10      0.83323906E-24
    0.015700113211         0.55513782E-09      0.78290225E-03     -0.13135171E-14      0.10780232E-10     -0.18086574E-22
    0.018840135854         0.71752051E-09      0.72927858E-03     -0.14973686E-14      0.10815990E-10     -0.22207596E-22
    0.021980158496         0.90980495E-09      0.67328174E-03      0.14110265E-16      0.10852676E-10      0.22744438E-24
    0.025120181138         0.11321802E-08      0.62029748E-03     -0.44691101E-15      0.10887179E-10     -0.78439785E-23
    0.028260203780         0.13848647E-08      0.57218963E-03     -0.15704076E-15      0.10919294E-10     -0.29968636E-23
    0.031400226423         0.16681061E-08      0.53007738E-03      0.10120966E-15      0.10966112E-10      0.20938009E-23
    0.034540249065         0.19821816E-08      0.49253933E-03     -0.13421563E-15      0.11007316E-10     -0.29994637E-23
    0.037680271707         0.23273981E-08      0.45953325E-03     -0.24115838E-15      0.11053406E-10     -0.58007151E-23
    0.040820294349         0.27040919E-08      0.43015825E-03     -0.79740974E-16      0.11096758E-10     -0.20570716E-23
    0.043960316992         0.31126296E-08      0.40410021E-03     -0.35280310E-15      0.11142387E-10     -0.97279550E-23
    0.047100339634         0.35534072E-08      0.38074600E-03     -0.15176664E-15      0.11186104E-10     -0.44588185E-23
    0.050240362276         0.40268513E-08      0.35986014E-03      0.83058767E-17      0.11232311E-10      0.25925125E-24
    0.053380384919         0.45334185E-08      0.34095771E-03     -0.32812787E-15      0.11276314E-10     -0.10852000E-22
    0.056520407561         0.50735959E-08      0.32392726E-03     -0.72502167E-16      0.11323499E-10     -0.25344523E-23
    0.059660430203         0.56479014E-08      0.30833904E-03     -0.40758600E-16      0.11367155E-10     -0.15025970E-23
    0.062800452845         0.62568834E-08      0.29424216E-03     -0.23218172E-15      0.11416231E-10     -0.90083624E-23
    0.065940475488         0.69011217E-08      0.28109007E-03     -0.16723874E-15      0.11456070E-10     -0.68159602E-23
    0.069080498130         0.75812269E-08      0.26961716E-03      0.70547086E-16      0.11522696E-10      0.30149885E-23
    0.072220520772         0.82978416E-08      0.25847397E-03     -0.25726718E-15      0.11564953E-10     -0.11510957E-22
    0.075360543414         0.90516395E-08      0.24817720E-03     -0.11302195E-15      0.11608274E-10     -0.52865040E-23
    0.078500566057         0.98433265E-08      0.23932578E-03     -0.49467076E-16      0.11686410E-10     -0.24155047E-23
    0.081640588699         0.10673641E-07      0.23026558E-03     -0.28534070E-15      0.11723520E-10     -0.14527561E-22
    0.084780611341         0.11543353E-07      0.22200673E-03     -0.12892618E-17      0.11771291E-10     -0.68359531E-25
    0.087920633984         0.12453265E-07      0.21422387E-03     -0.60455840E-16      0.11816336E-10     -0.33346728E-23
    0.091060656626         0.13404215E-07      0.20700847E-03     -0.86627734E-16      0.11866462E-10     -0.49658100E-23
    0.094200679268         0.14397070E-07      0.20010900E-03     -0.11033202E-15      0.11909931E-10     -0.65666549E-23
    0.097340701910         0.15432734E-07      0.19366766E-03      0.53574341E-16      0.11957161E-10      0.33077127E-23
    0.100480724553         0.16512144E-07      0.18764217E-03     -0.14192177E-15      0.12008083E-10     -0.90822250E-23
    0.103620747195         0.17636269E-07      0.18188134E-03     -0.29750366E-15      0.12055096E-10     -0.19718544E-22
    0.106760769837         0.18806114E-07      0.17650638E-03     -0.19103441E-15      0.12107942E-10     -0.13104532E-22
    0.109900792479         0.20022721E-07      0.17137806E-03     -0.33107022E-15      0.12159061E-10     -0.23489021E-22
    0.113040815122         0.21287162E-07      0.16651524E-03     -0.39127636E-16      0.12211218E-10     -0.28693837E-23
    0.116180837764         0.22600547E-07      0.16188321E-03      0.43851667E-16      0.12263341E-10      0.33219501E-23
    0.119320860406         0.23964023E-07      0.15747730E-03     -0.44327058E-16      0.12316402E-10     -0.34668480E-23
    0.122460883048         0.25378770E-07      0.15326657E-03     -0.77716129E-16      0.12369244E-10     -0.62720122E-23
    0.125600905691         0.26846007E-07      0.14925995E-03      0.45661540E-17      0.12423751E-10      0.38006687E-24
    0.128740928333         0.28366986E-07      0.14541578E-03     -0.34268696E-16      0.12477588E-10     -0.29404696E-23
    0.131880950975         0.29943001E-07      0.14175299E-03     -0.44126602E-16      0.12533375E-10     -0.39015420E-23
    0.135020973618         0.31575378E-07      0.13822958E-03      0.48042902E-17      0.12588409E-10      0.43752119E-24
    0.138160996260         0.33265483E-07      0.13486358E-03     -0.35294654E-16      0.12645197E-10     -0.33093283E-23
    0.141301018902         0.35014721E-07      0.13162099E-03     -0.67582511E-16      0.12701444E-10     -0.65217214E-23
    0.144441041544         0.36824533E-07      0.12851423E-03     -0.69867093E-16      0.12759111E-10     -0.69365234E-23
    0.147581064187         0.38696400E-07      0.12551841E-03     -0.37674726E-16      0.12816513E-10     -0.38469149E-23
    0.150721086829         0.40631842E-07      0.12264036E-03     -0.19588497E-16      0.12875036E-10     -0.20564405E-23
    0.153861109471         0.42632417E-07      0.11986251E-03      0.10039117E-16      0.12933527E-10      0.10832512E-23
    0.157001132113         0.44699723E-07      0.11718749E-03     -0.29028352E-16      0.12992892E-10     -0.32184515E-23
    0.160141154756         0.46835399E-07      0.11460319E-03      0.31360011E-16      0.13052404E-10      0.35716593E-23
    0.163281177398         0.49041122E-07      0.11210937E-03     -0.53196772E-17      0.13112598E-10     -0.62220299E-24
    0.166421200040         0.51318613E-07      0.10969772E-03      0.56976399E-17      0.13173052E-10      0.68420115E-24
    0.169561222683         0.53669630E-07      0.10736670E-03     -0.39940534E-16      0.13234093E-10     -0.49230979E-23
    0.172701245325         0.56095974E-07      0.10511003E-03     -0.26836354E-16      0.13295447E-10     -0.33945505E-23
    0.175841267967         0.58599489E-07      0.10292492E-03     -0.46094016E-16      0.13357221E-10     -0.59819133E-23
    0.178981290609         0.61182058E-07      0.10080972E-03      0.27062749E-16      0.13419656E-10      0.36025574E-23
    0.182121313252         0.63845608E-07      0.98755959E-04      0.14598921E-16      0.13482055E-10      0.19930287E-23
    0.185261335894         0.66592107E-07      0.96768584E-04     -0.20894810E-16      0.13545495E-10     -0.29248186E-23
    0.188401358536         0.69423567E-07      0.94835563E-04     -0.17053986E-16      0.13608701E-10     -0.24472106E-23
    0.191541381178         0.72342043E-07      0.92964085E-04     -0.47764659E-16      0.13673065E-10     -0.70251787E-23
    0.194681403821         0.75349631E-07      0.91141774E-04     -0.50172602E-16      0.13737151E-10     -0.75621595E-23
    0.197821426463         0.78448474E-07      0.89376089E-04     -0.30118846E-16      0.13802414E-10     -0.46512754E-23
    0.200961449105         0.81640757E-07      0.87655459E-04      0.10768623E-16      0.13867424E-10      0.17036366E-23
    0.204101471747         0.84928709E-07      0.85987070E-04     -0.68045924E-18      0.13933624E-10     -0.11026382E-24
    0.207241494390         0.88314602E-07      0.84360009E-04     -0.79665673E-16      0.13999579E-10     -0.13220551E-22
    0.210381517032         0.91800755E-07      0.82781320E-04     -0.32564589E-16      0.14066743E-10     -0.55335879E-23
    0.213521539674         0.95389531E-07      0.81240682E-04     -0.12667852E-16      0.14133676E-10     -0.22038628E-23
    0.216661562317         0.99083337E-07      0.79744900E-04     -0.51474008E-16      0.14201827E-10     -0.91670433E-23
    0.219801584959         0.10288463E-06      0.78284415E-04     -0.38656636E-16      0.14269788E-10     -0.70463833E-23
    0.222941607601         0.10679590E-06      0.76865490E-04     -0.60202583E-16      0.14338951E-10     -0.11230552E-22
    0.226081630243         0.11081969E-06      0.75479504E-04     -0.54356545E-16      0.14407985E-10     -0.10375906E-22
    0.229221652886         0.11495860E-06      0.74132077E-04      0.37404906E-16      0.14478199E-10      0.73052811E-23
    0.232361675528         0.11921526E-06      0.72815527E-04     -0.27249234E-16      0.14548355E-10     -0.54443267E-23
    0.235501698170         0.12359235E-06      0.71534752E-04     -0.11431346E-15      0.14619656E-10     -0.23362400E-22
    0.238641720812         0.12809259E-06      0.70283068E-04     -0.45103296E-16      0.14690984E-10     -0.94277587E-23
    0.241781743455         0.13271877E-06      0.69064596E-04     -0.75688217E-16      0.14763416E-10     -0.16179297E-22
    0.244921766097         0.13747370E-06      0.67873632E-04     -0.62118511E-16      0.14835967E-10     -0.13578000E-22
    0.248061788739         0.14236024E-06      0.66713497E-04     -0.30231732E-16      0.14909569E-10     -0.67563854E-23
    0.251201811381         0.14738131E-06      0.65579483E-04     -0.80168819E-16      0.14983394E-10     -0.18316719E-22
    0.254341834024         0.15253987E-06      0.64474089E-04     -0.93625143E-16      0.15058210E-10     -0.21866568E-22
    0.257481856666         0.15783893E-06      0.63393585E-04     -0.59966794E-16      0.15133360E-10     -0.14315314E-22
    0.260621879308         0.16328153E-06      0.62339634E-04     -0.96308700E-16      0.15209431E-10     -0.23497099E-22
    0.263761901951         0.16887077E-06      0.61309475E-04     -0.15752532E-16      0.15285955E-10     -0.39274923E-23
    0.266901924593         0.17460981E-06      0.60303982E-04      0.49098942E-17      0.15363334E-10      0.12508683E-23
    0.270041947235         0.18050182E-06      0.59321227E-04     -0.27386858E-16      0.15441270E-10     -0.71287782E-23
    0.273181969877         0.18655005E-06      0.58361436E-04     -0.21520072E-16      0.15520005E-10     -0.57228135E-23
    0.276321992520         0.19275778E-06      0.57423410E-04     -0.22135419E-16      0.15599403E-10     -0.60132153E-23
    0.279462015162         0.19912834E-06      0.56506756E-04     -0.62588698E-16      0.15679536E-10     -0.17367158E-22
    0.282602037804         0.20566511E-06      0.55610983E-04     -0.15468647E-16      0.15760444E-10     -0.43838957E-23
    0.285742060446         0.21237151E-06      0.54735099E-04      0.61471200E-17      0.15842019E-10      0.17791653E-23
    0.288882083089         0.21925100E-06      0.53879284E-04     -0.48755923E-16      0.15924483E-10     -0.14410229E-22
    0.292022105731         0.22630710E-06      0.53042012E-04     -0.36309076E-17      0.16007554E-10     -0.10957720E-23
    0.295162128373         0.23354337E-06      0.52224037E-04     -0.98835347E-17      0.16091624E-10     -0.30453817E-23
    0.298302151016         0.24096340E-06      0.51423340E-04     -0.47537516E-16      0.16176238E-10     -0.14953875E-22
    0.301442173658         0.24857086E-06      0.50641198E-04     -0.20115535E-16      0.16261954E-10     -0.64595213E-23
    0.304582196300         0.25636942E-06      0.49875142E-04     -0.46626978E-17      0.16348142E-10     -0.15283454E-23
    0.307722218942         0.26436283E-06      0.49127000E-04     -0.24971282E-16      0.16435553E-10     -0.83542011E-23
    0.310862241585         0.27255487E-06      0.48393831E-04     -0.42855468E-16      0.16523366E-10     -0.14632373E-22
    0.314002264227         0.28094936E-06      0.47678010E-04     -0.31893804E-16      0.16612536E-10     -0.11112816E-22
    0.317142286869         0.28955016E-06      0.46976022E-04     -0.49004753E-16      0.16701998E-10     -0.17423299E-22
    0.320282309511         0.29836118E-06      0.46290977E-04     -0.30648776E-16      0.16792999E-10     -0.11118471E-22
    0.323422332154         0.30738639E-06      0.45618538E-04     -0.11554394E-16      0.16884124E-10     -0.42764591E-23
    0.326562354796         0.31662976E-06      0.44962888E-04     -0.45224802E-16      0.16977055E-10     -0.17075948E-22
    0.329702377438         0.32609534E-06      0.44318339E-04     -0.26136239E-16      0.17069804E-10     -0.10066723E-22
    0.332842400080         0.33578719E-06      0.43690958E-04     -0.25259662E-16      0.17164833E-10     -0.99237440E-23
    0.335982422723         0.34570944E-06      0.43072829E-04     -0.32367339E-16      0.17259198E-10     -0.12969530E-22
    0.339122445365         0.35586624E-06      0.42471455E-04     -0.67910597E-17      0.17356012E-10     -0.27751748E-23
    0.342262468007         0.36626178E-06      0.41880883E-04      0.46812589E-18      0.17453024E-10      0.19508215E-24
    0.345402490650         0.37690029E-06      0.41302693E-04     -0.25841880E-16      0.17551002E-10     -0.10981146E-22
    0.348542513292         0.38778604E-06      0.40736836E-04     -0.20954104E-16      0.17650063E-10     -0.90787919E-23
    0.351682535934         0.39892335E-06      0.40183563E-04     -0.23164883E-16      0.17750461E-10     -0.10232725E-22
    0.354822558576         0.41031655E-06      0.39640130E-04     -0.29764250E-16      0.17851118E-10     -0.13403719E-22
    0.357962581219         0.42197002E-06      0.39110310E-04     -0.30264749E-16      0.17953858E-10     -0.13893242E-22
    0.361102603861         0.43388818E-06      0.38588765E-04     -0.14204467E-16      0.18056378E-10     -0.66465255E-23
    0.364242626503         0.44607547E-06      0.38081063E-04     -0.20826029E-16      0.18161394E-10     -0.99322258E-23
    0.367382649145         0.45853638E-06      0.37580532E-04     -0.17218821E-16      0.18265881E-10     -0.83691453E-23
    0.370522671788         0.47127541E-06      0.37093926E-04     -0.21058537E-16      0.18373222E-10     -0.10430634E-22
    0.373662694430         0.48429711E-06      0.36613476E-04     -0.19339198E-16      0.18479731E-10     -0.97609736E-23
    0.376802717072         0.49760605E-06      0.36147082E-04     -0.13048980E-16      0.18589488E-10     -0.67107451E-23
    0.379942739715         0.51120685E-06      0.35685747E-04     -0.19877113E-16      0.18698030E-10     -0.10414882E-22
    0.383082762357         0.52510413E-06      0.35238711E-04     -0.21258081E-16      0.18810285E-10     -0.11347480E-22
    0.386222784999         0.53930256E-06      0.34795562E-04     -0.20100048E-16      0.18920865E-10     -0.10929851E-22
    0.389362807641         0.55380682E-06      0.34367161E-04     -0.16964006E-16      0.19035752E-10     -0.93962548E-23
    0.392502830284         0.56862162E-06      0.33941277E-04     -0.90192179E-17      0.19148348E-10     -0.50882917E-23
    0.395642852926         0.58375171E-06      0.33530839E-04     -0.85928327E-17      0.19266011E-10     -0.49372343E-23
    0.398782875568         0.59920184E-06      0.33121289E-04     -0.15160819E-16      0.19380564E-10     -0.88711890E-23
    0.401922898210         0.61497679E-06      0.32728187E-04     -0.12883166E-16      0.19501161E-10     -0.76764623E-23
    0.405062920853         0.63108138E-06      0.32334072E-04     -0.22638129E-16      0.19617598E-10     -0.13734914E-22
    0.408202943495         0.64752043E-06      0.31957800E-04     -0.37213874E-16      0.19741346E-10     -0.22988189E-22
    0.411342966137         0.66429877E-06      0.31578094E-04     -0.21023939E-16      0.19859478E-10     -0.13221965E-22
    0.414482988779         0.68142128E-06      0.31218232E-04     -0.38088057E-16      0.19986642E-10     -0.24384864E-22
    0.417623011422         0.69889282E-06      0.30851778E-04     -0.37844864E-16      0.20106149E-10     -0.24663553E-22
    0.420763034064         0.71671828E-06      0.30507909E-04     -0.41653983E-16      0.20236988E-10     -0.27630579E-22
    0.423903056706         0.73490258E-06      0.30153319E-04      0.11303385E-16      0.20357333E-10      0.76312258E-23
    0.427043079349         0.75345064E-06      0.29825098E-04     -0.61206690E-17      0.20492151E-10     -0.42053733E-23
    0.430183101991         0.77236737E-06      0.29480648E-04      0.20588039E-17      0.20612475E-10      0.14394881E-23
    0.433323124633         0.79165771E-06      0.29167865E-04     -0.26557212E-17      0.20751656E-10     -0.18894292E-23
    0.436463147275         0.81132662E-06      0.28831071E-04     -0.20206923E-16      0.20870433E-10     -0.14627526E-22
    0.439603169918         0.83137904E-06      0.28534060E-04     -0.14982707E-16      0.21014757E-10     -0.11034460E-22
    0.442743192560         0.85181993E-06      0.28200805E-04     -0.22147498E-16      0.21129049E-10     -0.16593695E-22
    0.445883215202         0.87265424E-06      0.27919215E-04     -0.18960196E-16      0.21278785E-10     -0.14450619E-22
    0.449023237844         0.89388696E-06      0.27581264E-04     -0.28305692E-16      0.21382106E-10     -0.21943712E-22
    0.452163260487         0.91552302E-06      0.27311736E-04     -0.13371524E-16      0.21535048E-10     -0.10543322E-22
    0.455303283129         0.93756741E-06      0.26949644E-04     -0.16245374E-16      0.21611121E-10     -0.13027287E-22
    0.458443305771         0.96002506E-06      0.26675378E-04     -0.11897620E-16      0.21753546E-10     -0.97024085E-23
    0.461583328413         0.98290095E-06      0.26228102E-04     -0.76401243E-17      0.21749489E-10     -0.63355249E-23
    0.464723351056         0.10062000E-05      0.25779556E-04     -0.38254923E-17      0.21736409E-10     -0.32255197E-23
    0.467863373698         0.10299272E-05      0.25037537E-04     -0.12315894E-16      0.21463553E-10     -0.10557862E-22
    0.471003396340         0.10540874E-05      0.20136284E-04     -0.48615051E-17      0.17549085E-10     -0.42368773E-23
    0.474143418983         0.10786856E-05      0.22011671E-04     -0.10678832E-16      0.19501172E-10     -0.94608783E-23
    0.477283441625         0.11037267E-05      0.25288995E-04     -0.21778275E-16      0.22773998E-10     -0.19612420E-22
    0.480423464267         0.11292155E-05      0.24341647E-04     -0.37560109E-17      0.22280510E-10     -0.34379694E-23
    0.483563486909         0.11551570E-05      0.24788143E-04     -0.15136921E-16      0.23059721E-10     -0.14081457E-22
    0.486703509552         0.11815559E-05      0.24399269E-04     -0.16663537E-16      0.23066897E-10     -0.15753590E-22
    0.489843532194         0.12084172E-05      0.24367356E-04     -0.81192435E-17      0.23409411E-10     -0.78000547E-23
    0.492983554836         0.12357457E-05      0.24057000E-04     -0.13695540E-16      0.23483384E-10     -0.13368984E-22
    0.496123577478         0.12635461E-05      0.23931942E-04     -0.14873090E-16      0.23735681E-10     -0.14751118E-22
    0.499263600121         0.12918231E-05      0.23635415E-04     -0.23773218E-16      0.23815458E-10     -0.23954310E-22
    0.502403622763         0.13205817E-05      0.23483285E-04     -0.24469500E-16      0.24037754E-10     -0.25047255E-22
    0.505543645405         0.13498263E-05      0.23167243E-04     -0.28277959E-16      0.24088854E-10     -0.29402878E-22
    0.508683668048         0.13795618E-05      0.23003335E-04     -0.11859988E-16      0.24294430E-10     -0.12525647E-22
