 
 # Omega; pulse ft; proj flux t=    1000.25000000000     
    0.000000000000         0.32818054E-12      0.00000000E+00      0.00000000E+00      0.00000000E+00      0.00000000E+00      0.00000000E+00      0.00000000E+00
    0.003140807452         0.15084240E-10      0.64941058E-01      0.50742363E-11      0.19330547E-10      0.15104122E-20      0.60713527E-13      0.47439138E-23
    0.006281614903         0.59367197E-10      0.87463719E-01      0.48494112E-11      0.51232536E-10      0.28405794E-20      0.22162506E-12      0.13665627E-22
    0.009422422355         0.13322140E-09      0.70072057E-01     -0.13543892E-11      0.61404326E-10     -0.11868548E-20      0.41448422E-12      0.99379443E-23
    0.012563229807         0.23672078E-09      0.53977881E-01      0.10455757E-11      0.63036717E-10      0.12210494E-20      0.61247041E-12      0.13773025E-22
    0.015704037259         0.36996889E-09      0.44300589E-01      0.12373914E-11      0.64685369E-10      0.18067733E-20      0.81563470E-12      0.19447752E-22
    0.018844844710         0.53309892E-09      0.37513206E-01     -0.44959779E-12      0.65772159E-10     -0.78828286E-21      0.10222124E-11      0.16971908E-22
    0.021985652162         0.72627381E-09      0.32663812E-01      0.32855306E-12      0.66876044E-10      0.67268109E-21      0.12322572E-11      0.19084669E-22
    0.025126459614         0.94968623E-09      0.28956871E-01      0.30847356E-12      0.67833331E-10      0.72261914E-21      0.14453086E-11      0.21354277E-22
    0.028267267066         0.12035587E-08      0.26074478E-01      0.68521234E-12      0.68808449E-10      0.18082202E-20      0.16614227E-11      0.27033549E-22
    0.031408074517         0.14881438E-08      0.23765279E-01      0.94085858E-12      0.69789356E-10      0.27629347E-20      0.18806176E-11      0.35711394E-22
    0.034548881969         0.18037240E-08      0.21876998E-01      0.55527538E-12      0.70789118E-10      0.17967481E-20      0.21029526E-11      0.41354634E-22
    0.037689689421         0.21506121E-08      0.20299175E-01      0.50522491E-12      0.71789443E-10      0.17867630E-20      0.23284294E-11      0.46966513E-22
    0.040830496872         0.25291509E-08      0.18965146E-01      0.34027536E-12      0.72809649E-10      0.13063611E-20      0.25571105E-11      0.51069542E-22
    0.043971304324         0.29397140E-08      0.17818035E-01      0.24060354E-12      0.73830910E-10      0.99696618E-21      0.27889992E-11      0.54200820E-22
    0.047112111776         0.33827052E-08      0.16824879E-01     -0.52864500E-14      0.74873168E-10     -0.23525474E-22      0.30241614E-11      0.54126931E-22
    0.050252919228         0.38585594E-08      0.15954471E-01      0.65928229E-14      0.75925732E-10      0.31374584E-22      0.32626295E-11      0.54225473E-22
    0.053393726679         0.43677419E-08      0.15187423E-01      0.38962827E-13      0.77000493E-10      0.19754219E-21      0.35044732E-11      0.54845915E-22
    0.056534534131         0.49107496E-08      0.14505396E-01     -0.26966581E-13      0.78091944E-10     -0.14517858E-21      0.37497450E-11      0.54389937E-22
    0.059675341583         0.54881104E-08      0.13896073E-01      0.27088501E-13      0.79206838E-10      0.15440294E-21      0.39985184E-11      0.54874887E-22
    0.062816149035         0.61003835E-08      0.13347820E-01     -0.83958950E-13      0.80341299E-10     -0.50535376E-21      0.42508550E-11      0.53287668E-22
    0.065956956486         0.67481601E-08      0.12852674E-01      0.66622050E-14      0.81500627E-10      0.42245985E-22      0.45068327E-11      0.53420355E-22
    0.069097763938         0.74320630E-08      0.12403454E-01     -0.14749140E-13      0.82685757E-10     -0.98322921E-22      0.47665328E-11      0.53111541E-22
    0.072238571390         0.81527474E-08      0.11994141E-01     -0.12218733E-13      0.83897048E-10     -0.85468030E-22      0.50300373E-11      0.52843103E-22
    0.075379378841         0.89109006E-08      0.11618113E-01      0.35948608E-13      0.85123079E-10      0.26338668E-21      0.52973925E-11      0.53670349E-22
    0.078520186293         0.97072426E-08      0.11273071E-01     -0.23820658E-13      0.86377267E-10     -0.18252022E-21      0.55686868E-11      0.53097089E-22
    0.081660993745         0.10542526E-07      0.10958909E-01      0.45019316E-13      0.87687974E-10      0.36022314E-21      0.58440979E-11      0.54228480E-22
    0.084801801197         0.11417538E-07      0.10668844E-01      0.11478291E-13      0.89028161E-10      0.95782747E-22      0.61237182E-11      0.54529315E-22
    0.087942608648         0.12333096E-07      0.10402007E-01      0.22135530E-13      0.90413350E-10      0.19240013E-21      0.64076891E-11      0.55133607E-22
    0.091083416100         0.13290054E-07      0.10154357E-01      0.15870990E-13      0.91829571E-10      0.14352717E-21      0.66961081E-11      0.55584398E-22
    0.094224223552         0.14289299E-07      0.99229138E-02     -0.32107781E-13      0.93267484E-10     -0.30178756E-21      0.69890433E-11      0.54636542E-22
    0.097365031004         0.15331753E-07      0.97071992E-02      0.27862650E-13      0.94738262E-10      0.27192798E-21      0.72865979E-11      0.55490615E-22
    0.100505838455         0.16418370E-07      0.95019161E-02      0.21840902E-13      0.96203886E-10      0.22113221E-21      0.75887558E-11      0.56185149E-22
    0.103646645907         0.17550142E-07      0.93099803E-02     -0.19796649E-13      0.97705006E-10     -0.20775894E-21      0.78956284E-11      0.55532618E-22
    0.106787453359         0.18728094E-07      0.91275238E-02      0.11933129E-13      0.99213095E-10      0.12970908E-21      0.82072377E-11      0.55940009E-22
    0.109928260810         0.19953287E-07      0.89564713E-02     -0.54562159E-14      0.10075920E-09     -0.61381758E-22      0.85237029E-11      0.55747221E-22
    0.113069068262         0.21226819E-07      0.87949221E-02     -0.22218077E-13      0.10233302E-09     -0.25851769E-21      0.88451112E-11      0.54935267E-22
    0.116209875714         0.22549823E-07      0.86431293E-02     -0.45157985E-14      0.10394744E-09     -0.54309691E-22      0.91715901E-11      0.54764690E-22
    0.119350683166         0.23923468E-07      0.85002754E-02      0.38951987E-13      0.10560267E-09      0.48391772E-21      0.95032678E-11      0.56284583E-22
    0.122491490617         0.25348961E-07      0.83658001E-02     -0.22445521E-13      0.10730115E-09     -0.28789001E-21      0.98402800E-11      0.55380376E-22
    0.125632298069         0.26827544E-07      0.82396111E-02      0.17637754E-13      0.10905084E-09      0.23343478E-21      0.10182788E-10      0.56113549E-22
    0.128773105521         0.28360500E-07      0.81206507E-02     -0.94161738E-14      0.11084656E-09     -0.12853040E-21      0.10530935E-10      0.55709860E-22
    0.131913912973         0.29949146E-07      0.80086590E-02      0.25260836E-15      0.11269284E-09      0.35545468E-23      0.10884882E-10      0.55721024E-22
    0.135054720424         0.31594841E-07      0.79029953E-02     -0.13794721E-13      0.11458844E-09     -0.20001474E-21      0.11244782E-10      0.55092816E-22
    0.138195527876         0.33298978E-07      0.78031461E-02      0.14387143E-13      0.11653311E-09      0.21485929E-21      0.11610790E-10      0.55767648E-22
    0.141336335328         0.35062992E-07      0.77089080E-02     -0.65872673E-14      0.11853066E-09     -0.10128453E-21      0.11983072E-10      0.55449533E-22
    0.144477142779         0.36888357E-07      0.76197548E-02      0.53349890E-14      0.12057960E-09      0.84424087E-22      0.12361789E-10      0.55714693E-22
    0.147617950231         0.38776586E-07      0.75356247E-02     -0.16819883E-13      0.12268525E-09     -0.27383947E-21      0.12747120E-10      0.54854616E-22
    0.150758757683         0.40729231E-07      0.74560463E-02     -0.11052851E-13      0.12484609E-09     -0.18507197E-21      0.13139238E-10      0.54273340E-22
    0.153899565135         0.42747886E-07      0.73810015E-02     -0.14409174E-13      0.12706772E-09     -0.24806129E-21      0.13538333E-10      0.53494227E-22
    0.157040372586         0.44834184E-07      0.73100478E-02     -0.71325161E-14      0.12934833E-09     -0.12620698E-21      0.13944591E-10      0.53097836E-22
    0.160181180038         0.46989799E-07      0.72432349E-02     -0.16370908E-13      0.13169441E-09     -0.29765113E-21      0.14358218E-10      0.52162971E-22
    0.163321987490         0.49216447E-07      0.71801120E-02      0.35412267E-14      0.13410331E-09      0.66139667E-22      0.14779411E-10      0.52370703E-22
    0.166462794942         0.51515886E-07      0.71207955E-02     -0.77489837E-14      0.13658254E-09     -0.14863169E-21      0.15208390E-10      0.51903879E-22
    0.169603602393         0.53889915E-07      0.70648324E-02      0.12885977E-14      0.13912877E-09      0.25376544E-22      0.15645367E-10      0.51983582E-22
    0.172744409845         0.56340375E-07      0.70124089E-02     -0.11602605E-13      0.14175084E-09     -0.23453838E-21      0.16090579E-10      0.51246942E-22
    0.175885217297         0.58869149E-07      0.69630555E-02     -0.12542584E-13      0.14444448E-09     -0.26018851E-21      0.16544251E-10      0.50429740E-22
    0.179026024748         0.61478167E-07      0.69170215E-02     -0.13666517E-14      0.14721991E-09     -0.29087425E-22      0.17006641E-10      0.50338382E-22
    0.182166832200         0.64169396E-07      0.68738339E-02      0.89866226E-15      0.15007224E-09      0.19619947E-22      0.17477989E-10      0.50400005E-22
    0.185307639652         0.66944851E-07      0.68337908E-02     -0.23567425E-14      0.15301296E-09     -0.52768976E-22      0.17958573E-10      0.50234267E-22
    0.188448447104         0.69806589E-07      0.67964113E-02     -0.75852909E-15      0.15603649E-09     -0.17414811E-22      0.18448653E-10      0.50179571E-22
    0.191589254555         0.72756711E-07      0.67620401E-02      0.39917650E-14      0.15915575E-09      0.93952762E-22      0.18948531E-10      0.50474658E-22
    0.194730062007         0.75797365E-07      0.67301856E-02      0.11944084E-14      0.16236440E-09      0.28814868E-22      0.19458486E-10      0.50565160E-22
    0.197870869459         0.78930738E-07      0.67012344E-02     -0.35337950E-14      0.16567684E-09     -0.87367182E-22      0.19978845E-10      0.50290757E-22
    0.201011676911         0.82159069E-07      0.66746869E-02     -0.22382359E-14      0.16908606E-09     -0.56699959E-22      0.20509912E-10      0.50112673E-22
    0.204152484362         0.85484636E-07      0.66509646E-02     -0.14795302E-13      0.17260791E-09     -0.38397231E-21      0.21052040E-10      0.48906690E-22
    0.207293291814         0.88909765E-07      0.66295615E-02     -0.58208986E-14      0.17623481E-09     -0.15473798E-21      0.21605560E-10      0.48420688E-22
    0.210434099266         0.92436830E-07      0.66109317E-02     -0.19236555E-15      0.17998415E-09     -0.52371969E-23      0.22170855E-10      0.48404239E-22
    0.213574906717         0.96068246E-07      0.65945719E-02     -0.54229775E-14      0.18384800E-09     -0.15118549E-21      0.22748287E-10      0.47929394E-22
    0.216715714169         0.99806478E-07      0.65809560E-02     -0.39510101E-14      0.18784515E-09     -0.11277664E-21      0.23338272E-10      0.47575185E-22
    0.219856521621         0.10365403E-06      0.65695758E-02     -0.47840043E-14      0.19196712E-09     -0.13979161E-21      0.23941204E-10      0.47136126E-22
    0.222997329073         0.10761347E-06      0.65609335E-02     -0.10491632E-14      0.19623447E-09     -0.31379984E-22      0.24557539E-10      0.47037568E-22
    0.226138136524         0.11168740E-06      0.65545254E-02     -0.33977523E-14      0.20063851E-09     -0.10400752E-21      0.25187705E-10      0.46710900E-22
    0.229278943976         0.11587846E-06      0.65508737E-02     -0.41437034E-16      0.20520145E-09     -0.12979856E-23      0.25832204E-10      0.46706823E-22
    0.232419751428         0.12018935E-06      0.65494683E-02      0.11858680E-14      0.20991412E-09      0.38007733E-22      0.26491504E-10      0.46826198E-22
    0.235560558880         0.12462281E-06      0.65508613E-02     -0.24503267E-14      0.21480087E-09     -0.80345512E-22      0.27166152E-10      0.46573848E-22
    0.238701366331         0.12918164E-06      0.65545424E-02      0.32878034E-14      0.21985227E-09      0.11027940E-21      0.27856665E-10      0.46920215E-22
    0.241842173783         0.13386868E-06      0.65610790E-02     -0.60192956E-14      0.22509450E-09     -0.20650724E-21      0.28563644E-10      0.46271615E-22
    0.244982981235         0.13868680E-06      0.65699681E-02     -0.32373899E-14      0.23051817E-09     -0.11358916E-21      0.29287657E-10      0.45914854E-22
    0.248123788686         0.14363896E-06      0.65818016E-02     -0.11036331E-14      0.23615182E-09     -0.39597816E-22      0.30029364E-10      0.45790484E-22
    0.251264596138         0.14872811E-06      0.65960798E-02      0.30189593E-14      0.24198605E-09      0.11075458E-21      0.30789396E-10      0.46138343E-22
    0.254405403590         0.15395730E-06      0.66134038E-02     -0.24206753E-14      0.24805139E-09     -0.90793165E-22      0.31568478E-10      0.45853179E-22
    0.257546211042         0.15932959E-06      0.66333001E-02     -0.62284686E-14      0.25433938E-09     -0.23881700E-21      0.32367309E-10      0.45103101E-22
    0.260687018493         0.16484812E-06      0.66563705E-02     -0.13002050E-14      0.26088239E-09     -0.50958790E-22      0.33186690E-10      0.44943049E-22
    0.263827825945         0.17051605E-06      0.66821671E-02     -0.10390976E-14      0.26767307E-09     -0.41623990E-22      0.34027400E-10      0.44812317E-22
    0.266968633397         0.17633661E-06      0.67112908E-02     -0.22905382E-14      0.27474574E-09     -0.93769686E-22      0.34890323E-10      0.44517804E-22
    0.270109440849         0.18231305E-06      0.67433326E-02     -0.38609046E-14      0.28209491E-09     -0.16151384E-21      0.35776329E-10      0.44010520E-22
    0.273250248300         0.18844869E-06      0.67788884E-02     -0.30155708E-14      0.28975685E-09     -0.12889758E-21      0.36686399E-10      0.43605678E-22
    0.276391055752         0.19474689E-06      0.68175955E-02     -0.26198853E-14      0.29772852E-09     -0.11441198E-21      0.37621507E-10      0.43246332E-22
    0.279531863204         0.20121105E-06      0.68600269E-02     -0.16326881E-14      0.30604763E-09     -0.72839412E-22      0.38582744E-10      0.43017557E-22
    0.282672670655         0.20784464E-06      0.69058945E-02     -0.17361900E-14      0.31471513E-09     -0.79121580E-22      0.39571204E-10      0.42769051E-22
    0.285813478107         0.21465116E-06      0.69557304E-02     -0.87279932E-15      0.32376951E-09     -0.40626331E-22      0.40588101E-10      0.42641452E-22
    0.288954285559         0.22163414E-06      0.70093579E-02     -0.85952204E-15      0.33321798E-09     -0.40860833E-22      0.41634675E-10      0.42513116E-22
    0.292095093011         0.22879719E-06      0.70672347E-02     -0.33486857E-14      0.34309833E-09     -0.16257115E-21      0.42712281E-10      0.42002511E-22
    0.295235900462         0.23614394E-06      0.71293237E-02     -0.43473753E-14      0.35342612E-09     -0.21551497E-21      0.43822324E-10      0.41325620E-22
    0.298376707914         0.24367808E-06      0.71959837E-02     -0.29666693E-15      0.36423728E-09     -0.15016315E-22      0.44966323E-10      0.41278457E-22
    0.301517515366         0.25140334E-06      0.72673568E-02     -0.31493839E-14      0.37555856E-09     -0.16275217E-21      0.46145880E-10      0.40767284E-22
    0.304658322818         0.25932350E-06      0.73436708E-02     -0.90616048E-15      0.38742238E-09     -0.47805364E-22      0.47362699E-10      0.40617136E-22
    0.307799130269         0.26744238E-06      0.74253182E-02     -0.26457119E-14      0.39987163E-09     -0.14247809E-21      0.48618619E-10      0.40169640E-22
    0.310939937721         0.27576385E-06      0.75123275E-02     -0.18361902E-14      0.41293150E-09     -0.10093021E-21      0.49915557E-10      0.39852638E-22
    0.314080745173         0.28429181E-06      0.76054145E-02     -0.13167102E-14      0.42666655E-09     -0.73867927E-22      0.51255635E-10      0.39620633E-22
    0.317221552624         0.29303021E-06      0.77043460E-02     -0.37435401E-14      0.44109097E-09     -0.21432601E-21      0.52641017E-10      0.38947476E-22
    0.320362360076         0.30198307E-06      0.78102558E-02     -0.14106936E-14      0.45629850E-09     -0.82416941E-22      0.54074163E-10      0.38688620E-22
    0.323503167528         0.31115440E-06      0.79225681E-02     -0.13312593E-14      0.47228708E-09     -0.79360195E-22      0.55557525E-10      0.38439365E-22
    0.326643974980         0.32054830E-06      0.80429851E-02     -0.16651822E-14      0.48919135E-09     -0.10127990E-21      0.57093981E-10      0.38121265E-22
    0.329784782431         0.33016890E-06      0.81704304E-02     -0.38743849E-14      0.50698272E-09     -0.24040914E-21      0.58686316E-10      0.37366186E-22
    0.332925589883         0.34002034E-06      0.83073546E-02     -0.65487478E-15      0.52585153E-09     -0.41453257E-22      0.60337915E-10      0.37235989E-22
    0.336066397335         0.35010685E-06      0.84520255E-02     -0.28095179E-14      0.54573145E-09     -0.18140531E-21      0.62051952E-10      0.36666230E-22
    0.339207204787         0.36043265E-06      0.86078911E-02     -0.25255212E-14      0.56688962E-09     -0.16632317E-21      0.63832443E-10      0.36143841E-22
    0.342348012238         0.37100205E-06      0.87723283E-02     -0.29430297E-14      0.58920450E-09     -0.19767230E-21      0.65683021E-10      0.35522990E-22
    0.345488819690         0.38181936E-06      0.89501065E-02     -0.33335925E-14      0.61304849E-09     -0.22833849E-21      0.67608488E-10      0.34805823E-22
    0.348629627142         0.39288894E-06      0.91374003E-02     -0.20832089E-14      0.63822062E-09     -0.14550603E-21      0.69613016E-10      0.34348816E-22
    0.351770434593         0.40421519E-06      0.93407505E-02      0.53849743E-15      0.66523906E-09      0.38351257E-22      0.71702404E-10      0.34469270E-22
    0.354911242045         0.41580254E-06      0.95546994E-02     -0.12751426E-14      0.69378848E-09     -0.92591009E-22      0.73881460E-10      0.34178460E-22
    0.358052049497         0.42765547E-06      0.97881759E-02     -0.12898972E-14      0.72458995E-09     -0.95487306E-22      0.76157258E-10      0.33878553E-22
    0.361192856949         0.43977848E-06      0.10033491E-01     -0.13785202E-14      0.75716334E-09     -0.10402809E-21      0.78535362E-10      0.33551820E-22
    0.364333664400         0.45217610E-06      0.10302813E-01     -0.24722196E-14      0.79251371E-09     -0.19016826E-21      0.81024495E-10      0.32954539E-22
    0.367474471852         0.46485292E-06      0.10585396E-01     -0.10956452E-14      0.82992370E-09     -0.85901549E-22      0.83631126E-10      0.32684738E-22
    0.370615279304         0.47781353E-06      0.10897833E-01     -0.72245745E-15      0.87079902E-09     -0.57728474E-22      0.86366138E-10      0.32503424E-22
    0.373756086755         0.49106257E-06      0.11225174E-01     -0.13952115E-14      0.91408024E-09     -0.11361385E-21      0.89237088E-10      0.32146585E-22
    0.376896894207         0.50460471E-06      0.11590134E-01     -0.20494038E-14      0.96174490E-09     -0.17005874E-21      0.92257743E-10      0.31612463E-22
    0.380037701659         0.51844464E-06      0.11971856E-01     -0.16033705E-14      0.10122315E-08     -0.13556647E-21      0.95436967E-10      0.31186675E-22
    0.383178509111         0.53258708E-06      0.12401642E-01     -0.16657692E-15      0.10683446E-08     -0.14349837E-22      0.98792432E-10      0.31141605E-22
