 
 # Omega; pulse ft; proj flux t=    1000.25000000000     
    0.000000000000         0.13861783E-10      0.00000000E+00      0.00000000E+00      0.28085849E-10     -0.33087225E-23      0.70179533E-14     -0.82676723E-27
    0.003140022642         0.28547099E-10      0.37957347E-02     -0.41964739E-14      0.26876802E-10     -0.29714352E-22      0.13733796E-13     -0.82516428E-26
    0.006280045285         0.72617464E-10      0.28666341E-02     -0.24865940E-14      0.25816842E-10     -0.22394209E-22      0.20184781E-13     -0.13847397E-25
    0.009420067927         0.14611614E-09      0.21237087E-02     -0.15875913E-14      0.25656160E-10     -0.19179417E-22      0.26595615E-13     -0.18639855E-25
    0.012560090569         0.24911526E-09      0.16642721E-02     -0.23313090E-14      0.25708956E-10     -0.36013053E-22      0.33019642E-13     -0.27638619E-25
    0.015700113211         0.38171583E-09      0.13610834E-02      0.24745408E-15      0.25773576E-10      0.46858085E-23      0.39459816E-13     -0.26467752E-25
    0.018840135854         0.54404780E-09      0.11499719E-02     -0.33819264E-15      0.25863827E-10     -0.76062347E-23      0.45922541E-13     -0.28368361E-25
    0.021980158496         0.73627010E-09      0.99492330E-03     -0.13693223E-14      0.25956641E-10     -0.35724368E-22      0.52408458E-13     -0.37294989E-25
    0.025120181138         0.95857070E-09      0.87602967E-03     -0.78577180E-15      0.26035909E-10     -0.23353413E-22      0.58914183E-13     -0.43130425E-25
    0.028260203780         0.12111667E-08      0.78220107E-03     -0.91048619E-15      0.26109561E-10     -0.30391668E-22      0.65438311E-13     -0.50724545E-25
    0.031400226423         0.14943044E-08      0.70753184E-03     -0.14953512E-14      0.26224356E-10     -0.55424534E-22      0.71991123E-13     -0.64573754E-25
    0.034540249065         0.18082594E-08      0.64558903E-03     -0.61197669E-15      0.26323519E-10     -0.24952996E-22      0.78568714E-13     -0.70808885E-25
    0.037680271707         0.21533368E-08      0.59389304E-03     -0.24038650E-15      0.26433746E-10     -0.10699428E-22      0.85173848E-13     -0.73482405E-25
    0.040820294349         0.25298710E-08      0.54975056E-03     -0.85390734E-15      0.26536306E-10     -0.41217869E-22      0.91804609E-13     -0.83781723E-25
    0.043960316992         0.29382263E-08      0.51185296E-03     -0.42318131E-15      0.26645397E-10     -0.22029439E-22      0.98462629E-13     -0.89286330E-25
    0.047100339634         0.33787968E-08      0.47875378E-03     -0.85641555E-15      0.26748707E-10     -0.47849248E-22      0.10514646E-12     -0.10124266E-24
    0.050240362276         0.38520063E-08      0.44977114E-03     -0.64218014E-15      0.26858290E-10     -0.38348081E-22      0.11185768E-12     -0.11082489E-24
    0.053380384919         0.43583091E-08      0.42400050E-03     -0.29561507E-15      0.26962194E-10     -0.18798164E-22      0.11859486E-12     -0.11552209E-24
    0.056520407561         0.48981894E-08      0.40108871E-03     -0.53676582E-15      0.27072182E-10     -0.36229945E-22      0.12535952E-12     -0.12457505E-24
    0.059660430203         0.54721621E-08      0.38040911E-03     -0.53999481E-15      0.27175404E-10     -0.38575778E-22      0.13214998E-12     -0.13421417E-24
    0.062800452845         0.60807727E-08      0.36177802E-03     -0.34011813E-15      0.27282911E-10     -0.25649465E-22      0.13896730E-12     -0.14062333E-24
    0.065940475488         0.67245976E-08      0.34469115E-03     -0.13422376E-15      0.27377696E-10     -0.10660957E-22      0.14580830E-12     -0.14328724E-24
    0.069080498130         0.74042442E-08      0.32904908E-03     -0.20540993E-15      0.27468724E-10     -0.17147438E-22      0.15267205E-12     -0.14757196E-24
    0.072220520772         0.81203513E-08      0.31325975E-03     -0.48190075E-16      0.27432876E-10     -0.42201155E-23      0.15952684E-12     -0.14862646E-24
    0.075360543414         0.88735891E-08      0.30142407E-03     -0.89076230E-16      0.27643038E-10     -0.81690144E-23      0.16643415E-12     -0.15066769E-24
    0.078500566057         0.96646596E-08      0.29187612E-03     -0.31618101E-15      0.27987550E-10     -0.30318108E-22      0.17342754E-12     -0.15824343E-24
    0.081640588699         0.10494297E-07      0.28037315E-03     -0.13799199E-15      0.28069597E-10     -0.13815088E-22      0.18044143E-12     -0.16169548E-24
    0.084780611341         0.11363267E-07      0.26982999E-03     -0.20946593E-15      0.28167573E-10     -0.21866164E-22      0.18747981E-12     -0.16715929E-24
    0.087920633984         0.12272369E-07      0.26009944E-03     -0.23565222E-15      0.28276754E-10     -0.25618971E-22      0.19454546E-12     -0.17356083E-24
    0.091060656626         0.13222435E-07      0.25106289E-03     -0.20920128E-15      0.28393290E-10     -0.23659062E-22      0.20164024E-12     -0.17947264E-24
    0.094200679268         0.14214328E-07      0.24253730E-03     -0.19999026E-15      0.28503841E-10     -0.23503562E-22      0.20876264E-12     -0.18534559E-24
    0.097340701910         0.15248947E-07      0.23460840E-03     -0.28879066E-15      0.28624736E-10     -0.35235551E-22      0.21591524E-12     -0.19415008E-24
    0.100480724553         0.16327224E-07      0.22710894E-03     -0.93252618E-16      0.28741960E-10     -0.11801662E-22      0.22309714E-12     -0.19709902E-24
    0.103620747195         0.17450124E-07      0.21991030E-03     -0.40775254E-15      0.28843629E-10     -0.53481185E-22      0.23030445E-12     -0.21046263E-24
    0.106760769837         0.18618647E-07      0.21325702E-03     -0.52806242E-15      0.28966252E-10     -0.71725606E-22      0.23754239E-12     -0.22838507E-24
    0.109900792479         0.19833827E-07      0.20694947E-03     -0.44885031E-15      0.29088582E-10     -0.63089889E-22      0.24481090E-12     -0.24414966E-24
    0.113040815122         0.21096733E-07      0.20096205E-03     -0.12750372E-15      0.29211007E-10     -0.18533410E-22      0.25211000E-12     -0.24878070E-24
    0.116180837764         0.22408470E-07      0.19528570E-03     -0.14588678E-15      0.29335985E-10     -0.21915238E-22      0.25944034E-12     -0.25425677E-24
    0.119320860406         0.23770176E-07      0.18988360E-03     -0.60872429E-16      0.29461580E-10     -0.94447224E-23      0.26680205E-12     -0.25661677E-24
    0.122460883048         0.25183029E-07      0.18473658E-03     -0.13186769E-15      0.29588028E-10     -0.21120369E-22      0.27419536E-12     -0.26189422E-24
    0.125600905691         0.26648238E-07      0.17984195E-03     -0.25656841E-15      0.29717980E-10     -0.42396641E-22      0.28162114E-12     -0.27248809E-24
    0.128740928333         0.28167053E-07      0.17515189E-03     -0.67976231E-16      0.29846413E-10     -0.11583356E-22      0.28907902E-12     -0.27538248E-24
    0.131880950975         0.29740759E-07      0.17069010E-03     -0.92624646E-16      0.29979946E-10     -0.16268559E-22      0.29657026E-12     -0.27944759E-24
    0.135020973618         0.31370676E-07      0.16639871E-03     -0.22813995E-15      0.30110998E-10     -0.41283502E-22      0.30409424E-12     -0.28976330E-24
    0.138160996260         0.33058166E-07      0.16230637E-03     -0.49826861E-16      0.30246937E-10     -0.92855871E-23      0.31165220E-12     -0.29208354E-24
    0.141301018902         0.34804624E-07      0.15836357E-03     -0.74119170E-16      0.30380819E-10     -0.14219186E-22      0.31924361E-12     -0.29563656E-24
    0.144441041544         0.36611487E-07      0.15459187E-03     -0.28711376E-15      0.30518695E-10     -0.56680451E-22      0.32686947E-12     -0.30979959E-24
    0.147581064187         0.38480227E-07      0.15095484E-03     -0.10430139E-15      0.30655371E-10     -0.21181155E-22      0.33452948E-12     -0.31509223E-24
    0.150721086829         0.40412359E-07      0.14746536E-03     -0.11548284E-15      0.30795179E-10     -0.24116273E-22      0.34222443E-12     -0.32111829E-24
    0.153861109471         0.42409432E-07      0.14409776E-03     -0.13437996E-15      0.30934520E-10     -0.28848328E-22      0.34995419E-12     -0.32832677E-24
    0.157001132113         0.44473040E-07      0.14085823E-03     -0.55255033E-16      0.31076264E-10     -0.12190413E-22      0.35771938E-12     -0.33137285E-24
    0.160141154756         0.46604811E-07      0.13772936E-03     -0.28913557E-16      0.31218129E-10     -0.65536292E-23      0.36552001E-12     -0.33301044E-24
    0.163281177398         0.48806419E-07      0.13471212E-03     -0.12413978E-15      0.31361732E-10     -0.28900430E-22      0.37335652E-12     -0.34023193E-24
    0.166421200040         0.51079573E-07      0.13179583E-03     -0.16419357E-16      0.31505968E-10     -0.39250689E-23      0.38122908E-12     -0.34121271E-24
    0.169561222683         0.53426027E-07      0.12897787E-03     -0.98950435E-16      0.31651484E-10     -0.24282679E-22      0.38913800E-12     -0.34728035E-24
    0.172701245325         0.55847574E-07      0.12625100E-03     -0.16019961E-15      0.31797738E-10     -0.40348077E-22      0.39708346E-12     -0.35736232E-24
    0.175841267967         0.58346049E-07      0.12361301E-03     -0.52398868E-16      0.31945330E-10     -0.13541447E-22      0.40506580E-12     -0.36074599E-24
    0.178981290609         0.60923329E-07      0.12105734E-03     -0.56512632E-16      0.32093689E-10     -0.14982147E-22      0.41308521E-12     -0.36448966E-24
    0.182121313252         0.63581331E-07      0.11858038E-03     -0.10162644E-15      0.32242910E-10     -0.27633002E-22      0.42114191E-12     -0.37139446E-24
    0.185261335894         0.66322018E-07      0.11618133E-03     -0.66201925E-16      0.32393794E-10     -0.18458487E-22      0.42923631E-12     -0.37600677E-24
    0.188401358536         0.69147392E-07      0.11385074E-03     -0.14462932E-15      0.32544694E-10     -0.41342875E-22      0.43736842E-12     -0.38633733E-24
    0.191541381178         0.72059501E-07      0.11159370E-03     -0.14609166E-15      0.32697974E-10     -0.42806193E-22      0.44553883E-12     -0.39703353E-24
    0.194681403821         0.75060434E-07      0.10939716E-03     -0.70416240E-16      0.32850742E-10     -0.21145208E-22      0.45374741E-12     -0.40231719E-24
    0.197821426463         0.78152324E-07      0.10726949E-03      0.53770125E-16      0.33006337E-10      0.16544824E-22      0.46199487E-12     -0.39818305E-24
    0.200961449105         0.81337348E-07      0.10519635E-03     -0.12649721E-15      0.33161218E-10     -0.39875922E-22      0.47028103E-12     -0.40814705E-24
    0.204101471747         0.84617728E-07      0.10318713E-03     -0.54151474E-16      0.33319102E-10     -0.17485500E-22      0.47860664E-12     -0.41251624E-24
    0.207241494390         0.87995729E-07      0.10122746E-03     -0.75825044E-16      0.33476171E-10     -0.25075528E-22      0.48697150E-12     -0.41878199E-24
    0.210381517032         0.91473660E-07      0.99327298E-04     -0.18034860E-15      0.33636410E-10     -0.61073637E-22      0.49537640E-12     -0.43404276E-24
    0.213521539674         0.95053876E-07      0.97472318E-04     -0.76021562E-16      0.33795741E-10     -0.26358304E-22      0.50382112E-12     -0.44062905E-24
    0.216661562317         0.98738776E-07      0.95672793E-04     -0.91249859E-16      0.33958372E-10     -0.32388483E-22      0.51230647E-12     -0.44872212E-24
    0.219801584959         0.10253081E-06      0.93914845E-04     -0.99747710E-16      0.34120103E-10     -0.36239235E-22      0.52083223E-12     -0.45777740E-24
    0.222941607601         0.10643245E-06      0.92208510E-04     -0.99881865E-16      0.34285184E-10     -0.37138309E-22      0.52939924E-12     -0.46705734E-24
    0.226081630243         0.11044626E-06      0.90540678E-04     -0.87349030E-16      0.34449427E-10     -0.33235051E-22      0.53800730E-12     -0.47536195E-24
    0.229221652886         0.11457479E-06      0.88920931E-04     -0.10178618E-15      0.34617044E-10     -0.39625506E-22      0.54665723E-12     -0.48526338E-24
    0.232361675528         0.11882069E-06      0.87336994E-04     -0.30533190E-16      0.34783907E-10     -0.12160524E-22      0.55534886E-12     -0.48830199E-24
    0.235501698170         0.12318663E-06      0.85797915E-04     -0.11583502E-15      0.34954155E-10     -0.47191300E-22      0.56408303E-12     -0.50009392E-24
    0.238641720812         0.12767532E-06      0.84292319E-04     -0.11830669E-15      0.35123770E-10     -0.49297218E-22      0.57285959E-12     -0.51241206E-24
    0.241781743455         0.13228953E-06      0.82828550E-04     -0.69386413E-16      0.35296737E-10     -0.29568476E-22      0.58167936E-12     -0.51980049E-24
    0.244921766097         0.13703207E-06      0.81396182E-04     -0.10721394E-15      0.35469201E-10     -0.46719549E-22      0.59054223E-12     -0.53147454E-24
    0.248061788739         0.14190580E-06      0.80002888E-04     -0.13961865E-15      0.35644988E-10     -0.62206567E-22      0.59944903E-12     -0.54701841E-24
    0.251201811381         0.14691362E-06      0.78639208E-04     -0.76377116E-16      0.35820445E-10     -0.34790053E-22      0.60839966E-12     -0.55571157E-24
    0.254341834024         0.15205849E-06      0.77311974E-04     -0.13605170E-15      0.35999145E-10     -0.63350403E-22      0.61739495E-12     -0.57154126E-24
    0.257481856666         0.15734340E-06      0.76012777E-04     -0.18977637E-15      0.36177707E-10     -0.90322630E-22      0.62643486E-12     -0.59411063E-24
    0.260621879308         0.16277140E-06      0.74747606E-04     -0.99257626E-16      0.36359429E-10     -0.48281821E-22      0.63552017E-12     -0.60617506E-24
    0.263761901951         0.16834557E-06      0.73509067E-04     -0.70067533E-16      0.36541223E-10     -0.34830443E-22      0.64465091E-12     -0.61487831E-24
    0.266901924593         0.17406906E-06      0.72302207E-04     -0.89635445E-16      0.36726029E-10     -0.45530477E-22      0.65382783E-12     -0.62625525E-24
    0.270041947235         0.17994505E-06      0.71120803E-04     -0.49325913E-16      0.36911173E-10     -0.25599786E-22      0.66305101E-12     -0.63265199E-24
    0.273181969877         0.18597676E-06      0.69969004E-04     -0.44007695E-16      0.37099228E-10     -0.23333925E-22      0.67232118E-12     -0.63848256E-24
    0.276321992520         0.19216747E-06      0.68841421E-04     -0.52513881E-16      0.37287803E-10     -0.28444027E-22      0.68163848E-12     -0.64559001E-24
    0.279462015162         0.19852052E-06      0.67741535E-04     -0.60139115E-16      0.37479189E-10     -0.33273017E-22      0.69100359E-12     -0.65390411E-24
    0.282602037804         0.20503926E-06      0.66664803E-04     -0.45108076E-16      0.37671323E-10     -0.25489926E-22      0.70041672E-12     -0.66027341E-24
    0.285742060446         0.21172710E-06      0.65613947E-04     -0.16453875E-16      0.37866136E-10     -0.94956134E-23      0.70987852E-12     -0.66264612E-24
    0.288882083089         0.21858752E-06      0.64585287E-04     -0.27160463E-16      0.38061938E-10     -0.16006430E-22      0.71938925E-12     -0.66664573E-24
    0.292022105731         0.22562402E-06      0.63580914E-04     -0.90356176E-17      0.38260347E-10     -0.54372585E-23      0.72894955E-12     -0.66800437E-24
    0.295162128373         0.23284014E-06      0.62597724E-04     -0.20360568E-16      0.38459913E-10     -0.12509491E-22      0.73855973E-12     -0.67113018E-24
    0.298302151016         0.24023948E-06      0.61637349E-04     -0.29128227E-16      0.38662015E-10     -0.18270675E-22      0.74822040E-12     -0.67569556E-24
    0.301442173658         0.24782569E-06      0.60697256E-04     -0.23823169E-16      0.38865469E-10     -0.15254374E-22      0.75793191E-12     -0.67950725E-24
    0.304582196300         0.25560245E-06      0.59778498E-04     -0.16003817E-16      0.39071317E-10     -0.10460119E-22      0.76769486E-12     -0.68212097E-24
    0.307722218942         0.26357350E-06      0.58879295E-04     -0.54651133E-16      0.39278783E-10     -0.36458147E-22      0.77750965E-12     -0.69123095E-24
    0.310862241585         0.27174260E-06      0.58000065E-04     -0.81172596E-16      0.39488512E-10     -0.55265197E-22      0.78737684E-12     -0.70504035E-24
    0.314002264227         0.28011357E-06      0.57139683E-04     -0.52831673E-16      0.39700112E-10     -0.36706947E-22      0.79729691E-12     -0.71421250E-24
    0.317142286869         0.28869027E-06      0.56298083E-04     -0.78721132E-16      0.39913898E-10     -0.55811265E-22      0.80727040E-12     -0.72815834E-24
    0.320282309511         0.29747662E-06      0.55474530E-04     -0.54428003E-16      0.40129713E-10     -0.39372666E-22      0.81729781E-12     -0.73799659E-24
    0.323422332154         0.30647655E-06      0.54668644E-04     -0.24951595E-16      0.40347635E-10     -0.18415270E-22      0.82737968E-12     -0.74259811E-24
    0.326562354796         0.31569405E-06      0.53880130E-04     -0.64115854E-16      0.40567799E-10     -0.48274551E-22      0.83751656E-12     -0.75466071E-24
    0.329702377438         0.32513315E-06      0.53108248E-04     -0.59277157E-16      0.40789998E-10     -0.45528053E-22      0.84770897E-12     -0.76603704E-24
    0.332842400080         0.33479793E-06      0.52353276E-04     -0.22875109E-16      0.41014792E-10     -0.17920900E-22      0.85795754E-12     -0.77051503E-24
    0.335982422723         0.34469248E-06      0.51612932E-04     -0.72416857E-16      0.41240729E-10     -0.57863869E-22      0.86826257E-12     -0.78497376E-24
    0.339122445365         0.35482098E-06      0.50891770E-04     -0.42113419E-16      0.41471796E-10     -0.34318302E-22      0.87862534E-12     -0.79354905E-24
    0.342262468007         0.36518760E-06      0.50180067E-04     -0.22840391E-16      0.41700428E-10     -0.18980725E-22      0.88904523E-12     -0.79829186E-24
    0.345402490650         0.37579657E-06      0.49489311E-04     -0.34560215E-16      0.41936414E-10     -0.29285748E-22      0.89952410E-12     -0.80560964E-24
    0.348542513292         0.38665215E-06      0.48808786E-04     -0.38296027E-16      0.42171128E-10     -0.33088032E-22      0.91006161E-12     -0.81387751E-24
    0.351682535934         0.39775867E-06      0.48145533E-04     -0.33955432E-16      0.42410890E-10     -0.29910980E-22      0.92065903E-12     -0.82135152E-24
    0.354822558576         0.40912044E-06      0.47493519E-04     -0.44632082E-16      0.42650767E-10     -0.40081101E-22      0.93131640E-12     -0.83136679E-24
    0.357962581219         0.42074186E-06      0.46858009E-04     -0.18283507E-16      0.42895769E-10     -0.16737483E-22      0.94203498E-12     -0.83554907E-24
    0.361102603861         0.43262732E-06      0.46232531E-04     -0.33330959E-16      0.43140337E-10     -0.31101668E-22      0.95281468E-12     -0.84332060E-24
    0.364242626503         0.44478129E-06      0.45623821E-04     -0.44813964E-16      0.43391027E-10     -0.42620804E-22      0.96365701E-12     -0.85397048E-24
    0.367382649145         0.45720823E-06      0.45023579E-04     -0.39659744E-16      0.43640322E-10     -0.38441280E-22      0.97456164E-12     -0.86357599E-24
    0.370522671788         0.46991265E-06      0.44440615E-04     -0.23688307E-16      0.43897011E-10     -0.23398548E-22      0.98553041E-12     -0.86942271E-24
    0.373662694430         0.48289911E-06      0.43864465E-04     -0.44734043E-16      0.44151152E-10     -0.45026413E-22      0.99656268E-12     -0.88067368E-24
    0.376802717072         0.49617218E-06      0.43306373E-04     -0.39838988E-16      0.44414291E-10     -0.40858199E-22      0.10076607E-11     -0.89088313E-24
    0.379942739715         0.50973645E-06      0.42753146E-04     -0.30952283E-16      0.44673313E-10     -0.32342439E-22      0.10188234E-11     -0.89896470E-24
    0.383082762357         0.52359657E-06      0.42218949E-04     -0.38801939E-16      0.44943215E-10     -0.41305716E-22      0.10300536E-11     -0.90928597E-24
