
 # six columns.
 # Omega (column 1); |pulse ft|^2 (2); cross section (Mb) (3); flux (column 5)

  0.0000      0.187175E-09      0.000000E+00      0.000000E+00      0.148172E-07      0.254110E-20
  0.0031      0.201864E-09      0.298038E+00      0.195637E-13      0.149228E-07      0.979560E-21
  0.0063      0.245947E-09      0.492832E+00     -0.266077E-13      0.150325E-07     -0.811593E-21
  0.0094      0.319467E-09      0.573317E+00      0.133462E-12      0.151433E-07      0.352520E-20
  0.0126      0.422497E-09      0.582292E+00     -0.175196E-13      0.152554E-07     -0.458995E-21
  0.0157      0.555138E-09      0.558071E+00      0.484245E-14      0.153688E-07      0.133357E-21
  0.0188      0.717521E-09      0.522005E+00     -0.241177E-13      0.154838E-07     -0.715382E-21
  0.0220      0.909805E-09      0.483899E+00     -0.471498E-13      0.156000E-07     -0.152002E-20
  0.0251      0.113218E-08      0.447767E+00     -0.160149E-12      0.157180E-07     -0.562173E-20
  0.0283      0.138486E-08      0.414949E+00      0.948139E-13      0.158372E-07      0.361873E-20
  0.0314      0.166811E-08      0.385695E+00      0.385759E-13      0.159583E-07      0.159610E-20
  0.0345      0.198218E-08      0.359777E+00     -0.104584E-12      0.160807E-07     -0.467450E-20
  0.0377      0.232740E-08      0.336852E+00      0.366996E-13      0.162050E-07      0.176551E-20
  0.0408      0.270409E-08      0.316521E+00      0.347085E-13      0.163305E-07      0.179074E-20
  0.0440      0.311263E-08      0.298444E+00     -0.464202E-13      0.164582E-07     -0.255992E-20
  0.0471      0.355341E-08      0.282291E+00      0.525594E-13      0.165871E-07      0.308833E-20
  0.0502      0.402685E-08      0.267808E+00      0.528450E-14      0.167182E-07      0.329890E-21
  0.0534      0.453342E-08      0.254753E+00     -0.226515E-13      0.168506E-07     -0.149828E-20
  0.0565      0.507360E-08      0.242947E+00      0.508544E-13      0.169853E-07      0.355543E-20
  0.0597      0.564790E-08      0.232213E+00      0.390976E-13      0.171214E-07      0.288272E-20
  0.0628      0.625688E-08      0.222428E+00     -0.214264E-13      0.172598E-07     -0.166263E-20
  0.0659      0.690112E-08      0.213462E+00      0.172389E-13      0.173997E-07      0.140517E-20
  0.0691      0.758123E-08      0.205230E+00     -0.228268E-13      0.175419E-07     -0.195111E-20
  0.0722      0.829784E-08      0.197636E+00     -0.541562E-13      0.176857E-07     -0.484624E-20
  0.0754      0.905164E-08      0.190618E+00      0.136304E-13      0.178320E-07      0.127510E-20
  0.0785      0.984333E-08      0.184105E+00     -0.365307E-13      0.179799E-07     -0.356763E-20
  0.0816      0.106736E-07      0.178052E+00     -0.641937E-13      0.181303E-07     -0.653659E-20
  0.0848      0.115434E-07      0.172404E+00     -0.988105E-14      0.182824E-07     -0.104783E-20
  0.0879      0.124533E-07      0.167129E+00     -0.176338E-13      0.184373E-07     -0.194532E-20
  0.0911      0.134042E-07      0.162183E+00     -0.464512E-13      0.185938E-07     -0.532549E-20
  0.0942      0.143971E-07      0.157544E+00     -0.441354E-14      0.187531E-07     -0.525363E-21
  0.0973      0.154327E-07      0.153175E+00      0.139754E-14      0.189143E-07      0.172571E-21
  0.1005      0.165121E-07      0.149062E+00     -0.328735E-13      0.190784E-07     -0.420745E-20
  0.1036      0.176363E-07      0.145174E+00      0.164316E-13      0.192443E-07      0.217817E-20
  0.1068      0.188061E-07      0.141501E+00      0.213886E-14      0.194133E-07      0.293442E-21
  0.1099      0.200227E-07      0.138017E+00     -0.197268E-13      0.195842E-07     -0.279918E-20
  0.1130      0.212872E-07      0.134715E+00      0.252354E-13      0.197583E-07      0.370122E-20
  0.1162      0.226005E-07      0.131574E+00      0.147683E-14      0.199345E-07      0.223752E-21
  0.1193      0.239640E-07      0.128588E+00     -0.255088E-13      0.201139E-07     -0.399011E-20
  0.1225      0.253788E-07      0.125741E+00      0.144531E-13      0.202956E-07      0.233286E-20
  0.1256      0.268460E-07      0.123028E+00      0.147850E-13      0.204806E-07      0.246128E-20
  0.1287      0.283670E-07      0.120434E+00     -0.187885E-13      0.206679E-07     -0.322435E-20
  0.1319      0.299430E-07      0.117957E+00     -0.535132E-14      0.208587E-07     -0.946295E-21
  0.1350      0.315754E-07      0.115583E+00     -0.112164E-13      0.210520E-07     -0.204293E-20
  0.1382      0.332655E-07      0.113312E+00     -0.209491E-13      0.212489E-07     -0.392849E-20
  0.1413      0.350147E-07      0.111132E+00      0.209366E-13      0.214485E-07      0.404078E-20
  0.1444      0.368245E-07      0.109042E+00     -0.691215E-14      0.216517E-07     -0.137250E-20
  0.1476      0.386964E-07      0.107032E+00     -0.157220E-13      0.218577E-07     -0.321070E-20
  0.1507      0.406318E-07      0.105102E+00     -0.190481E-14      0.220676E-07     -0.399942E-21
  0.1539      0.426324E-07      0.103243E+00     -0.667130E-14      0.222805E-07     -0.143971E-20
  0.1570      0.446997E-07      0.101455E+00     -0.204048E-13      0.224973E-07     -0.452468E-20
  0.1601      0.468354E-07      0.997317E-01      0.114871E-13      0.227173E-07      0.261658E-20
  0.1633      0.490411E-07      0.980716E-01     -0.419911E-14      0.229414E-07     -0.982277E-21
  0.1664      0.513186E-07      0.964687E-01     -0.815574E-14      0.231689E-07     -0.195876E-20
  0.1696      0.536696E-07      0.949235E-01     -0.581157E-14      0.234007E-07     -0.143268E-20
  0.1727      0.560960E-07      0.934297E-01     -0.559614E-14      0.236360E-07     -0.141572E-20
  0.1758      0.585995E-07      0.919880E-01     -0.179234E-13      0.238757E-07     -0.465206E-20
  0.1790      0.611821E-07      0.905934E-01      0.689117E-14      0.241193E-07      0.183469E-20
  0.1821      0.638456E-07      0.892459E-01     -0.318102E-15      0.243675E-07     -0.868540E-22
  0.1853      0.665921E-07      0.879414E-01     -0.690951E-14      0.246198E-07     -0.193436E-20
  0.1884      0.694236E-07      0.866798E-01      0.611316E-14      0.248767E-07      0.175445E-20
  0.1915      0.723420E-07      0.854578E-01     -0.637346E-14      0.251381E-07     -0.187480E-20
  0.1947      0.753496E-07      0.842751E-01     -0.114152E-14      0.254044E-07     -0.344107E-21
  0.1978      0.784485E-07      0.831288E-01     -0.292187E-14      0.256753E-07     -0.902454E-21
  0.2010      0.816408E-07      0.820187E-01     -0.807946E-14      0.259513E-07     -0.255640E-20
  0.2041      0.849287E-07      0.809424E-01     -0.106050E-14      0.262323E-07     -0.343694E-21
  0.2072      0.883146E-07      0.798994E-01      0.914657E-14      0.265187E-07      0.303575E-20
  0.2104      0.918008E-07      0.788878E-01      0.353407E-14      0.268103E-07      0.120107E-20
  0.2135      0.953895E-07      0.779073E-01     -0.213484E-14      0.271075E-07     -0.742808E-21
  0.2167      0.990833E-07      0.769559E-01      0.412567E-14      0.274103E-07      0.146949E-20
  0.2198      0.102885E-06      0.760335E-01     -0.516871E-14      0.277190E-07     -0.188432E-20
  0.2229      0.106796E-06      0.751384E-01     -0.523235E-14      0.280336E-07     -0.195215E-20
  0.2261      0.110820E-06      0.742703E-01      0.358587E-14      0.283543E-07      0.136898E-20
  0.2292      0.114959E-06      0.734281E-01     -0.706037E-14      0.286814E-07     -0.275782E-20
  0.2324      0.119215E-06      0.726110E-01     -0.153391E-14      0.290150E-07     -0.612941E-21
  0.2355      0.123592E-06      0.718184E-01     -0.719736E-14      0.293552E-07     -0.294187E-20
  0.2386      0.128093E-06      0.710494E-01     -0.875753E-14      0.297024E-07     -0.366110E-20
  0.2418      0.132719E-06      0.703037E-01     -0.115015E-13      0.300566E-07     -0.491718E-20
  0.2449      0.137474E-06      0.695803E-01      0.417787E-14      0.304180E-07      0.182641E-20
  0.2481      0.142360E-06      0.688790E-01     -0.341996E-14      0.307870E-07     -0.152863E-20
  0.2512      0.147381E-06      0.681989E-01     -0.113283E-13      0.311637E-07     -0.517650E-20
  0.2543      0.152540E-06      0.675397E-01     -0.336816E-14      0.315484E-07     -0.157330E-20
  0.2575      0.157839E-06      0.669009E-01     -0.142760E-14      0.319413E-07     -0.681597E-21
  0.2606      0.163282E-06      0.662821E-01     -0.543312E-14      0.323426E-07     -0.265111E-20
  0.2638      0.168871E-06      0.656827E-01      0.241030E-14      0.327526E-07      0.120189E-20
  0.2669      0.174610E-06      0.651026E-01     -0.395140E-14      0.331717E-07     -0.201336E-20
  0.2700      0.180502E-06      0.645410E-01     -0.616653E-14      0.336000E-07     -0.321029E-20
  0.2732      0.186550E-06      0.639981E-01      0.175434E-14      0.340379E-07      0.933060E-21
  0.2763      0.192758E-06      0.634731E-01     -0.220607E-14      0.344857E-07     -0.119858E-20
  0.2795      0.199128E-06      0.629660E-01     -0.164702E-14      0.349437E-07     -0.914035E-21
  0.2826      0.205665E-06      0.624763E-01     -0.480129E-15      0.354122E-07     -0.272142E-21
  0.2857      0.212372E-06      0.620040E-01     -0.691054E-14      0.358917E-07     -0.400025E-20
  0.2889      0.219251E-06      0.615487E-01     -0.513982E-14      0.363825E-07     -0.303823E-20
  0.2920      0.226307E-06      0.611101E-01      0.323976E-14      0.368849E-07      0.195545E-20
  0.2952      0.233543E-06      0.606884E-01     -0.581875E-14      0.373994E-07     -0.358583E-20
  0.2983      0.240963E-06      0.602828E-01     -0.603616E-14      0.379263E-07     -0.379759E-20
  0.3014      0.248571E-06      0.598939E-01      0.491742E-14      0.384664E-07      0.315818E-20
  0.3046      0.256369E-06      0.595208E-01     -0.475441E-14      0.390196E-07     -0.311682E-20
  0.3077      0.264363E-06      0.591642E-01     -0.566079E-14      0.395871E-07     -0.378766E-20
  0.3109      0.272555E-06      0.588230E-01      0.333236E-14      0.401685E-07      0.227557E-20
  0.3140      0.280949E-06      0.584984E-01      0.171760E-14      0.407654E-07      0.119693E-20
  0.3171      0.289550E-06      0.581887E-01     -0.311289E-14      0.413772E-07     -0.221354E-20
  0.3203      0.298361E-06      0.578960E-01     -0.289354E-14      0.420059E-07     -0.209938E-20
  0.3234      0.307386E-06      0.576176E-01     -0.604212E-14      0.426504E-07     -0.447257E-20
  0.3266      0.316630E-06      0.573567E-01     -0.567842E-14      0.433134E-07     -0.428810E-20
  0.3297      0.326095E-06      0.571097E-01      0.661142E-14      0.439931E-07      0.509295E-20
  0.3328      0.335787E-06      0.568807E-01      0.190125E-14      0.446934E-07      0.149389E-20
  0.3360      0.345709E-06      0.566651E-01     -0.241942E-14      0.454112E-07     -0.193891E-20
  0.3391      0.355866E-06      0.564684E-01      0.107281E-15      0.461518E-07      0.876811E-22
  0.3423      0.366262E-06      0.562845E-01     -0.770153E-15      0.469109E-07     -0.641892E-21
  0.3454      0.376900E-06      0.561207E-01     -0.522078E-14      0.476954E-07     -0.443700E-20
  0.3485      0.387786E-06      0.559688E-01     -0.350330E-14      0.484993E-07     -0.303575E-20
  0.3517      0.398923E-06      0.558387E-01     -0.425074E-14      0.493318E-07     -0.375540E-20
  0.3548      0.410317E-06      0.557196E-01     -0.489516E-14      0.501844E-07     -0.440887E-20
  0.3580      0.421970E-06      0.556242E-01      0.529762E-15      0.510694E-07      0.486382E-21
  0.3611      0.433888E-06      0.555386E-01     -0.422325E-14      0.519751E-07     -0.395227E-20
  0.3642      0.446075E-06      0.554794E-01     -0.413838E-14      0.529178E-07     -0.394731E-20
  0.3674      0.458536E-06      0.554283E-01      0.100069E-14      0.538814E-07      0.972764E-21
  0.3705      0.471275E-06      0.554069E-01     -0.186206E-14      0.548878E-07     -0.184461E-20
  0.3737      0.484297E-06      0.553915E-01     -0.311878E-14      0.559150E-07     -0.314825E-20
  0.3768      0.497606E-06      0.554102E-01      0.413370E-15      0.569920E-07      0.425171E-21
  0.3799      0.511207E-06      0.554320E-01     -0.192601E-14      0.580887E-07     -0.201832E-20
  0.3831      0.525104E-06      0.554935E-01     -0.354088E-14      0.592444E-07     -0.378022E-20
  0.3862      0.539303E-06      0.555543E-01     -0.340442E-14      0.604177E-07     -0.370246E-20
  0.3894      0.553807E-06      0.556620E-01     -0.387087E-14      0.616616E-07     -0.428810E-20
  0.3925      0.568622E-06      0.557636E-01     -0.603347E-14      0.629193E-07     -0.680770E-20
  0.3956      0.583752E-06      0.559220E-01     -0.525467E-15      0.642628E-07     -0.603842E-21
  0.3988      0.599202E-06      0.560668E-01     -0.121150E-14      0.656137E-07     -0.141779E-20
  0.4019      0.614977E-06      0.562812E-01     -0.216425E-14      0.670706E-07     -0.257915E-20
  0.4051      0.631081E-06      0.564717E-01      0.195644E-14      0.685246E-07      0.237401E-20
  0.4082      0.647520E-06      0.567495E-01     -0.294593E-16      0.701120E-07     -0.363959E-22
  0.4113      0.664299E-06      0.569885E-01      0.523482E-15      0.716801E-07      0.658436E-21
  0.4145      0.681421E-06      0.573391E-01     -0.271324E-15      0.734197E-07     -0.347416E-21
  0.4176      0.698893E-06      0.576290E-01      0.309700E-15      0.751139E-07      0.403664E-21
  0.4208      0.716718E-06      0.580659E-01     -0.438944E-15      0.770344E-07     -0.582335E-21
  0.4239      0.734903E-06      0.584094E-01      0.156093E-14      0.788676E-07      0.210766E-20
  0.4270      0.753451E-06      0.589501E-01      0.156749E-14      0.810066E-07      0.215398E-20
  0.4302      0.772367E-06      0.593496E-01     -0.792651E-15      0.829928E-07     -0.110842E-20
  0.4333      0.791658E-06      0.600203E-01      0.118591E-14      0.854037E-07      0.168745E-20
  0.4365      0.811327E-06      0.604761E-01     -0.455706E-14      0.875557E-07     -0.659759E-20
  0.4396      0.831379E-06      0.613169E-01     -0.423654E-14      0.903173E-07     -0.624025E-20
  0.4427      0.851820E-06      0.618258E-01     -0.103779E-14      0.926442E-07     -0.155510E-20
  0.4459      0.872654E-06      0.629013E-01     -0.214893E-14      0.958812E-07     -0.327564E-20
  0.4490      0.893887E-06      0.634521E-01     -0.136362E-14      0.983812E-07     -0.211427E-20
  0.4522      0.915523E-06      0.648756E-01     -0.232054E-14      0.102308E-06     -0.365945E-20
  0.4553      0.937567E-06      0.654388E-01     -0.387025E-14      0.104952E-06     -0.620716E-20
  0.4584      0.960025E-06      0.674295E-01     -0.391127E-14      0.109976E-06     -0.637922E-20
  0.4616      0.982901E-06      0.679312E-01      0.351124E-15      0.112663E-06      0.582335E-21
  0.4647      0.100620E-05      0.709796E-01     -0.169917E-14      0.119695E-06     -0.286535E-20
  0.4679      0.102993E-05      0.712201E-01     -0.112509E-14      0.122108E-06     -0.192899E-20
  0.4710      0.105409E-05      0.766944E-01      0.425210E-15      0.133681E-06      0.741154E-21
  0.4741      0.107869E-05      0.760197E-01      0.444426E-15      0.134699E-06      0.787476E-21
  0.4773      0.110373E-05      0.896459E-01     -0.404153E-16      0.161461E-06     -0.727919E-22
  0.4804      0.112922E-05      0.845366E-01     -0.119289E-15      0.154757E-06     -0.218376E-21
  0.4836      0.115516E-05      0.182281E+00     -0.217672E-14      0.339141E-06     -0.404988E-20
  0.4867      0.118156E-05      0.256092E+00     -0.258988E-14      0.484216E-06     -0.489691E-20
  0.4898      0.120842E-05      0.911283E-01      0.325814E-14      0.175092E-06      0.626010E-20
  0.4930      0.123575E-05      0.468235E-01      0.208287E-14      0.914141E-07      0.406642E-20
  0.4961      0.126355E-05      0.675027E-01      0.287904E-14      0.133898E-06      0.571085E-20
  0.4993      0.129182E-05      0.661917E-01      0.112303E-14      0.133392E-06      0.226317E-20
  0.5024      0.132058E-05      0.719781E-01     -0.304815E-14      0.147355E-06     -0.624025E-20
  0.5055      0.134983E-05      0.748739E-01     -0.183609E-14      0.155705E-06     -0.381827E-20
  0.5087      0.137956E-05      0.767177E-01     -0.588669E-14      0.162047E-06     -0.124342E-19
  0.5118      0.140979E-05      0.816668E-01     -0.730132E-14      0.175200E-06     -0.156635E-19
  0.5150      0.144052E-05      0.809964E-01     -0.680061E-14      0.176467E-06     -0.148165E-19
  0.5181      0.147176E-05      0.878622E-01     -0.215353E-15      0.194390E-06     -0.476456E-21
  0.5212      0.150350E-05      0.840174E-01     -0.625940E-14      0.188749E-06     -0.140621E-19
  0.5244      0.153576E-05      0.931003E-01     -0.559913E-15      0.212363E-06     -0.127717E-20
  0.5275      0.156854E-05      0.830958E-01     -0.463770E-14      0.192435E-06     -0.107401E-19
  0.5307      0.160184E-05      0.945200E-01     -0.782498E-15      0.222216E-06     -0.183965E-20
  0.5338      0.163566E-05      0.684032E-01     -0.515194E-14      0.163246E-06     -0.122952E-19
  0.5369      0.167002E-05      0.790517E-01     -0.490353E-14      0.191495E-06     -0.118783E-19
  0.5401      0.170491E-05     -0.100950E-01     -0.278572E-15     -0.248198E-07     -0.684906E-21
  0.5432      0.174035E-05     -0.421498E-01      0.413852E-14     -0.105173E-06      0.103265E-19
  0.5464      0.177632E-05     -0.816972E+00      0.911538E-14     -0.206871E-05      0.230816E-19
  0.5495      0.181284E-05     -0.283698E+01      0.184112E-12     -0.728952E-05      0.473068E-18
  0.5526      0.184992E-05     -0.212205E+01      0.122647E-13     -0.553243E-05      0.319755E-19
  0.5558      0.188755E-05      0.621458E-01     -0.107325E-14      0.164383E-06     -0.283888E-20
  0.5589      0.192574E-05      0.461821E+00      0.179525E-14      0.123929E-05      0.481750E-20
  0.5621      0.196450E-05      0.114121E+01     -0.610261E-13      0.310658E-05     -0.166124E-18
  0.5652      0.200382E-05      0.193678E+01      0.828245E-14      0.534792E-05      0.228699E-19
  0.5683      0.204371E-05      0.687316E+01     -0.346899E-12      0.192494E-04     -0.971547E-18
  0.5715      0.208418E-05      0.169166E+02      0.151489E-12      0.480503E-04      0.430293E-18
  0.5746      0.212522E-05      0.202191E+02     -0.913920E-12      0.582418E-04     -0.263258E-17
  0.5778      0.216685E-05      0.160009E+02      0.226765E-12      0.467386E-04      0.662380E-18
  0.5809      0.220906E-05      0.123280E+02     -0.492468E-12      0.365129E-04     -0.145859E-17
  0.5840      0.225186E-05      0.114451E+02      0.218320E-12      0.343691E-04      0.655604E-18
  0.5872      0.229525E-05      0.117149E+02     -0.413438E-12      0.356653E-04     -0.125869E-17
  0.5903      0.233924E-05      0.121309E+02      0.294211E-12      0.374396E-04      0.908019E-18
  0.5935      0.238382E-05      0.127862E+02     -0.386631E-12      0.400011E-04     -0.120956E-17
  0.5966      0.242901E-05      0.128500E+02      0.375036E-12      0.407473E-04      0.118923E-17
  0.5997      0.247479E-05      0.129245E+02     -0.325230E-12      0.415375E-04     -0.104524E-17
  0.6029      0.252119E-05      0.125985E+02      0.432223E-12      0.410340E-04      0.140777E-17
  0.6060      0.256819E-05      0.123840E+02     -0.246367E-12      0.408743E-04     -0.813152E-18
  0.6092      0.261581E-05      0.120945E+02     -0.897068E-12      0.404492E-04     -0.300019E-17
  0.6123      0.266403E-05      0.119239E+02     -0.175474E-12      0.404059E-04     -0.594617E-18
  0.6154      0.271288E-05      0.117810E+02     -0.812699E-12      0.404462E-04     -0.279013E-17
  0.6186      0.276234E-05      0.116851E+02     -0.113002E-12      0.406409E-04     -0.393023E-18
  0.6217      0.281243E-05      0.116210E+02     -0.741445E-12      0.409431E-04     -0.261225E-17
  0.6249      0.286313E-05      0.115342E+02     -0.503185E-13      0.411619E-04     -0.179571E-18
  0.6280      0.291446E-05      0.114773E+02     -0.672095E-12      0.414848E-04     -0.242929E-17
