
 # Omega; pulse ft; projected flux at t=    1000.2500000000000     
    0.000000000000         0.18717486E-09      0.00000000E+00     -0.00000000E+00      0.15726466E-13     -0.19387046E-25
    0.003140022642         0.20186436E-09      0.62681421E-06     -0.70534611E-18      0.15692360E-13     -0.17658414E-25
    0.006280045285         0.24594737E-09      0.10409979E-05     -0.29754744E-17      0.15876392E-13     -0.45379341E-25
    0.009420067927         0.31946741E-09      0.12087998E-05     -0.26044021E-17      0.15964284E-13     -0.34395617E-25
    0.012560090569         0.42249703E-09      0.12229405E-05     -0.19400181E-17      0.16019861E-13     -0.25413191E-25
    0.015700113211         0.55513782E-09      0.11685102E-05     -0.27531885E-17      0.16089890E-13     -0.37910239E-25
    0.018840135854         0.71752051E-09      0.10877987E-05     -0.20839628E-17      0.16133231E-13     -0.30907422E-25
    0.021980158496         0.90980495E-09      0.10049556E-05     -0.16490122E-17      0.16198952E-13     -0.26580545E-25
    0.025120181138         0.11321802E-08      0.92531540E-06     -0.10123428E-17      0.16240714E-13     -0.17768180E-25
    0.028260203780         0.13848647E-08      0.85443661E-06     -0.11195968E-17      0.16305512E-13     -0.21365657E-25
    0.031400226423         0.16681061E-08      0.79011999E-06     -0.10114382E-17      0.16345811E-13     -0.20924388E-25
    0.034540249065         0.19821816E-08      0.73422475E-06     -0.14439812E-17      0.16408525E-13     -0.32270229E-25
    0.037680271707         0.23273981E-08      0.68398828E-06     -0.74515240E-18      0.16452346E-13     -0.17923561E-25
    0.040820294349         0.27040919E-08      0.64019132E-06     -0.10409716E-17      0.16514965E-13     -0.26853861E-25
    0.043960316992         0.31126296E-08      0.60054060E-06     -0.10805547E-17      0.16558902E-13     -0.29794488E-25
    0.047100339634         0.35534072E-08      0.56571824E-06     -0.87127937E-18      0.16620484E-13     -0.25597698E-25
    0.050240362276         0.40268513E-08      0.53395194E-06     -0.57759381E-18      0.16666237E-13     -0.18028430E-25
    0.053380384919         0.45334185E-08      0.50576925E-06     -0.71400351E-18      0.16727039E-13     -0.23613861E-25
    0.056520407561         0.50735959E-08      0.47987382E-06     -0.82858290E-18      0.16774910E-13     -0.28964704E-25
    0.059660430203         0.56479014E-08      0.45664893E-06     -0.68938836E-18      0.16834713E-13     -0.25414830E-25
    0.062800452845         0.62568834E-08      0.43519100E-06     -0.10485883E-17      0.16884870E-13     -0.40683923E-25
    0.065940475488         0.69011217E-08      0.41573708E-06     -0.57353301E-18      0.16943726E-13     -0.23374836E-25
    0.069080498130         0.75812269E-08      0.39769778E-06     -0.10945734E-17      0.16996510E-13     -0.46779057E-25
    0.072220520772         0.82978416E-08      0.38115826E-06     -0.11561124E-17      0.17054241E-13     -0.51728173E-25
    0.075360543414         0.90516395E-08      0.36578627E-06     -0.47732027E-18      0.17109337E-13     -0.22326243E-25
    0.078500566057         0.98433265E-08      0.35155394E-06     -0.34304883E-18      0.17166573E-13     -0.16751264E-25
    0.081640588699         0.10673641E-07      0.33831213E-06     -0.70015752E-18      0.17224498E-13     -0.35647145E-25
    0.084780611341         0.11543353E-07      0.32591642E-06     -0.56577229E-18      0.17280814E-13     -0.29998507E-25
    0.087920633984         0.12453265E-07      0.31438729E-06     -0.51277591E-18      0.17341232E-13     -0.28284115E-25
    0.091060656626         0.13404215E-07      0.30349183E-06     -0.21291867E-18      0.17397232E-13     -0.12205256E-25
    0.094200679268         0.14397070E-07      0.29336646E-06     -0.41519026E-18      0.17460356E-13     -0.24710969E-25
    0.097340701910         0.15432734E-07      0.28366949E-06     -0.54045187E-18      0.17513929E-13     -0.33367830E-25
    0.100480724553         0.16512144E-07      0.27473210E-06     -0.27351443E-18      0.17581367E-13     -0.17503443E-25
    0.103620747195         0.17636269E-07      0.26603215E-06     -0.28118640E-18      0.17632612E-13     -0.18637036E-25
    0.106760769837         0.18806114E-07      0.25808942E-06     -0.35267317E-18      0.17704356E-13     -0.24192589E-25
    0.109900792479         0.20022721E-07      0.25023767E-06     -0.26478727E-18      0.17754052E-13     -0.18786328E-25
    0.113040815122         0.21287162E-07      0.24314481E-06     -0.12642288E-18      0.17830767E-13     -0.92710878E-26
    0.116180837764         0.22600547E-07      0.23602944E-06     -0.17307887E-18      0.17880233E-13     -0.13111460E-25
    0.119320860406         0.23964023E-07      0.22967034E-06     -0.58074749E-18      0.17962666E-13     -0.45420639E-25
    0.122460883048         0.25378770E-07      0.22333255E-06     -0.47279140E-18      0.18023858E-13     -0.38156216E-25
    0.125600905691         0.26846007E-07      0.21747234E-06     -0.26867827E-18      0.18101455E-13     -0.22363615E-25
    0.128740928333         0.28366986E-07      0.21293693E-06     -0.31978473E-18      0.18271328E-13     -0.27439541E-25
    0.131880950975         0.29943001E-07      0.20621208E-06     -0.40538448E-18      0.18232654E-13     -0.35842881E-25
    0.135020973618         0.31575378E-07      0.20298436E-06     -0.37670164E-18      0.18485552E-13     -0.34305786E-25
    0.138160996260         0.33265483E-07      0.19767020E-06     -0.71035898E-18      0.18534126E-13     -0.66605301E-25
    0.141301018902         0.35014721E-07      0.19195469E-06     -0.39489382E-18      0.18523654E-13     -0.38107307E-25
    0.144441041544         0.36824533E-07      0.18761556E-06     -0.19019185E-18      0.18626791E-13     -0.18882569E-25
    0.147581064187         0.38696400E-07      0.18240317E-06     -0.40833040E-18      0.18624939E-13     -0.41694060E-25
    0.150721086829         0.40631842E-07      0.17848557E-06     -0.20445324E-18      0.18737780E-13     -0.21463919E-25
    0.153861109471         0.42632417E-07      0.17372469E-06     -0.15565309E-18      0.18745420E-13     -0.16795440E-25
    0.157001132113         0.44699723E-07      0.17000485E-06     -0.34941129E-18      0.18848896E-13     -0.38740170E-25
    0.160141154756         0.46835399E-07      0.16578903E-06     -0.24236460E-18      0.18882070E-13     -0.27603426E-25
    0.163281177398         0.49041122E-07      0.16227379E-06     -0.14222253E-18      0.18979956E-13     -0.16634710E-25
    0.166421200040         0.51318613E-07      0.15843470E-06     -0.20467945E-18      0.19025633E-13     -0.24578934E-25
    0.169561222683         0.53669630E-07      0.15513900E-06     -0.25109200E-18      0.19122541E-13     -0.30949774E-25
    0.172701245325         0.56095974E-07      0.15159009E-06     -0.15312349E-18      0.19174744E-13     -0.19368705E-25
    0.175841267967         0.58599489E-07      0.14850807E-06     -0.30027310E-18      0.19272836E-13     -0.38968348E-25
    0.178981290609         0.61182058E-07      0.14519438E-06     -0.22655680E-18      0.19328083E-13     -0.30158941E-25
    0.182121313252         0.63845608E-07      0.14231363E-06     -0.26672808E-18      0.19428501E-13     -0.36413425E-25
    0.185261335894         0.66592107E-07      0.13920808E-06     -0.21003870E-19      0.19486101E-13     -0.29400846E-26
    0.188401358536         0.69423567E-07      0.13649708E-06     -0.27870293E-18      0.19587040E-13     -0.39993276E-25
    0.191541381178         0.72342043E-07      0.13359502E-06     -0.23622006E-18      0.19649023E-13     -0.34743012E-25
    0.194681403821         0.75349631E-07      0.13104073E-06     -0.24163898E-18      0.19750838E-13     -0.36420525E-25
    0.197821426463         0.78448474E-07      0.12831975E-06     -0.23057842E-18      0.19816513E-13     -0.35608392E-25
    0.200961449105         0.81640757E-07      0.12591343E-06     -0.26576550E-18      0.19919978E-13     -0.42045103E-25
    0.204101471747         0.84928709E-07      0.12335516E-06     -0.18486306E-18      0.19988870E-13     -0.29955810E-25
    0.207241494390         0.88314602E-07      0.12108494E-06     -0.15068893E-19      0.20094095E-13     -0.25006891E-26
    0.210381517032         0.91800755E-07      0.11867579E-06     -0.68391311E-19      0.20166167E-13     -0.11621499E-25
    0.213521539674         0.95389531E-07      0.11653067E-06     -0.38238511E-19      0.20273176E-13     -0.66524640E-26
    0.216661562317         0.99083337E-07      0.11425968E-06      0.13098165E-19      0.20348589E-13      0.23326617E-26
    0.219801584959         0.10288463E-06      0.11222994E-06     -0.71465652E-19      0.20457423E-13     -0.13026855E-25
    0.222941607601         0.10679590E-06      0.11008712E-06     -0.12307000E-18      0.20536313E-13     -0.22958219E-25
    0.226081630243         0.11081969E-06      0.10816376E-06     -0.17216112E-18      0.20646954E-13     -0.32863156E-25
    0.229221652886         0.11495860E-06      0.10614052E-06     -0.25640647E-18      0.20729535E-13     -0.50076890E-25
    0.232361675528         0.11921526E-06      0.10431583E-06     -0.31116581E-19      0.20842034E-13     -0.62170128E-26
    0.235501698170         0.12359235E-06      0.10240436E-06     -0.18021666E-18      0.20928520E-13     -0.36831127E-25
    0.238641720812         0.12809259E-06      0.10067116E-06     -0.10086543E-18      0.21042884E-13     -0.21083491E-25
    0.241781743455         0.13271877E-06      0.98864429E-07     -0.99654554E-19      0.21133501E-13     -0.21302400E-25
    0.244921766097         0.13747370E-06      0.97216518E-07     -0.94158546E-19      0.21249799E-13     -0.20581381E-25
    0.248061788739         0.14236024E-06      0.95508195E-07     -0.37975262E-19      0.21344797E-13     -0.84869600E-26
    0.251201811381         0.14738131E-06      0.93939964E-07     -0.72328784E-19      0.21463107E-13     -0.16525453E-25
    0.254341834024         0.15253987E-06      0.92324018E-07     -0.11824244E-18      0.21562684E-13     -0.27616048E-25
    0.257481856666         0.15783893E-06      0.90830452E-07     -0.13629225E-18      0.21683107E-13     -0.32535779E-25
    0.260621879308         0.16328153E-06      0.89301570E-07     -0.12821011E-18      0.21787521E-13     -0.31280307E-25
    0.263761901951         0.16887077E-06      0.87878207E-07     -0.72774994E-19      0.21910191E-13     -0.18144590E-25
    0.266901924593         0.17460981E-06      0.86431351E-07     -0.97830090E-19      0.22019668E-13     -0.24923666E-25
    0.270041947235         0.18050182E-06      0.85073962E-07     -0.55885640E-19      0.22144687E-13     -0.14546990E-25
    0.273181969877         0.18655005E-06      0.83704650E-07     -0.10119838E-18      0.22259503E-13     -0.26911595E-25
    0.276321992520         0.19275778E-06      0.82409634E-07     -0.98654143E-19      0.22387056E-13     -0.26799972E-25
    0.279462015162         0.19912834E-06      0.81113677E-07     -0.91150323E-19      0.22507482E-13     -0.25292458E-25
    0.282602037804         0.20566511E-06      0.79878035E-07     -0.89475882E-19      0.22637854E-13     -0.25357934E-25
    0.285742060446         0.21237151E-06      0.78651075E-07     -0.24070787E-19      0.22764037E-13     -0.69668251E-26
    0.288882083089         0.21925100E-06      0.77471983E-07     -0.38271526E-19      0.22897506E-13     -0.11311477E-25
    0.292022105731         0.22630710E-06      0.76310680E-07     -0.14259560E-18      0.23029808E-13     -0.43033940E-25
    0.295162128373         0.23354337E-06      0.75184978E-07     -0.13559624E-18      0.23166505E-13     -0.41780835E-25
    0.298302151016         0.24096340E-06      0.74086606E-07     -0.85536637E-19      0.23305421E-13     -0.26907257E-25
    0.301442173658         0.24857086E-06      0.73011187E-07     -0.69738746E-19      0.23445427E-13     -0.22394578E-25
    0.304582196300         0.25636942E-06      0.71971199E-07     -0.11886052E-18      0.23590818E-13     -0.38960262E-25
    0.307722218942         0.26436283E-06      0.70945587E-07     -0.61236209E-19      0.23735013E-13     -0.20486718E-25
    0.310862241585         0.27255487E-06      0.69962164E-07     -0.88394559E-19      0.23887558E-13     -0.30181029E-25
    0.314002264227         0.28094936E-06      0.68983935E-07     -0.13972249E-18      0.24036198E-13     -0.48683762E-25
    0.317142286869         0.28955016E-06      0.68053635E-07     -0.51066734E-19      0.24195997E-13     -0.18156423E-25
    0.320282309511         0.29836118E-06      0.67121062E-07     -0.70840172E-19      0.24349538E-13     -0.25698722E-25
    0.323422332154         0.30738639E-06      0.66241632E-07     -0.71126671E-19      0.24517049E-13     -0.26325077E-25
    0.326562354796         0.31662976E-06      0.65353094E-07     -0.52843627E-19      0.24675974E-13     -0.19952659E-25
    0.329702377438         0.32609534E-06      0.64522072E-07     -0.75194675E-19      0.24851543E-13     -0.28962239E-25
    0.332842400080         0.33578719E-06      0.63676423E-07     -0.63874826E-19      0.25016508E-13     -0.25094454E-25
    0.335982422723         0.34570944E-06      0.62891516E-07     -0.73488254E-19      0.25200508E-13     -0.29446600E-25
    0.339122445365         0.35586624E-06      0.62087862E-07     -0.34054212E-19      0.25372280E-13     -0.13916295E-25
    0.342262468007         0.36626178E-06      0.61346748E-07     -0.21971796E-19      0.25565036E-13     -0.91563085E-26
    0.345402490650         0.37690029E-06      0.60584070E-07     -0.38845646E-19      0.25744354E-13     -0.16506914E-25
    0.348542513292         0.38778604E-06      0.59887004E-07     -0.67253494E-19      0.25947263E-13     -0.29138944E-25
    0.351682535934         0.39892335E-06      0.59160177E-07     -0.61662799E-19      0.26133084E-13     -0.27238578E-25
    0.354822558576         0.41031655E-06      0.58506819E-07     -0.78660211E-19      0.26347344E-13     -0.35423010E-25
    0.357962581219         0.42197002E-06      0.57819982E-07     -0.29720389E-19      0.26542661E-13     -0.13643349E-25
    0.361102603861         0.43388818E-06      0.57204202E-07     -0.55961620E-19      0.26766875E-13     -0.26185449E-25
    0.364242626503         0.44607547E-06      0.56557063E-07     -0.39863677E-19      0.26972858E-13     -0.19011548E-25
    0.367382649145         0.45853638E-06      0.55979323E-07     -0.55731115E-19      0.27208546E-13     -0.27087906E-25
    0.370522671788         0.47127541E-06      0.55370443E-07     -0.77188940E-19      0.27425878E-13     -0.38232933E-25
    0.373662694430         0.48429711E-06      0.54830095E-07     -0.51750917E-19      0.27674111E-13     -0.26119973E-25
    0.376802717072         0.49760605E-06      0.54259203E-07     -0.60861841E-19      0.27904072E-13     -0.31299634E-25
    0.379942739715         0.51120685E-06      0.53755474E-07     -0.78024376E-19      0.28165908E-13     -0.40881928E-25
    0.383082762357         0.52510413E-06      0.53222593E-07     -0.71998497E-19      0.28410011E-13     -0.38432514E-25
    0.386222784999         0.53930256E-06      0.52754849E-07     -0.58801993E-19      0.28686629E-13     -0.31974899E-25
    0.389362807641         0.55380682E-06      0.52260272E-07     -0.68122817E-19      0.28946632E-13     -0.37732795E-25
    0.392502830284         0.56862162E-06      0.51828120E-07     -0.62963610E-19      0.29239408E-13     -0.35521618E-25
    0.395642852926         0.58375171E-06      0.51372376E-07     -0.37195818E-19      0.29517328E-13     -0.21371820E-25
    0.398782875568         0.59920184E-06      0.50975680E-07     -0.70878134E-19      0.29827868E-13     -0.41473573E-25
    0.401922898210         0.61497679E-06      0.50559710E-07     -0.82519966E-19      0.30126113E-13     -0.49169700E-25
    0.405062920853         0.63108138E-06      0.50198576E-07     -0.46151114E-19      0.30456277E-13     -0.28000618E-25
    0.408202943495         0.64752043E-06      0.49823671E-07     -0.26549420E-19      0.30777661E-13     -0.16400418E-25
    0.411342966137         0.66429877E-06      0.49498420E-07     -0.57880697E-19      0.31129579E-13     -0.36401198E-25
    0.414482988779         0.68142128E-06      0.49166728E-07     -0.37270531E-19      0.31477688E-13     -0.23861465E-25
    0.417623011422         0.69889282E-06      0.48877793E-07     -0.72860225E-19      0.31853729E-13     -0.47483116E-25
    0.420763034064         0.71671828E-06      0.48592016E-07     -0.57916841E-19      0.32232824E-13     -0.38418315E-25
    0.423903056706         0.73490258E-06      0.48340161E-07      0.64545851E-20      0.32635770E-13      0.43576676E-26
    0.427043079349         0.75345064E-06      0.48104625E-07      0.14641538E-18      0.33051600E-13      0.10059870E-24
    0.430183101991         0.77236737E-06      0.47890476E-07      0.44997072E-19      0.33484381E-13      0.31461351E-25
    0.433323124633         0.79165771E-06      0.47711562E-07     -0.71395483E-19      0.33944683E-13     -0.50794754E-25
    0.436463147275         0.81132662E-06      0.47535173E-07     -0.35911859E-19      0.34410087E-13     -0.25996122E-25
    0.439603169918         0.83137904E-06      0.47423414E-07     -0.25565581E-19      0.34926383E-13     -0.18828532E-25
    0.442743192560         0.85181993E-06      0.47282710E-07     -0.48085374E-19      0.35425893E-13     -0.36027278E-25
    0.445883215202         0.87265424E-06      0.47257330E-07     -0.64607148E-19      0.36017437E-13     -0.49240698E-25
    0.449023237844         0.89388696E-06      0.47142730E-07      0.27521186E-19      0.36546943E-13      0.21335532E-25
    0.452163260487         0.91552302E-06      0.47244820E-07     -0.47076096E-19      0.37252098E-13     -0.37119061E-25
    0.455303283129         0.93756741E-06      0.47119483E-07     -0.37873627E-19      0.37785465E-13     -0.30371145E-25
    0.458443305771         0.96002506E-06      0.47460137E-07     -0.55306927E-19      0.38703342E-13     -0.45102333E-25
    0.461583328413         0.98290095E-06      0.47140085E-07     -0.30576738E-19      0.39090619E-13     -0.25355567E-25
    0.464723351056         0.10062000E-05      0.48182096E-07     -0.24836315E-19      0.40625438E-13     -0.20941102E-25
    0.467863373698         0.10299272E-05      0.45721891E-07     -0.35986019E-19      0.39195319E-13     -0.30849195E-25
    0.471003396340         0.10540874E-05      0.49743363E-07     -0.41684423E-19      0.43352114E-13     -0.36328622E-25
    0.474143418983         0.10786856E-05      0.50572575E-07     -0.32304276E-19      0.44804617E-13     -0.28619874E-25
    0.477283441625         0.11037267E-05      0.43640962E-07     -0.49813310E-19      0.39300858E-13     -0.44859364E-25
    0.480423464267         0.11292155E-05      0.46092140E-07     -0.46430621E-19      0.42189273E-13     -0.42499092E-25
    0.483563486909         0.11551570E-05      0.46859173E-07     -0.32929121E-19      0.43591787E-13     -0.30633047E-25
    0.486703509552         0.11815559E-05      0.47537875E-07     -0.45516296E-19      0.44941971E-13     -0.43030785E-25
    0.489843532194         0.12084172E-05      0.48178991E-07     -0.22062448E-19      0.46284948E-13     -0.21195115E-25
    0.492983554836         0.12357457E-05      0.48803154E-07     -0.69563829E-20      0.47639490E-13     -0.67905147E-26
    0.496123577478         0.12635461E-05      0.49456867E-07     -0.34099689E-19      0.49051282E-13     -0.33820045E-25
    0.499263600121         0.12918231E-05      0.50163662E-07     -0.41155340E-19      0.50545784E-13     -0.41468840E-25
    0.502403622763         0.13205817E-05      0.50911141E-07     -0.30267080E-19      0.52113215E-13     -0.30981723E-25
    0.505543645405         0.13498263E-05      0.51688439E-07     -0.44569418E-19      0.53744645E-13     -0.46342423E-25
    0.508683668048         0.13795618E-05      0.52612347E-07     -0.38879615E-19      0.55565290E-13     -0.41061788E-25
