 
 # Omega; pulse ft; proj flux t=    1000.25000000000     
    0.000000000000         0.64285036E-11      0.00000000E+00      0.00000000E+00      0.00000000E+00      0.00000000E+00      0.00000000E+00      0.00000000E+00
    0.003140022642         0.21245158E-10      0.48290074E-01     -0.35289389E-10      0.20250126E-10     -0.14798374E-19      0.63585855E-13     -0.46467231E-22
    0.006280045285         0.65709671E-10      0.82311448E-01     -0.56325152E-10      0.53378877E-10     -0.36526795E-19      0.23119674E-12     -0.16116219E-21
    0.009420067927         0.13986570E-09      0.69515054E-01     -0.10027791E-11      0.63970349E-10     -0.92279472E-21      0.43206508E-12     -0.16405979E-21
    0.012560090569         0.24378600E-09      0.54574834E-01     -0.41697557E-12      0.65652474E-10     -0.50161358E-21      0.63821534E-12     -0.16563487E-21
    0.015700113211         0.37757252E-09      0.45186834E-01     -0.66036603E-11      0.67352261E-10     -0.98429436E-20      0.84970296E-12     -0.19654193E-21
    0.018840135854         0.54135636E-09      0.38443980E-01     -0.71405327E-11      0.68465255E-10     -0.12716644E-19      0.10646854E-11     -0.23647248E-21
    0.021980158496         0.73529789E-09      0.33566512E-01     -0.38629496E-11      0.69595537E-10     -0.80092936E-20      0.12832170E-11     -0.26162185E-21
    0.025120181138         0.95958676E-09      0.29809390E-01     -0.40283764E-11      0.70576032E-10     -0.95374922E-20      0.15048273E-11     -0.29156979E-21
    0.028260203780         0.12144420E-08      0.26872618E-01      0.25020116E-12      0.71573813E-10      0.66639771E-21      0.17295707E-11     -0.28947728E-21
    0.031400226423         0.15001122E-08      0.24510535E-01     -0.96960600E-12      0.72574898E-10     -0.28709719E-20      0.19574575E-11     -0.29849220E-21
    0.034540249065         0.18168754E-08      0.22573416E-01     -0.75813596E-12      0.73593531E-10     -0.24716642E-20      0.21885429E-11     -0.30625328E-21
    0.037680271707         0.21650394E-08      0.20951704E-01      0.79939544E-12      0.74612881E-10      0.28467945E-20      0.24228290E-11     -0.29731428E-21
    0.040820294349         0.25449417E-08      0.19578055E-01     -0.66213840E-12      0.75650871E-10     -0.25585456E-20      0.26603745E-11     -0.30534817E-21
    0.043960316992         0.29569499E-08      0.18395979E-01     -0.95750001E-12      0.76691766E-10     -0.39917617E-20      0.29011883E-11     -0.31788240E-21
    0.047100339634         0.34014614E-08      0.17371214E-01      0.31625821E-12      0.77752497E-10      0.14155525E-20      0.31453329E-11     -0.31343753E-21
    0.050240362276         0.38789041E-08      0.16472676E-01     -0.24678136E-12      0.78824842E-10     -0.11808951E-20      0.33928447E-11     -0.31714557E-21
    0.053380384919         0.43897362E-08      0.15680083E-01     -0.30832810E-12      0.79918579E-10     -0.15714932E-20      0.36437909E-11     -0.32208009E-21
    0.056520407561         0.49344463E-08      0.14975232E-01      0.34059881E-12      0.81030660E-10      0.18429729E-20      0.38982290E-11     -0.31629311E-21
    0.059660430203         0.55135541E-08      0.14344997E-01     -0.51346235E-12      0.82165291E-10     -0.29410102E-20      0.41562299E-11     -0.32552795E-21
    0.062800452845         0.61276098E-08      0.13777838E-01     -0.35861213E-12      0.83320539E-10     -0.21686825E-20      0.44178582E-11     -0.33233766E-21
    0.065940475488         0.67771950E-08      0.13265285E-01     -0.38506144E-12      0.84500091E-10     -0.24528479E-20      0.46831904E-11     -0.34003966E-21
    0.069080498130         0.74629227E-08      0.12799791E-01     -0.89065860E-12      0.85703594E-10     -0.59635851E-20      0.49523017E-11     -0.35876545E-21
    0.072220520772         0.81854373E-08      0.12374556E-01     -0.96780793E-12      0.86926774E-10     -0.67985003E-20      0.52252537E-11     -0.38011290E-21
    0.075360543414         0.89454151E-08      0.11985803E-01     -0.93201183E-13      0.88179229E-10     -0.68567857E-21      0.55021385E-11     -0.38226595E-21
    0.078500566057         0.97435644E-08      0.11630155E-01     -0.63767484E-12      0.89469140E-10     -0.49055424E-20      0.57830736E-11     -0.39766946E-21
    0.081640588699         0.10580626E-07      0.11304517E-01     -0.66730260E-12      0.90802943E-10     -0.53600733E-20      0.60681969E-11     -0.41450021E-21
    0.084780611341         0.11457373E-07      0.11003184E-01     -0.15976222E-12      0.92161501E-10     -0.13381514E-20      0.63575861E-11     -0.41870204E-21
    0.087920633984         0.12374611E-07      0.10725964E-01     -0.19263858E-12      0.93566365E-10     -0.16804542E-20      0.66513866E-11     -0.42397870E-21
    0.091060656626         0.13333179E-07      0.10468500E-01     -0.38570364E-12      0.95001416E-10     -0.35002522E-20      0.69496932E-11     -0.43496957E-21
    0.094200679268         0.14333950E-07      0.10228036E-01      0.39615582E-13      0.96459897E-10      0.37361179E-21      0.72525795E-11     -0.43379642E-21
    0.097340701910         0.15377830E-07      0.10003809E-01     -0.75526739E-13      0.97950952E-10     -0.73950990E-21      0.75601477E-11     -0.43611850E-21
    0.100480724553         0.16465758E-07      0.97909602E-02     -0.15661584E-12      0.99441334E-10     -0.15906600E-20      0.78723957E-11     -0.44111321E-21
    0.103620747195         0.17598710E-07      0.95917390E-02      0.40815578E-13      0.10096577E-09      0.42963805E-21      0.81894305E-11     -0.43976414E-21
    0.106760769837         0.18777693E-07      0.94028108E-02      0.45884695E-13      0.10250166E-09      0.50019697E-21      0.85112880E-11     -0.43819351E-21
    0.109900792479         0.20003751E-07      0.92256457E-02     -0.11573352E-12      0.10407587E-09     -0.13056070E-20      0.88380886E-11     -0.44229314E-21
    0.113040815122         0.21277963E-07      0.90584858E-02     -0.16820446E-13      0.10568006E-09     -0.19623432E-21      0.91699264E-11     -0.44290932E-21
    0.116180837764         0.22601444E-07      0.89013640E-02     -0.46518565E-13      0.10732500E-09     -0.56088092E-21      0.95069294E-11     -0.44467050E-21
    0.119320860406         0.23975342E-07      0.87535270E-02     -0.99487805E-13      0.10901197E-09     -0.12389705E-20      0.98492294E-11     -0.44856090E-21
    0.122460883048         0.25400844E-07      0.86143115E-02      0.66997432E-13      0.11074242E-09      0.86129436E-21      0.10196963E-10     -0.44585641E-21
    0.125600905691         0.26879174E-07      0.84836156E-02     -0.10446454E-14      0.11252442E-09     -0.13855900E-22      0.10550292E-10     -0.44589992E-21
    0.128740928333         0.28411589E-07      0.83603480E-02     -0.44988512E-13      0.11435257E-09     -0.61535139E-21      0.10909362E-10     -0.44783214E-21
    0.131880950975         0.29999386E-07      0.82442667E-02     -0.12328152E-12      0.11623181E-09     -0.17380848E-20      0.11274333E-10     -0.45328976E-21
    0.135020973618         0.31643900E-07      0.81346866E-02     -0.90317612E-13      0.11816049E-09     -0.13119095E-20      0.11645359E-10     -0.45740919E-21
    0.138160996260         0.33346502E-07      0.80311404E-02     -0.18519574E-12      0.12013920E-09     -0.27703745E-20      0.12022599E-10     -0.46610823E-21
    0.141301018902         0.35108601E-07      0.79333618E-02     -0.54877856E-13      0.12217101E-09     -0.84509988E-21      0.12406219E-10     -0.46876186E-21
    0.144441041544         0.36931646E-07      0.78408652E-02     -0.18513392E-13      0.12425524E-09     -0.29338420E-21      0.12796383E-10     -0.46968309E-21
    0.147581064187         0.38817124E-07      0.77535323E-02     -0.78403031E-13      0.12639648E-09     -0.12781100E-20      0.13193271E-10     -0.47369639E-21
    0.150721086829         0.40766561E-07      0.76709250E-02     -0.77512620E-13      0.12859393E-09     -0.12994069E-20      0.13597059E-10     -0.47777655E-21
    0.153861109471         0.42781523E-07      0.75929777E-02     -0.77637622E-13      0.13085255E-09     -0.13379574E-20      0.14007939E-10     -0.48197777E-21
    0.157001132113         0.44863615E-07      0.75192694E-02     -0.76435361E-13      0.13317104E-09     -0.13537188E-20      0.14426099E-10     -0.48622848E-21
    0.160141154756         0.47014483E-07      0.74498363E-02     -0.19926926E-13      0.13555580E-09     -0.36258656E-21      0.14851747E-10     -0.48736701E-21
    0.163281177398         0.49235812E-07      0.73842110E-02      0.51129409E-14      0.13800403E-09      0.95556103E-22      0.15285083E-10     -0.48706696E-21
    0.166421200040         0.51529331E-07      0.73225166E-02     -0.32067453E-13      0.14052348E-09     -0.61539363E-21      0.15726330E-10     -0.48899931E-21
    0.169561222683         0.53896806E-07      0.72643051E-02      0.16720504E-13      0.14311107E-09      0.32940375E-21      0.16175702E-10     -0.48796498E-21
    0.172701245325         0.56340048E-07      0.72096956E-02     -0.32477938E-13      0.14577443E-09     -0.65667860E-21      0.16633437E-10     -0.49002696E-21
    0.175841267967         0.58860908E-07      0.71583388E-02     -0.33724968E-13      0.14851184E-09     -0.69968146E-21      0.17099767E-10     -0.49222398E-21
    0.178981290609         0.61461278E-07      0.71103369E-02     -0.30243505E-13      0.15133062E-09     -0.64367812E-21      0.17574949E-10     -0.49424514E-21
    0.182121313252         0.64143096E-07      0.70653030E-02     -0.15238358E-13      0.15422778E-09     -0.33263656E-21      0.18059227E-10     -0.49528963E-21
    0.185261335894         0.66908339E-07      0.70235120E-02     -0.82523824E-14      0.15721445E-09     -0.18472151E-21      0.18552884E-10     -0.49586966E-21
    0.188401358536         0.69759030E-07      0.69844734E-02     -0.32070032E-13      0.16028495E-09     -0.73596721E-21      0.19056183E-10     -0.49818061E-21
    0.191541381178         0.72697233E-07      0.69485414E-02     -0.11280402E-13      0.16345251E-09     -0.26535209E-21      0.19569427E-10     -0.49901382E-21
    0.194681403821         0.75725056E-07      0.69152191E-02     -0.37185957E-13      0.16671081E-09     -0.89647210E-21      0.20092903E-10     -0.50182876E-21
    0.197821426463         0.78844653E-07      0.68848687E-02     -0.93573166E-14      0.17007374E-09     -0.23114948E-21      0.20626938E-10     -0.50255458E-21
    0.200961449105         0.82058219E-07      0.68570237E-02      0.20657135E-13      0.17353523E-09      0.52278378E-21      0.21171843E-10     -0.50091303E-21
    0.204101471747         0.85367996E-07      0.68320641E-02     -0.26621344E-13      0.17711019E-09     -0.69011521E-21      0.21727973E-10     -0.50308000E-21
    0.207241494390         0.88776268E-07      0.68095281E-02      0.18765317E-13      0.18079227E-09      0.49821724E-21      0.22295665E-10     -0.50151559E-21
    0.210381517032         0.92285368E-07      0.67898152E-02      0.28475832E-13      0.18459753E-09      0.77418432E-21      0.22875305E-10     -0.49908463E-21
    0.213521539674         0.95897669E-07      0.67724749E-02      0.93863421E-14      0.18851957E-09      0.26127955E-21      0.23467261E-10     -0.49826421E-21
    0.216661562317         0.99615594E-07      0.67579182E-02     -0.10431559E-13      0.19257551E-09     -0.29726061E-21      0.24071952E-10     -0.49919762E-21
    0.219801584959         0.10344161E-06      0.67457076E-02     -0.73080492E-14      0.19675901E-09     -0.21316141E-21      0.24689780E-10     -0.49986695E-21
    0.222941607601         0.10737822E-06      0.67362675E-02     -0.15079128E-13      0.20108843E-09     -0.45013625E-21      0.25321202E-10     -0.50128038E-21
    0.226081630243         0.11142800E-06      0.67291772E-02     -0.25278689E-13      0.20555768E-09     -0.77219373E-21      0.25966658E-10     -0.50370509E-21
    0.229221652886         0.11559354E-06      0.67248624E-02     -0.14953547E-14      0.21018611E-09     -0.46737430E-22      0.26626647E-10     -0.50385185E-21
    0.232361675528         0.11987749E-06      0.67229174E-02     -0.21583145E-13      0.21496790E-09     -0.69012947E-21      0.27301651E-10     -0.50601887E-21
    0.235501698170         0.12428256E-06      0.67237812E-02     -0.18451803E-13      0.21992388E-09     -0.60352829E-21      0.27992217E-10     -0.50791396E-21
    0.238641720812         0.12881148E-06      0.67270706E-02     -0.80080720E-14      0.22504888E-09     -0.26790378E-21      0.28698876E-10     -0.50875519E-21
    0.241781743455         0.13346705E-06      0.67332123E-02     -0.25002988E-13      0.23036449E-09     -0.85543132E-21      0.29422226E-10     -0.51144126E-21
    0.244921766097         0.13825210E-06      0.67418503E-02     -0.31463800E-13      0.23586642E-09     -0.11007741E-20      0.30162852E-10     -0.51489772E-21
    0.248061788739         0.14316951E-06      0.67534156E-02     -0.29372314E-13      0.24157769E-09     -0.10506825E-20      0.30921411E-10     -0.51819688E-21
    0.251201811381         0.14822222E-06      0.67675921E-02     -0.45633260E-13      0.24749555E-09     -0.16688400E-20      0.31698553E-10     -0.52343708E-21
    0.254341834024         0.15341320E-06      0.67847765E-02     -0.46881519E-14      0.25364316E-09     -0.17526262E-21      0.32494998E-10     -0.52398741E-21
    0.257481856666         0.15874548E-06      0.68047153E-02     -0.13206135E-13      0.26002037E-09     -0.50463008E-21      0.33311468E-10     -0.52557196E-21
    0.260621879308         0.16422213E-06      0.68277813E-02     -0.31094986E-13      0.26665092E-09     -0.12143779E-20      0.34148758E-10     -0.52938513E-21
    0.263761901951         0.16984627E-06      0.68537801E-02      0.20164233E-13      0.27353744E-09      0.80476360E-21      0.35007671E-10     -0.52685815E-21
    0.266901924593         0.17562106E-06      0.68830261E-02      0.14494909E-13      0.28070294E-09      0.59113007E-21      0.35889085E-10     -0.52500199E-21
    0.270041947235         0.18154971E-06      0.69154228E-02      0.53671995E-14      0.28815472E-09      0.22364271E-21      0.36793897E-10     -0.52429975E-21
    0.273181969877         0.18763548E-06      0.69512364E-02     -0.64351077E-14      0.29591547E-09     -0.27394377E-21      0.37723079E-10     -0.52515994E-21
    0.276321992520         0.19388169E-06      0.69904675E-02     -0.80478657E-14      0.30399766E-09     -0.34998122E-21      0.38677638E-10     -0.52625889E-21
    0.279462015162         0.20029168E-06      0.70332951E-02     -0.16478136E-13      0.31242201E-09     -0.73196593E-21      0.39658650E-10     -0.52855728E-21
    0.282602037804         0.20686884E-06      0.70798639E-02     -0.34387983E-13      0.32120876E-09     -0.15601601E-20      0.40667253E-10     -0.53345622E-21
    0.285742060446         0.21361663E-06      0.71302367E-02     -0.44081245E-13      0.33037526E-09     -0.20424782E-20      0.41704639E-10     -0.53986964E-21
    0.288882083089         0.22053854E-06      0.71847527E-02     -0.48942903E-13      0.33995262E-09     -0.23157746E-20      0.42772098E-10     -0.54714123E-21
    0.292022105731         0.22763810E-06      0.72433177E-02     -0.65519546E-14      0.34995277E-09     -0.31655034E-21      0.43870958E-10     -0.54813520E-21
    0.295162128373         0.23491890E-06      0.73064968E-02     -0.19810981E-13      0.36042026E-09     -0.97725067E-21      0.45002685E-10     -0.55120379E-21
    0.298302151016         0.24238456E-06      0.73739986E-02     -0.25828211E-13      0.37135930E-09     -0.13007253E-20      0.46168762E-10     -0.55528810E-21
    0.301442173658         0.25003877E-06      0.74466834E-02     -0.34731855E-14      0.38283259E-09     -0.17855581E-21      0.47370865E-10     -0.55584877E-21
    0.304582196300         0.25788523E-06      0.75240066E-02     -0.53364873E-14      0.39483332E-09     -0.28004003E-21      0.48610650E-10     -0.55672810E-21
    0.307722218942         0.26592771E-06      0.76072092E-02     -0.12256813E-13      0.40744855E-09     -0.65648526E-21      0.49890048E-10     -0.55878948E-21
    0.310862241585         0.27417002E-06      0.76954040E-02      0.59411148E-15      0.42065504E-09      0.32476006E-22      0.51210914E-10     -0.55868750E-21
    0.314002264227         0.28261602E-06      0.77903134E-02     -0.13496599E-14      0.43457186E-09     -0.75288910E-22      0.52575480E-10     -0.55892391E-21
    0.317142286869         0.29126959E-06      0.78906183E-02     -0.76293047E-14      0.44915341E-09     -0.43427880E-21      0.53985832E-10     -0.56028756E-21
    0.320282309511         0.30013468E-06      0.79986487E-02     -0.68093466E-14      0.46456076E-09     -0.39548621E-21      0.55444563E-10     -0.56152939E-21
    0.323422332154         0.30921526E-06      0.81125355E-02     -0.58045212E-14      0.48071780E-09     -0.34395371E-21      0.56954028E-10     -0.56260942E-21
    0.326562354796         0.31851537E-06      0.82354098E-02     -0.20003440E-13      0.49784272E-09     -0.12092376E-20      0.58517265E-10     -0.56640645E-21
    0.329702377438         0.32803906E-06      0.83646505E-02      0.43833371E-14      0.51581499E-09      0.27030310E-21      0.60136936E-10     -0.56555769E-21
    0.332842400080         0.33779045E-06      0.85044109E-02      0.19347816E-14      0.53492837E-09      0.12169797E-21      0.61816623E-10     -0.56517556E-21
    0.335982422723         0.34777368E-06      0.86511279E-02     -0.55261493E-14      0.55500329E-09     -0.35452383E-21      0.63559346E-10     -0.56628877E-21
    0.339122445365         0.35799293E-06      0.88102734E-02     -0.74770938E-14      0.57643452E-09     -0.48920786E-21      0.65369364E-10     -0.56782489E-21
    0.342262468007         0.36845245E-06      0.89770065E-02     -0.16675849E-13      0.59895801E-09     -0.11126352E-20      0.67250105E-10     -0.57131859E-21
    0.345402490650         0.37915648E-06      0.91585845E-02     -0.15985768E-13      0.62310904E-09     -0.10876000E-20      0.69206682E-10     -0.57473368E-21
    0.348542513292         0.39010935E-06      0.93484600E-02     -0.14911770E-13      0.64850502E-09     -0.10344332E-20      0.71243002E-10     -0.57798183E-21
    0.351682535934         0.40131538E-06      0.95561975E-02     -0.12766682E-13      0.67586941E-09     -0.90293340E-21      0.73365248E-10     -0.58081706E-21
    0.354822558576         0.41277896E-06      0.97730469E-02     -0.18802978E-13      0.70465897E-09     -0.13557376E-20      0.75577893E-10     -0.58507410E-21
    0.357962581219         0.42450450E-06      0.10011613E-01     -0.42313524E-14      0.73585356E-09     -0.31100441E-21      0.77888490E-10     -0.58605066E-21
    0.361102603861         0.43649646E-06      0.10260180E-01     -0.10176113E-13      0.76868386E-09     -0.76238564E-21      0.80302174E-10     -0.58844457E-21
    0.364242626503         0.44875932E-06      0.10535435E-01     -0.11907014E-13      0.80448483E-09     -0.90921845E-21      0.82828275E-10     -0.59129954E-21
    0.367382649145         0.46129760E-06      0.10821657E-01      0.27291206E-15      0.84216847E-09      0.21238701E-22      0.85472703E-10     -0.59123285E-21
    0.370522671788         0.47411586E-06      0.11141042E-01     -0.31625607E-14      0.88356434E-09     -0.25081369E-21      0.88247115E-10     -0.59202041E-21
    0.373662694430         0.48721866E-06      0.11472444E-01     -0.94089302E-15      0.92713458E-09     -0.76037371E-22      0.91158338E-10     -0.59225917E-21
    0.376802717072         0.50061064E-06      0.11845601E-01     -0.54786012E-14      0.97540687E-09     -0.45112658E-21      0.94221138E-10     -0.59367572E-21
    0.379942739715         0.51429644E-06      0.12231848E-01     -0.18347494E-14      0.10261955E-08     -0.15392699E-21      0.97443415E-10     -0.59415905E-21
    0.383082762357         0.52828072E-06      0.12671378E-01     -0.54595409E-14      0.10830254E-08     -0.46662817E-21      0.10084414E-09     -0.59562427E-21
