 
 # Omega; pulse ft; proj flux t=    1000.25000000000     
    0.000000000000         0.13861783E-10      0.00000000E+00      0.00000000E+00      0.12915300E-10      0.66174449E-23      0.32272113E-14      0.16535345E-26
    0.003140022642         0.28547099E-10      0.19160523E-02      0.40972338E-15      0.13567164E-10      0.29011654E-23      0.66173073E-14      0.23784633E-26
    0.006280045285         0.72617464E-10      0.16185859E-02      0.39079809E-15      0.14576948E-10      0.35195187E-23      0.10259723E-13      0.32579033E-26
    0.009420067927         0.14611614E-09      0.12492686E-02      0.52107221E-15      0.15092199E-10      0.62949838E-23      0.14030887E-13      0.48308628E-26
    0.012560090569         0.24911526E-09      0.99150613E-03      0.14574930E-15      0.15316358E-10      0.22514721E-23      0.17858063E-13      0.53934495E-26
    0.015700113211         0.38171583E-09      0.82337682E-03      0.11371551E-15      0.15591524E-10      0.21533252E-23      0.21753996E-13      0.59315118E-26
    0.018840135854         0.54404780E-09      0.70038049E-03      0.26356026E-15      0.15752142E-10      0.59276902E-23      0.25690064E-13      0.74126937E-26
    0.021980158496         0.73627010E-09      0.61188760E-03     -0.15921699E-16      0.15963589E-10     -0.41538260E-24      0.29678966E-13      0.73089000E-26
    0.025120181138         0.95857070E-09      0.54311476E-03     -0.30759055E-16      0.16141561E-10     -0.91416988E-24      0.33712340E-13      0.70804717E-26
    0.028260203780         0.12111667E-08      0.49074257E-03      0.16853332E-15      0.16380792E-10      0.56255754E-23      0.37805491E-13      0.84861627E-26
    0.031400226423         0.14943044E-08      0.44505061E-03      0.15649484E-15      0.16495605E-10      0.58004122E-23      0.41927331E-13      0.99355411E-26
    0.034540249065         0.18082594E-08      0.40906815E-03      0.13383759E-16      0.16679517E-10      0.54571504E-24      0.46095127E-13      0.10071902E-25
    0.037680271707         0.21533368E-08      0.37739251E-03      0.15016954E-15      0.16797465E-10      0.66839364E-23      0.50292395E-13      0.11742051E-25
    0.040820294349         0.25298710E-08      0.35141101E-03      0.72631974E-16      0.16962511E-10      0.35059251E-23      0.54530903E-13      0.12618094E-25
    0.043960316992         0.29382263E-08      0.32840983E-03      0.71153830E-16      0.17095945E-10      0.37040364E-23      0.58802753E-13      0.13543640E-25
    0.047100339634         0.33787968E-08      0.30897123E-03      0.14669954E-15      0.17262695E-10      0.81963279E-23      0.63116271E-13      0.15591698E-25
    0.050240362276         0.38520063E-08      0.29146716E-03      0.64725967E-16      0.17405095E-10      0.38651408E-23      0.67465370E-13      0.16557500E-25
    0.053380384919         0.43583091E-08      0.27639407E-03      0.57988305E-16      0.17575900E-10      0.36874767E-23      0.71857149E-13      0.17478909E-25
    0.056520407561         0.48981894E-08      0.26258617E-03      0.13358708E-15      0.17723712E-10      0.90166928E-23      0.76285862E-13      0.19731956E-25
    0.059660430203         0.54721621E-08      0.25054748E-03      0.69408236E-16      0.17898439E-10      0.49583379E-23      0.80758236E-13      0.20970921E-25
    0.062800452845         0.60807727E-08      0.23935824E-03      0.60489398E-16      0.18050819E-10      0.45617112E-23      0.85268685E-13      0.22110778E-25
    0.065940475488         0.67245976E-08      0.22952622E-03      0.40554058E-16      0.18230520E-10      0.32210768E-23      0.89824038E-13      0.22915645E-25
    0.069080498130         0.74042442E-08      0.22029175E-03      0.13771005E-16      0.18389759E-10      0.11495912E-23      0.94419180E-13      0.23202899E-25
    0.072220520772         0.81203513E-08      0.21226333E-03     -0.14052075E-16      0.18588387E-10     -0.12305725E-23      0.99063955E-13      0.22895410E-25
    0.075360543414         0.88735891E-08      0.20391190E-03      0.25332698E-16      0.18700379E-10      0.23232143E-23      0.10373671E-12      0.23475923E-25
    0.078500566057         0.96646596E-08      0.19653316E-03     -0.13217734E-16      0.18845261E-10     -0.12674281E-23      0.10844567E-12      0.23159225E-25
    0.081640588699         0.10494297E-07      0.18978123E-03     -0.41430477E-16      0.18999975E-10     -0.41478180E-23      0.11319329E-12      0.22122788E-25
    0.084780611341         0.11363267E-07      0.18362069E-03      0.65176141E-16      0.19168178E-10      0.68037423E-23      0.11798294E-12      0.23822874E-25
    0.087920633984         0.12272369E-07      0.17754560E-03      0.64532735E-17      0.19301900E-10      0.70156871E-24      0.12280601E-12      0.23998178E-25
    0.091060656626         0.13222435E-07      0.17185344E-03      0.13850741E-16      0.19435307E-10      0.15664127E-23      0.12766241E-12      0.24389586E-25
    0.094200679268         0.14214328E-07      0.16678973E-03      0.60393676E-16      0.19601719E-10      0.70976782E-23      0.13256039E-12      0.26163119E-25
    0.097340701910         0.15248947E-07      0.16171463E-03      0.29682154E-16      0.19730915E-10      0.36215405E-23      0.13749065E-12      0.27068051E-25
    0.100480724553         0.16327224E-07      0.15770948E-03      0.15231202E-16      0.19959053E-10      0.19275974E-23      0.14247792E-12      0.27549710E-25
    0.103620747195         0.17450124E-07      0.15349901E-03      0.76181267E-16      0.20133066E-10      0.99920025E-23      0.14750867E-12      0.30046462E-25
    0.106760769837         0.18618647E-07      0.15010080E-03      0.48140973E-16      0.20387876E-10      0.65388870E-23      0.15260309E-12      0.31680367E-25
    0.109900792479         0.19833827E-07      0.14655115E-03      0.37545234E-16      0.20599064E-10      0.52773154E-23      0.15775028E-12      0.32999036E-25
    0.113040815122         0.21096733E-07      0.14353641E-03      0.42460950E-16      0.20863854E-10      0.61719467E-23      0.16296364E-12      0.34541252E-25
    0.116180837764         0.22408470E-07      0.14048850E-03      0.17444198E-16      0.21104302E-10      0.26204823E-23      0.16823708E-12      0.35196045E-25
    0.119320860406         0.23770176E-07      0.13769358E-03      0.13078305E-16      0.21363984E-10      0.20291774E-23      0.17357541E-12      0.35703086E-25
    0.122460883048         0.25183029E-07      0.13498042E-03      0.53874058E-16      0.21618914E-10      0.86286489E-23      0.17897743E-12      0.37859170E-25
    0.125600905691         0.26648238E-07      0.13233418E-03      0.34796063E-16      0.21867558E-10      0.57498746E-23      0.18444159E-12      0.39295921E-25
    0.128740928333         0.28167053E-07      0.12982302E-03      0.22942778E-16      0.22122236E-10      0.39095189E-23      0.18996939E-12      0.40272812E-25
    0.131880950975         0.29740759E-07      0.12735601E-03      0.24835427E-16      0.22368762E-10      0.43620853E-23      0.19555878E-12      0.41362788E-25
    0.135020973618         0.31370676E-07      0.12501864E-03      0.91355974E-17      0.22622988E-10      0.16531495E-23      0.20121170E-12      0.41775869E-25
    0.138160996260         0.33058166E-07      0.12274763E-03     -0.64597198E-17      0.22874886E-10     -0.12038144E-23      0.20692757E-12      0.41475066E-25
    0.141301018902         0.34804624E-07      0.12058557E-03      0.34213139E-16      0.23133404E-10      0.65635247E-23      0.21270803E-12      0.43115127E-25
    0.144441041544         0.36611487E-07      0.11849332E-03      0.23448422E-16      0.23392312E-10      0.46290610E-23      0.21855318E-12      0.44271814E-25
    0.147581064187         0.38480227E-07      0.11649422E-03      0.19348921E-16      0.23657230E-10      0.39293099E-23      0.22446454E-12      0.45253650E-25
    0.150721086829         0.40412359E-07      0.11455875E-03      0.14683645E-16      0.23923295E-10      0.30663844E-23      0.23044237E-12      0.46019863E-25
    0.153861109471         0.42409432E-07      0.11270426E-03      0.11794581E-16      0.24195048E-10      0.25320289E-23      0.23648811E-12      0.46652554E-25
    0.157001132113         0.44473040E-07      0.11090979E-03      0.37108857E-17      0.24469012E-10      0.81869878E-24      0.24260231E-12      0.46857127E-25
    0.160141154756         0.46604811E-07      0.10918433E-03      0.28901084E-16      0.24748031E-10      0.65508019E-23      0.24878622E-12      0.48494009E-25
    0.163281177398         0.48806419E-07      0.10751975E-03      0.11717584E-16      0.25031197E-10      0.27279189E-23      0.25504089E-12      0.49175648E-25
    0.166421200040         0.51079573E-07      0.10591211E-03      0.89429569E-17      0.25318429E-10      0.21378257E-23      0.26136734E-12      0.49709837E-25
    0.169561222683         0.53426027E-07      0.10436730E-03      0.32648821E-16      0.25611991E-10      0.80121005E-23      0.26776713E-12      0.51711861E-25
    0.172701245325         0.55847574E-07      0.10286929E-03      0.16751706E-16      0.25908790E-10      0.42191058E-23      0.27424110E-12      0.52766110E-25
    0.175841267967         0.58346049E-07      0.10143587E-03      0.11438760E-16      0.26214087E-10      0.29561206E-23      0.28079134E-12      0.53504771E-25
    0.178981290609         0.60923329E-07      0.10003700E-03      0.66683504E-17      0.26520957E-10      0.17678562E-23      0.28741827E-12      0.53946514E-25
    0.182121313252         0.63581331E-07      0.98709804E-04      0.14118909E-16      0.26839948E-10      0.38390389E-23      0.29412490E-12      0.54905794E-25
    0.185261335894         0.66322018E-07      0.97402178E-04      0.77716752E-17      0.27157772E-10      0.21669062E-23      0.30091095E-12      0.55447250E-25
    0.188401358536         0.69147392E-07      0.96171934E-04      0.23963593E-17      0.27491135E-10      0.68500894E-24      0.30778030E-12      0.55618417E-25
    0.191541381178         0.72059501E-07      0.94950907E-04      0.12434946E-16      0.27821484E-10      0.36435529E-23      0.31473220E-12      0.56528850E-25
    0.194681403821         0.75060434E-07      0.93809306E-04      0.10051393E-16      0.28169884E-10      0.30183207E-23      0.32177115E-12      0.57283053E-25
    0.197821426463         0.78152324E-07      0.92669558E-04      0.20728073E-16      0.28514004E-10      0.63779341E-23      0.32889609E-12      0.58876740E-25
    0.200961449105         0.81337348E-07      0.91610028E-04      0.16097874E-16      0.28878379E-10      0.50745592E-23      0.33611207E-12      0.60144746E-25
    0.204101471747         0.84617728E-07      0.90546443E-04      0.62091822E-17      0.29237427E-10      0.20049436E-23      0.34341778E-12      0.60645731E-25
    0.207241494390         0.87995729E-07      0.89563300E-04      0.27604498E-16      0.29618803E-10      0.91288751E-23      0.35081878E-12      0.62926809E-25
    0.210381517032         0.91473660E-07      0.88571616E-04      0.21697507E-16      0.29994082E-10      0.73476903E-23      0.35831355E-12      0.64762814E-25
    0.213521539674         0.95053876E-07      0.87659626E-04      0.18470700E-16      0.30393470E-10      0.64041874E-23      0.36590812E-12      0.66363060E-25
    0.216661562317         0.98738776E-07      0.86735417E-04      0.14946588E-16      0.30786114E-10      0.53051843E-23      0.37360080E-12      0.67688694E-25
    0.219801584959         0.10253081E-06      0.85890009E-04      0.10949302E-16      0.31204608E-10      0.39779794E-23      0.38139806E-12      0.68682692E-25
    0.222941607601         0.10643245E-06      0.85029418E-04      0.13903078E-16      0.31615838E-10      0.51694749E-23      0.38929807E-12      0.69974414E-25
    0.226081630243         0.11044626E-06      0.84246520E-04      0.50433274E-17      0.32054590E-10      0.19189136E-23      0.39730771E-12      0.70453903E-25
    0.229221652886         0.11457479E-06      0.83446228E-04      0.33967461E-17      0.32485735E-10      0.13223581E-23      0.40542508E-12      0.70784327E-25
    0.232361675528         0.11882069E-06      0.82722213E-04      0.33324054E-17      0.32945968E-10      0.13272048E-23      0.41365746E-12      0.71115963E-25
    0.235501698170         0.12318663E-06      0.81979067E-04      0.18487602E-16      0.33398352E-10      0.75318672E-23      0.42200287E-12      0.72997989E-25
    0.238641720812         0.12767532E-06      0.81311038E-04      0.12955636E-16      0.33881499E-10      0.53984844E-23      0.43046902E-12      0.74346935E-25
    0.241781743455         0.13228953E-06      0.80622464E-04      0.74970840E-17      0.34356631E-10      0.31948236E-23      0.43905388E-12      0.75145242E-25
    0.244921766097         0.13703207E-06      0.80007478E-04     -0.17351174E-17      0.34864059E-10     -0.75609478E-24      0.44776554E-12      0.74956313E-25
    0.248061788739         0.14190580E-06      0.79371054E-04     -0.15483368E-17      0.35363477E-10     -0.68985571E-24      0.45660199E-12      0.74783935E-25
    0.251201811381         0.14691362E-06      0.78807194E-04     -0.98193575E-17      0.35896963E-10     -0.44727530E-23      0.46557175E-12      0.73666306E-25
    0.254341834024         0.15205849E-06      0.78220757E-04      0.96404070E-17      0.36422305E-10      0.44889089E-23      0.47467277E-12      0.74787972E-25
    0.257481856666         0.15734340E-06      0.77706243E-04      0.26086740E-17      0.36983700E-10      0.12415787E-23      0.48391408E-12      0.75098211E-25
    0.260621879308         0.16277140E-06      0.77167965E-04      0.30838449E-17      0.37536762E-10      0.15000727E-23      0.49329358E-12      0.75473042E-25
    0.263761901951         0.16834557E-06      0.76701437E-04      0.27141053E-16      0.38128144E-10      0.13491768E-22      0.50282085E-12      0.78844299E-25
    0.266901924593         0.17406906E-06      0.76209714E-04      0.16644038E-16      0.38710854E-10      0.84543675E-23      0.51249373E-12      0.80956834E-25
    0.270041947235         0.17994505E-06      0.75790332E-04      0.20305634E-16      0.39334625E-10      0.10538475E-22      0.52232247E-12      0.83590136E-25
    0.273181969877         0.18597676E-06      0.75343819E-04      0.76022431E-17      0.39949083E-10      0.40308899E-23      0.53230475E-12      0.84597355E-25
    0.276321992520         0.19216747E-06      0.74971035E-04      0.16434822E-17      0.40607895E-10      0.89018851E-24      0.54245165E-12      0.84819791E-25
    0.279462015162         0.19852052E-06      0.74568797E-04      0.29040228E-17      0.41256491E-10      0.16067014E-23      0.55276062E-12      0.85221266E-25
    0.282602037804         0.20503926E-06      0.74242688E-04     -0.32035240E-17      0.41953477E-10     -0.18102654E-23      0.56324374E-12      0.84768926E-25
    0.285742060446         0.21172710E-06      0.73884556E-04     -0.67509179E-17      0.42639145E-10     -0.38959884E-23      0.57389820E-12      0.83795415E-25
    0.288882083089         0.21858752E-06      0.73604295E-04     -0.11264430E-16      0.43377094E-10     -0.66384475E-23      0.58473706E-12      0.82136633E-25
    0.292022105731         0.22562402E-06      0.73289040E-04      0.10671989E-16      0.44102293E-10      0.64219589E-23      0.59575712E-12      0.83741320E-25
    0.295162128373         0.23284014E-06      0.73055961E-04      0.64384413E-17      0.44885432E-10      0.39557651E-23      0.60697287E-12      0.84729767E-25
    0.298302151016         0.24023948E-06      0.72783604E-04      0.10302671E-17      0.45653502E-10      0.64623485E-24      0.61838054E-12      0.84891245E-25
    0.301442173658         0.24782569E-06      0.72598859E-04      0.15252177E-16      0.46486265E-10      0.97662242E-23      0.62999630E-12      0.87331581E-25
    0.304582196300         0.25560245E-06      0.72369390E-04      0.56085660E-17      0.47300743E-10      0.36657672E-23      0.64181558E-12      0.88247565E-25
    0.307722218942         0.26357350E-06      0.72234628E-04      0.12108908E-17      0.48188217E-10      0.80779357E-24      0.65385661E-12      0.88449412E-25
    0.310862241585         0.27174260E-06      0.72047950E-04      0.15208220E-16      0.49052813E-10      0.10354298E-22      0.66611369E-12      0.91036693E-25
    0.314002264227         0.28011357E-06      0.71965683E-04      0.10438211E-16      0.50001077E-10      0.72523706E-23      0.67860771E-12      0.92848880E-25
    0.317142286869         0.28869027E-06      0.71822991E-04      0.54963851E-17      0.50920660E-10      0.38967962E-23      0.69133151E-12      0.93822592E-25
    0.320282309511         0.29747662E-06      0.71795544E-04      0.68608698E-17      0.51936169E-10      0.49630837E-23      0.70430906E-12      0.95062743E-25
    0.323422332154         0.30647655E-06      0.71697379E-04      0.45247135E-17      0.52915519E-10      0.33394186E-23      0.71753133E-12      0.95897180E-25
    0.326562354796         0.31569405E-06      0.71728367E-04     -0.31499498E-17      0.54006217E-10     -0.23716819E-23      0.73102614E-12      0.95304556E-25
    0.329702377438         0.32513315E-06      0.71676007E-04      0.76924314E-17      0.55051038E-10      0.59082021E-23      0.74478202E-12      0.96780868E-25
    0.332842400080         0.33479793E-06      0.71769681E-04      0.32438626E-17      0.56226062E-10      0.25413186E-23      0.75883151E-12      0.97415880E-25
    0.335982422723         0.34469248E-06      0.71764474E-04      0.63144361E-17      0.57342589E-10      0.50454786E-23      0.77316000E-12      0.98676620E-25
    0.339122445365         0.35482098E-06      0.71927368E-04      0.22938153E-17      0.58613744E-10      0.18692343E-23      0.78780611E-12      0.99143695E-25
    0.342262468007         0.36518760E-06      0.71969511E-04      0.97205561E-18      0.59807801E-10      0.80779357E-24      0.80275059E-12      0.99345542E-25
    0.345402490650         0.37579657E-06      0.72208473E-04      0.12392641E-18      0.61188252E-10      0.10501316E-24      0.81804000E-12      0.99371782E-25
    0.348542513292         0.38665215E-06      0.72302655E-04      0.75711343E-17      0.62469993E-10      0.65415123E-23      0.83364970E-12      0.10100634E-24
    0.351682535934         0.39775867E-06      0.72623779E-04     -0.24777891E-17      0.63973517E-10     -0.21826582E-23      0.84963508E-12      0.10046095E-24
    0.354822558576         0.40912044E-06      0.72773211E-04     -0.46432909E-17      0.65352775E-10     -0.41698304E-23      0.86596511E-12      0.99419015E-25
    0.357962581219         0.42074186E-06      0.73187449E-04     -0.55768227E-18      0.66998833E-10     -0.51052553E-24      0.88270645E-12      0.99291447E-25
    0.361102603861         0.43262732E-06      0.73395113E-04     -0.25451411E-17      0.68486190E-10     -0.23749131E-23      0.89981944E-12      0.98698016E-25
    0.364242626503         0.44478129E-06      0.73915488E-04     -0.12298742E-17      0.70298122E-10     -0.11696851E-23      0.91738519E-12      0.98405740E-25
    0.367382649145         0.45720823E-06      0.74185653E-04      0.66821852E-17      0.71906451E-10      0.64768888E-23      0.93535282E-12      0.10002415E-24
    0.370522671788         0.46991265E-06      0.74828276E-04      0.77200034E-18      0.73912966E-10      0.76255713E-24      0.95382183E-12      0.10021470E-24
    0.373662694430         0.48289911E-06      0.75166296E-04      0.44814298E-17      0.75657564E-10      0.45107193E-23      0.97272676E-12      0.10134181E-24
    0.376802717072         0.49617218E-06      0.75951790E-04     -0.14760432E-17      0.77894884E-10     -0.15138051E-23      0.99219075E-12      0.10096355E-24
    0.379942739715         0.50973645E-06      0.76364182E-04      0.13760693E-17      0.79793917E-10      0.14378725E-23      0.10121293E-11      0.10132284E-24
    0.383082762357         0.52359657E-06      0.77318820E-04      0.28228422E-18      0.82307979E-10      0.30049921E-24      0.10326960E-11      0.10139793E-24
