 
 # eight columns.
 # Omega (column 1); |pulse ft|^2 (2); cross section (Mb) (3); flux (5); flux in
 tegral domega (7)
 
  0.0000      0.138618E-10      0.000000E+00      0.000000E+00      0.120664E-07     -0.254110E-20      0.301509E-11     -0.634957E-24
  0.0031      0.285471E-10      0.170668E+01     -0.656836E-12      0.120847E-07     -0.465092E-20      0.603475E-11     -0.179711E-23
  0.0063      0.726175E-10      0.135109E+01     -0.731461E-12      0.121679E-07     -0.658752E-20      0.907521E-11     -0.344316E-23
  0.0094      0.146116E-09      0.101614E+01     -0.260510E-12      0.122758E-07     -0.314718E-20      0.121426E-10     -0.422956E-23
  0.0126      0.249115E-09      0.801427E+00     -0.409212E-12      0.123801E-07     -0.632133E-20      0.152361E-10     -0.580911E-23
  0.0157      0.381716E-09      0.659471E+00     -0.373480E-12      0.124878E-07     -0.707225E-20      0.183565E-10     -0.757629E-23
  0.0188      0.544048E-09      0.560041E+00     -0.217245E-12      0.125958E-07     -0.488603E-20      0.215039E-10     -0.879718E-23
  0.0220      0.736270E-09      0.487013E+00     -0.236108E-12      0.127057E-07     -0.615983E-20      0.246787E-10     -0.103364E-22
  0.0251      0.958571E-09      0.431245E+00     -0.274287E-12      0.128168E-07     -0.815192E-20      0.278813E-10     -0.123733E-22
  0.0283      0.121117E-08      0.387337E+00     -0.956493E-13      0.129292E-07     -0.319274E-20      0.311120E-10     -0.131711E-22
  0.0314      0.149430E-08      0.351926E+00     -0.916913E-13      0.130440E-07     -0.339850E-20      0.343713E-10     -0.140203E-22
  0.0345      0.180826E-08      0.322749E+00     -0.118781E-12      0.131599E-07     -0.484325E-20      0.376597E-10     -0.152305E-22
  0.0377      0.215334E-08      0.298322E+00     -0.652163E-13      0.132781E-07     -0.290273E-20      0.409775E-10     -0.159558E-22
  0.0408      0.252987E-08      0.277555E+00     -0.788467E-13      0.133975E-07     -0.380591E-20      0.443252E-10     -0.169068E-22
  0.0440      0.293823E-08      0.259699E+00     -0.129359E-12      0.135191E-07     -0.673403E-20      0.477033E-10     -0.185895E-22
  0.0471      0.337880E-08      0.244167E+00     -0.226702E-15      0.136420E-07     -0.126662E-22      0.511121E-10     -0.185927E-22
  0.0502      0.385201E-08      0.230547E+00     -0.723968E-13      0.137672E-07     -0.432321E-20      0.545522E-10     -0.196729E-22
  0.0534      0.435831E-08      0.218491E+00     -0.678117E-13      0.138938E-07     -0.431214E-20      0.580239E-10     -0.207504E-22
  0.0565      0.489819E-08      0.207757E+00     -0.622100E-14      0.140229E-07     -0.419898E-21      0.615279E-10     -0.208554E-22
  0.0597      0.547216E-08      0.198124E+00     -0.378861E-13      0.141534E-07     -0.270648E-20      0.650645E-10     -0.215316E-22
  0.0628      0.608077E-08      0.189442E+00     -0.344915E-13      0.142865E-07     -0.260112E-20      0.686343E-10     -0.221816E-22
  0.0659      0.672460E-08      0.181564E+00     -0.581227E-13      0.144210E-07     -0.461649E-20      0.722378E-10     -0.233351E-22
  0.0691      0.740424E-08      0.174395E+00     -0.104268E-12      0.145583E-07     -0.870421E-20      0.758756E-10     -0.255101E-22
  0.0722      0.812035E-08      0.167828E+00     -0.112131E-12      0.146971E-07     -0.981956E-20      0.795480E-10     -0.279638E-22
  0.0754      0.887359E-08      0.161802E+00     -0.548387E-13      0.148385E-07     -0.502915E-20      0.832558E-10     -0.292204E-22
  0.0785      0.966466E-08      0.156242E+00     -0.760479E-13      0.149818E-07     -0.729211E-20      0.869993E-10     -0.310425E-22
  0.0816      0.104943E-07      0.151110E+00     -0.870391E-13      0.151284E-07     -0.871393E-20      0.907795E-10     -0.332199E-22
  0.0848      0.113633E-07      0.146340E+00     -0.478289E-13      0.152765E-07     -0.499286E-20      0.945968E-10     -0.344675E-22
  0.0879      0.122724E-07      0.141910E+00     -0.516982E-13      0.154278E-07     -0.562038E-20      0.984518E-10     -0.358719E-22
  0.0911      0.132224E-07      0.137773E+00     -0.539194E-13      0.155811E-07     -0.609787E-20      0.102345E-09     -0.373956E-22
  0.0942      0.142143E-07      0.133906E+00     -0.296810E-13      0.157371E-07     -0.348822E-20      0.106277E-09     -0.382673E-22
  0.0973      0.152489E-07      0.130280E+00     -0.377470E-13      0.158956E-07     -0.460553E-20      0.110249E-09     -0.394181E-22
  0.1005      0.163272E-07      0.126872E+00     -0.404274E-13      0.160564E-07     -0.511632E-20      0.114261E-09     -0.406965E-22
  0.1036      0.174501E-07      0.123663E+00     -0.792741E-14      0.162198E-07     -0.103977E-20      0.118314E-09     -0.409563E-22
  0.1068      0.186186E-07      0.120636E+00     -0.276239E-13      0.163858E-07     -0.375209E-20      0.122409E-09     -0.418939E-22
  0.1099      0.198338E-07      0.117776E+00     -0.222326E-13      0.165545E-07     -0.312498E-20      0.126545E-09     -0.426747E-22
  0.1130      0.210967E-07      0.115071E+00     -0.152099E-13      0.167262E-07     -0.221085E-20      0.130725E-09     -0.432272E-22
  0.1162      0.224085E-07      0.112505E+00     -0.293093E-13      0.169006E-07     -0.440288E-20      0.134948E-09     -0.443273E-22
  0.1193      0.237702E-07      0.110073E+00     -0.345187E-13      0.170785E-07     -0.535579E-20      0.139215E-09     -0.456656E-22
  0.1225      0.251830E-07      0.107759E+00     -0.108534E-13      0.172590E-07     -0.173832E-20      0.143528E-09     -0.461000E-22
  0.1256      0.266482E-07      0.105561E+00     -0.163489E-13      0.174433E-07     -0.270157E-20      0.147887E-09     -0.467750E-22
  0.1287      0.281671E-07      0.103462E+00     -0.166440E-13      0.176303E-07     -0.283620E-20      0.152292E-09     -0.474837E-22
  0.1319      0.297408E-07      0.101466E+00     -0.249181E-13      0.178214E-07     -0.437661E-20      0.156745E-09     -0.485773E-22
  0.1350      0.313707E-07      0.995551E-01     -0.334859E-13      0.180152E-07     -0.605951E-20      0.161247E-09     -0.500914E-22
  0.1382      0.330582E-07      0.977334E-01     -0.544705E-13      0.182133E-07     -0.101510E-19      0.165798E-09     -0.526279E-22
  0.1413      0.348046E-07      0.959862E-01      0.673715E-15      0.184142E-07      0.129247E-21      0.170399E-09     -0.525956E-22
  0.1444      0.366115E-07      0.943177E-01     -0.205607E-13      0.186197E-07     -0.405898E-20      0.175051E-09     -0.536099E-22
  0.1476      0.384802E-07      0.927144E-01     -0.203968E-13      0.188281E-07     -0.414211E-20      0.179756E-09     -0.546449E-22
  0.1507      0.404124E-07      0.911812E-01     -0.184138E-13      0.190414E-07     -0.384536E-20      0.184514E-09     -0.556057E-22
  0.1539      0.424094E-07      0.897051E-01     -0.336880E-13      0.192576E-07     -0.723204E-20      0.189326E-09     -0.574128E-22
  0.1570      0.444730E-07      0.882921E-01     -0.413814E-13      0.194791E-07     -0.912959E-20      0.194193E-09     -0.596941E-22
  0.1601      0.466048E-07      0.869294E-01     -0.127646E-13      0.197037E-07     -0.289327E-20      0.199117E-09     -0.604170E-22
  0.1633      0.488064E-07      0.856240E-01     -0.158486E-13      0.199337E-07     -0.368964E-20      0.204098E-09     -0.613390E-22
  0.1664      0.510796E-07      0.843630E-01     -0.186577E-13      0.201671E-07     -0.446016E-20      0.209137E-09     -0.624535E-22
  0.1696      0.534260E-07      0.831543E-01     -0.684676E-14      0.204063E-07     -0.168021E-20      0.214236E-09     -0.628733E-22
  0.1727      0.558476E-07      0.819849E-01     -0.129482E-13      0.206488E-07     -0.326116E-20      0.219396E-09     -0.636882E-22
  0.1758      0.583460E-07      0.808638E-01     -0.166849E-13      0.208976E-07     -0.431189E-20      0.224618E-09     -0.647656E-22
  0.1790      0.609233E-07      0.797775E-01     -0.109267E-13      0.211499E-07     -0.289679E-20      0.229902E-09     -0.654895E-22
  0.1821      0.635813E-07      0.787361E-01     -0.207869E-13      0.214089E-07     -0.565213E-20      0.235252E-09     -0.669018E-22
  0.1853      0.663220E-07      0.777256E-01     -0.241030E-13      0.216715E-07     -0.672043E-20      0.240667E-09     -0.685811E-22
  0.1884      0.691474E-07      0.767571E-01     -0.152918E-13      0.219413E-07     -0.437124E-20      0.246150E-09     -0.696733E-22
  0.1915      0.720595E-07      0.758161E-01     -0.152995E-13      0.222148E-07     -0.448291E-20      0.251701E-09     -0.707935E-22
  0.1947      0.750604E-07      0.749148E-01     -0.210108E-13      0.224961E-07     -0.630932E-20      0.257322E-09     -0.723700E-22
  0.1978      0.781523E-07      0.740377E-01     -0.620731E-14      0.227811E-07     -0.190996E-20      0.263014E-09     -0.728473E-22
  0.2010      0.813373E-07      0.731986E-01     -0.101616E-13      0.230745E-07     -0.320326E-20      0.268780E-09     -0.736477E-22
  0.2041      0.846177E-07      0.723806E-01     -0.156227E-13      0.233717E-07     -0.504456E-20      0.274620E-09     -0.749082E-22
  0.2072      0.879957E-07      0.715994E-01     -0.146575E-14      0.236781E-07     -0.484728E-21      0.280537E-09     -0.750293E-22
  0.2104      0.914737E-07      0.708364E-01     -0.961301E-14      0.239882E-07     -0.325537E-20      0.286531E-09     -0.758428E-22
  0.2135      0.950539E-07      0.701094E-01     -0.599174E-14      0.243084E-07     -0.207746E-20      0.292605E-09     -0.763619E-22
  0.2167      0.987388E-07      0.693978E-01     -0.120007E-13      0.246323E-07     -0.425957E-20      0.298760E-09     -0.774262E-22
  0.2198      0.102531E-06      0.687217E-01     -0.109002E-13      0.249672E-07     -0.396013E-20      0.304998E-09     -0.784158E-22
  0.2229      0.106432E-06      0.680585E-01     -0.176761E-13      0.253057E-07     -0.657236E-20      0.311322E-09     -0.800580E-22
  0.2261      0.110446E-06      0.674306E-01     -0.106722E-13      0.256564E-07     -0.406063E-20      0.317733E-09     -0.810727E-22
  0.2292      0.114575E-06      0.668129E-01     -0.161696E-13      0.260104E-07     -0.629484E-20      0.324232E-09     -0.826456E-22
  0.2324      0.118821E-06      0.662308E-01     -0.156361E-13      0.263779E-07     -0.622743E-20      0.330823E-09     -0.842017E-22
  0.2355      0.123187E-06      0.656564E-01     -0.544549E-14      0.267485E-07     -0.221850E-20      0.337507E-09     -0.847560E-22
  0.2386      0.127675E-06      0.651181E-01     -0.402881E-14      0.271341E-07     -0.167876E-20      0.344287E-09     -0.851755E-22
  0.2418      0.132290E-06      0.645848E-01     -0.973748E-14      0.275223E-07     -0.414955E-20      0.351164E-09     -0.862124E-22
  0.2449      0.137032E-06      0.640887E-01     -0.222275E-13      0.279273E-07     -0.968587E-20      0.358142E-09     -0.886326E-22
  0.2481      0.141906E-06      0.635949E-01     -0.175797E-13      0.283345E-07     -0.783257E-20      0.365223E-09     -0.905898E-22
  0.2512      0.146914E-06      0.631395E-01     -0.208900E-13      0.287603E-07     -0.951547E-20      0.372409E-09     -0.929675E-22
  0.2543      0.152058E-06      0.626836E-01     -0.107271E-13      0.291877E-07     -0.499493E-20      0.379702E-09     -0.942156E-22
  0.2575      0.157343E-06      0.622680E-01     -0.899755E-14      0.296360E-07     -0.428231E-20      0.387108E-09     -0.952856E-22
  0.2606      0.162771E-06      0.618488E-01     -0.165664E-13      0.300851E-07     -0.805839E-20      0.394625E-09     -0.972992E-22
  0.2638      0.168346E-06      0.614721E-01      0.401361E-14      0.305577E-07      0.199516E-20      0.402261E-09     -0.968007E-22
  0.2669      0.174069E-06      0.610885E-01      0.226031E-14      0.310300E-07      0.114813E-20      0.410014E-09     -0.965138E-22
  0.2700      0.179945E-06      0.607501E-01     -0.624777E-15      0.315289E-07     -0.324255E-21      0.417893E-09     -0.965948E-22
  0.2732      0.185977E-06      0.604013E-01     -0.851480E-14      0.320262E-07     -0.451475E-20      0.425895E-09     -0.977230E-22
  0.2763      0.192167E-06      0.601011E-01     -0.795037E-14      0.325536E-07     -0.430630E-20      0.434029E-09     -0.987990E-22
  0.2795      0.198521E-06      0.597864E-01     -0.135514E-13      0.330779E-07     -0.749757E-20      0.442295E-09     -0.100672E-21
  0.2826      0.205039E-06      0.595244E-01     -0.165557E-13      0.336364E-07     -0.935541E-20      0.450700E-09     -0.103010E-21
  0.2857      0.211727E-06      0.592434E-01     -0.220388E-13      0.341897E-07     -0.127187E-19      0.459243E-09     -0.106188E-21
  0.2889      0.218588E-06      0.590197E-01     -0.227832E-13      0.347820E-07     -0.134268E-19      0.467934E-09     -0.109543E-21
  0.2920      0.225624E-06      0.587723E-01     -0.348325E-14      0.353667E-07     -0.209608E-20      0.476771E-09     -0.110067E-21
  0.2952      0.232840E-06      0.585876E-01     -0.538800E-14      0.359961E-07     -0.331038E-20      0.485766E-09     -0.110894E-21
  0.2983      0.240239E-06      0.583735E-01     -0.100013E-13      0.366148E-07     -0.627334E-20      0.494915E-09     -0.112462E-21
  0.3014      0.247826E-06      0.582289E-01     -0.571635E-14      0.372849E-07     -0.366027E-20      0.504231E-09     -0.113376E-21
  0.3046      0.255602E-06      0.580483E-01     -0.871853E-14      0.379405E-07     -0.569845E-20      0.513712E-09     -0.114800E-21
  0.3077      0.263573E-06      0.579449E-01     -0.110951E-13      0.386554E-07     -0.740161E-20      0.523371E-09     -0.116650E-21
  0.3109      0.271743E-06      0.577982E-01     -0.297784E-14      0.393511E-07     -0.202742E-20      0.533204E-09     -0.117156E-21
  0.3140      0.280114E-06      0.577378E-01     -0.424430E-14      0.401157E-07     -0.294890E-20      0.543228E-09     -0.117893E-21
  0.3171      0.288690E-06      0.576255E-01     -0.522111E-14      0.408550E-07     -0.370163E-20      0.553436E-09     -0.118818E-21
  0.3203      0.297477E-06      0.576103E-01     -0.574140E-14      0.416747E-07     -0.415327E-20      0.563850E-09     -0.119856E-21
  0.3234      0.306477E-06      0.575332E-01     -0.872528E-14      0.424618E-07     -0.643960E-20      0.574460E-09     -0.121465E-21
  0.3266      0.315694E-06      0.575659E-01     -0.139129E-13      0.433429E-07     -0.104754E-19      0.585290E-09     -0.124083E-21
  0.3297      0.325133E-06      0.575251E-01     -0.518244E-14      0.441824E-07     -0.398039E-20      0.596330E-09     -0.125077E-21
  0.3328      0.334798E-06      0.576093E-01     -0.499102E-14      0.451325E-07     -0.391008E-20      0.607608E-09     -0.126054E-21
  0.3360      0.344692E-06      0.576060E-01     -0.678276E-14      0.460294E-07     -0.541969E-20      0.619109E-09     -0.127408E-21
  0.3391      0.354821E-06      0.577459E-01     -0.804543E-14      0.470573E-07     -0.655623E-20      0.630868E-09     -0.129047E-21
  0.3423      0.365188E-06      0.577818E-01     -0.103580E-13      0.480176E-07     -0.860764E-20      0.642866E-09     -0.131198E-21
  0.3454      0.375797E-06      0.579828E-01     -0.966202E-14      0.491337E-07     -0.818743E-20      0.655143E-09     -0.133243E-21
  0.3485      0.386652E-06      0.580598E-01     -0.537472E-14      0.501641E-07     -0.464379E-20      0.667678E-09     -0.134404E-21
  0.3517      0.397759E-06      0.583285E-01     -0.906914E-14      0.513809E-07     -0.798891E-20      0.680517E-09     -0.136400E-21
  0.3548      0.409120E-06      0.584490E-01     -0.126357E-13      0.524892E-07     -0.113473E-19      0.693633E-09     -0.139235E-21
  0.3580      0.420742E-06      0.587936E-01     -0.689436E-14      0.538221E-07     -0.631139E-20      0.707082E-09     -0.140812E-21
  0.3611      0.432627E-06      0.589606E-01     -0.713077E-14      0.550171E-07     -0.665384E-20      0.720829E-09     -0.142475E-21
  0.3642      0.444781E-06      0.593913E-01     -0.100125E-13      0.564847E-07     -0.952250E-20      0.734943E-09     -0.144854E-21
  0.3674      0.457208E-06      0.596084E-01     -0.193380E-14      0.577770E-07     -0.187439E-20      0.749380E-09     -0.145323E-21
  0.3705      0.469913E-06      0.601381E-01     -0.502454E-14      0.594025E-07     -0.496308E-20      0.764223E-09     -0.146563E-21
  0.3737      0.482899E-06      0.604095E-01     -0.550119E-14      0.608044E-07     -0.553715E-20      0.779417E-09     -0.147947E-21
  0.3768      0.496172E-06      0.610550E-01     -0.913172E-14      0.626169E-07     -0.936534E-20      0.795063E-09     -0.150287E-21
  0.3799      0.509736E-06      0.613860E-01     -0.549072E-14      0.641430E-07     -0.573732E-20      0.811091E-09     -0.151720E-21
  0.3831      0.523597E-06      0.621685E-01     -0.778128E-14      0.661800E-07     -0.828339E-20      0.827628E-09     -0.153790E-21
  0.3862      0.537757E-06      0.625656E-01     -0.841957E-14      0.678479E-07     -0.913042E-20      0.844581E-09     -0.156072E-21
  0.3894      0.552223E-06      0.635133E-01     -0.620337E-14      0.701580E-07     -0.685236E-20      0.862112E-09     -0.157784E-21
  0.3925      0.566999E-06      0.639848E-01     -0.944591E-14      0.719894E-07     -0.106276E-19      0.880100E-09     -0.160439E-21
  0.3956      0.582089E-06      0.651352E-01     -0.425617E-14      0.746371E-07     -0.487706E-20      0.898750E-09     -0.161658E-21
  0.3988      0.597499E-06      0.656915E-01     -0.563810E-14      0.766589E-07     -0.657939E-20      0.917905E-09     -0.163302E-21
  0.4019      0.613233E-06      0.670965E-01     -0.440485E-14      0.797325E-07     -0.523440E-20      0.937828E-09     -0.164610E-21
  0.4051      0.629296E-06      0.677512E-01     -0.725459E-14      0.819789E-07     -0.877804E-20      0.958313E-09     -0.166803E-21
  0.4082      0.645693E-06      0.694831E-01     -0.579843E-14      0.856015E-07     -0.714353E-20      0.979703E-09     -0.168588E-21
  0.4113      0.662428E-06      0.702547E-01     -0.633645E-14      0.881177E-07     -0.794755E-20      0.100172E-08     -0.170574E-21
  0.4145      0.679507E-06      0.724185E-01     -0.586156E-14      0.924676E-07     -0.748433E-20      0.102483E-08     -0.172445E-21
  0.4176      0.696935E-06      0.733332E-01     -0.644815E-14      0.953149E-07     -0.838099E-20      0.104864E-08     -0.174539E-21
  0.4208      0.714716E-06      0.760873E-01     -0.688273E-14      0.100661E-06     -0.910560E-20      0.107380E-08     -0.176814E-21
  0.4239      0.732855E-06      0.771834E-01     -0.561245E-14      0.103927E-06     -0.755712E-20      0.109976E-08     -0.178702E-21
  0.4270      0.751357E-06      0.807783E-01     -0.267047E-14      0.110693E-06     -0.365945E-20      0.112742E-08     -0.179617E-21
  0.4302      0.770227E-06      0.821164E-01     -0.641577E-14      0.114511E-06     -0.894679E-20      0.115604E-08     -0.181852E-21
  0.4333      0.789470E-06      0.869734E-01     -0.620714E-14      0.123414E-06     -0.880782E-20      0.118688E-08     -0.184053E-21
  0.4365      0.809092E-06      0.886566E-01     -0.701260E-14      0.128001E-06     -0.101247E-19      0.121886E-08     -0.186583E-21
  0.4396      0.829096E-06      0.955439E-01     -0.648719E-14      0.140346E-06     -0.952912E-20      0.125393E-08     -0.188964E-21
  0.4427      0.849488E-06      0.977673E-01     -0.532719E-14      0.146100E-06     -0.796079E-20      0.129044E-08     -0.190953E-21
  0.4459      0.870273E-06      0.108251E+00     -0.510189E-14      0.164559E-06     -0.775565E-20      0.133155E-08     -0.192891E-21
  0.4490      0.891456E-06      0.111440E+00     -0.421116E-14      0.172315E-06     -0.651157E-20      0.137461E-08     -0.194518E-21
  0.4522      0.913042E-06      0.129291E+00     -0.468735E-14      0.203337E-06     -0.737183E-20      0.142542E-08     -0.196360E-21
  0.4553      0.935035E-06      0.134580E+00     -0.146003E-13      0.215258E-06     -0.233530E-19      0.147921E-08     -0.202196E-21
  0.4584      0.957442E-06      0.171745E+00     -0.184619E-13      0.279359E-06     -0.300300E-19      0.154901E-08     -0.209699E-21
