 
 # Omega; pulse ft; proj flux t=    1000.25000000000     
    0.000000000000         0.32818054E-12      0.00000000E+00      0.00000000E+00      0.00000000E+00      0.00000000E+00      0.00000000E+00      0.00000000E+00
    0.003140807452         0.15084240E-10      0.53591246E-05      0.33171841E-13      0.15952128E-14      0.98740281E-23      0.50102564E-17      0.31012421E-25
    0.006281614903         0.59367197E-10     -0.20162418E-05      0.65042374E-14     -0.11810289E-14      0.38099063E-23      0.13008721E-17      0.42978603E-25
    0.009422422355         0.13322140E-09     -0.39503865E-05     -0.19089350E-14     -0.34617340E-14     -0.16728047E-23     -0.95717679E-17      0.37724646E-25
    0.012563229807         0.23672078E-09     -0.32099610E-05      0.30523105E-14     -0.37486726E-14      0.35645644E-23     -0.21345627E-16      0.48920256E-25
    0.015704037259         0.36996889E-09     -0.27434729E-05      0.41469014E-15     -0.40058735E-14      0.60550853E-24     -0.33927304E-16      0.50822042E-25
    0.018844844710         0.53309892E-09     -0.23180345E-05     -0.34797083E-15     -0.40642256E-14     -0.61009962E-24     -0.46692254E-16      0.48905836E-25
    0.021985652162         0.72627381E-09     -0.20214383E-05      0.62811431E-15     -0.41387024E-14      0.12860042E-23     -0.59691122E-16      0.52944928E-25
    0.025126459614         0.94968623E-09     -0.18391358E-05     -0.77197752E-15     -0.43082938E-14     -0.18084070E-23     -0.73222643E-16      0.47265070E-25
    0.028267267066         0.12035587E-08     -0.16967134E-05     -0.38870230E-15     -0.44774899E-14     -0.10257541E-23     -0.87285577E-16      0.44043374E-25
    0.031408074517         0.14881438E-08     -0.15411847E-05      0.62673617E-15     -0.45258585E-14      0.18404797E-23     -0.10150043E-15      0.49823966E-25
    0.034548881969         0.18037240E-08     -0.14244216E-05      0.31117124E-15     -0.46091127E-14      0.10068812E-23     -0.11597676E-15      0.52986386E-25
    0.037689689421         0.21506121E-08     -0.13540952E-05      0.98953881E-16     -0.47888519E-14      0.34995728E-24     -0.13101762E-15      0.54085534E-25
    0.040830496872         0.25291509E-08     -0.12911471E-05     -0.21346512E-15     -0.49568810E-14     -0.81952023E-24     -0.14658623E-15      0.51511579E-25
    0.043971304324         0.29397140E-08     -0.12263109E-05      0.17150422E-16     -0.50813487E-14      0.71064582E-25     -0.16254577E-15      0.51734779E-25
    0.047112111776         0.33827052E-08     -0.11700010E-05      0.14319438E-15     -0.52066754E-14      0.63723592E-24     -0.17889894E-15      0.53736215E-25
    0.050252919228         0.38585594E-08     -0.11403471E-05      0.74927627E-15     -0.54267975E-14      0.35657307E-23     -0.19594346E-15      0.64935488E-25
    0.053393726679         0.43677419E-08     -0.11200367E-05      0.72173633E-17     -0.56786053E-14      0.36592154E-25     -0.21377887E-15      0.65050417E-25
    0.056534534131         0.49107496E-08     -0.11868800E-05     -0.32202432E-15     -0.63897439E-14     -0.17336656E-23     -0.23384782E-15      0.59605308E-25
    0.059675341583         0.54881104E-08     -0.13347185E-05      0.28514605E-15     -0.76078211E-14      0.16253166E-23     -0.25774252E-15      0.64710114E-25
    0.062816149035         0.61003835E-08     -0.68988450E-06      0.12491933E-15     -0.41524546E-14      0.75189668E-24     -0.27078458E-15      0.67071677E-25
    0.065956956486         0.67481601E-08      0.11153870E-06     -0.45833996E-16      0.70728268E-15     -0.29063986E-24     -0.26856315E-15      0.66158833E-25
    0.069097763938         0.74320630E-08     -0.11394751E-06      0.87312624E-16     -0.75961390E-15      0.58205645E-24     -0.27094895E-15      0.67986960E-25
    0.072238571390         0.81527474E-08     -0.44999292E-06      0.47120498E-16     -0.31476265E-14      0.32960014E-24     -0.28083504E-15      0.69022171E-25
    0.075379378841         0.89109006E-08     -0.47257045E-06      0.13832993E-15     -0.34624083E-14      0.10135096E-23     -0.29170979E-15      0.72205409E-25
    0.078520186293         0.97072426E-08     -0.47764487E-06      0.73985944E-16     -0.36598422E-14      0.56690000E-24     -0.30320465E-15      0.73985933E-25
    0.081660993745         0.10542526E-07     -0.44410367E-06      0.32832767E-16     -0.35535061E-14      0.26271217E-24     -0.31436553E-15      0.74811061E-25
    0.084801801197         0.11417538E-07     -0.40142858E-06      0.65977552E-16     -0.33497958E-14      0.55056201E-24     -0.32488659E-15      0.76540271E-25
    0.087942608648         0.12333096E-07     -0.38694848E-06      0.77146482E-16     -0.33633231E-14      0.67055062E-24     -0.33545015E-15      0.78646341E-25
    0.091083416100         0.13290054E-07     -0.39508620E-06      0.26263711E-16     -0.35729091E-14      0.23751235E-24     -0.34667196E-15      0.79392322E-25
    0.094224223552         0.14289299E-07     -0.40182100E-06      0.45166527E-16     -0.37767973E-14      0.42452937E-24     -0.35853416E-15      0.80725687E-25
    0.097365031004         0.15331753E-07     -0.40358245E-06      0.21044873E-16     -0.39387983E-14      0.20538928E-24     -0.37090516E-15      0.81370775E-25
    0.100505838455         0.16418370E-07     -0.39817448E-06      0.64514347E-16     -0.40313902E-14      0.65318729E-24     -0.38356699E-15      0.83422310E-25
    0.103646645907         0.17550142E-07     -0.39129457E-06      0.25589333E-16     -0.41065004E-14      0.26855115E-24     -0.39646471E-15      0.84265778E-25
    0.106787453359         0.18728094E-07     -0.38371455E-06      0.29431254E-16     -0.41708473E-14      0.31990777E-24     -0.40956454E-15      0.85270546E-25
    0.109928260810         0.19953287E-07     -0.37727329E-06      0.11242036E-15     -0.42442781E-14      0.12647152E-23     -0.42289500E-15      0.89242773E-25
    0.113069068262         0.21226819E-07     -0.37113252E-06      0.39521361E-16     -0.43182999E-14      0.45984945E-24     -0.43645795E-15      0.90687072E-25
    0.116209875714         0.22549823E-07     -0.36642580E-06     -0.18099069E-16     -0.44068557E-14     -0.21767022E-24     -0.45029903E-15      0.90003412E-25
    0.119350683166         0.23923468E-07     -0.36152947E-06      0.48760361E-16     -0.44914400E-14      0.60577147E-24     -0.46440578E-15      0.91906023E-25
    0.122491490617         0.25348961E-07     -0.35735194E-06     -0.58808355E-17     -0.45834559E-14     -0.75428582E-25     -0.47880154E-15      0.91669117E-25
    0.125632298069         0.26827544E-07     -0.35270300E-06     -0.20652293E-16     -0.46680064E-14     -0.27333205E-24     -0.49346285E-15      0.90810633E-25
    0.128773105521         0.28360500E-07     -0.34823334E-06      0.32269075E-17     -0.47533713E-14      0.44047160E-25     -0.50839227E-15      0.90948977E-25
    0.131913912973         0.29949146E-07     -0.34335781E-06     -0.28152584E-16     -0.48315163E-14     -0.39614556E-24     -0.52356713E-15      0.89704760E-25
    0.135054720424         0.31594841E-07     -0.33849566E-06     -0.36115901E-16     -0.49079732E-14     -0.52365775E-24     -0.53898213E-15      0.88060052E-25
    0.138195527876         0.33298978E-07     -0.33344534E-06     -0.40285211E-16     -0.49797121E-14     -0.60162411E-24     -0.55462245E-15      0.86170466E-25
    0.141336335328         0.35062992E-07     -0.32841489E-06     -0.11324788E-16     -0.50496429E-14     -0.17412772E-24     -0.57048240E-15      0.85623565E-25
    0.144477142779         0.36888357E-07     -0.32350892E-06      0.14843415E-16     -0.51194006E-14      0.23489116E-24     -0.58656145E-15      0.86361313E-25
    0.147617950231         0.38776586E-07     -0.31867471E-06     -0.37053545E-16     -0.51882474E-14     -0.60325765E-24     -0.60285674E-15      0.84466597E-25
    0.150758757683         0.40729231E-07     -0.31384054E-06     -0.19517843E-16     -0.52550322E-14     -0.32681212E-24     -0.61936178E-15      0.83440143E-25
    0.153899565135         0.42747886E-07     -0.30924480E-06      0.38485269E-17     -0.53238073E-14      0.66254358E-25     -0.63608284E-15      0.83648235E-25
    0.157040372586         0.44834184E-07     -0.30462788E-06      0.58138414E-17     -0.53902669E-14      0.10287357E-24     -0.65301263E-15      0.83971341E-25
    0.160181180038         0.46989799E-07     -0.30020403E-06      0.49612361E-17     -0.54582232E-14      0.90203766E-25     -0.67015586E-15      0.84254654E-25
    0.163321987490         0.49216447E-07     -0.29592015E-06     -0.34825619E-17     -0.55269155E-14     -0.65043982E-25     -0.68751483E-15      0.84050363E-25
    0.166462794942         0.51515886E-07     -0.29188094E-06      0.71062394E-17     -0.55985093E-14      0.13630334E-24     -0.70509867E-15      0.84478465E-25
    0.169603602393         0.53889915E-07     -0.28802382E-06     -0.29089208E-17     -0.56720951E-14     -0.57285802E-25     -0.72291363E-15      0.84298542E-25
    0.172744409845         0.56340375E-07     -0.28428837E-06      0.80636288E-18     -0.57466864E-14      0.16300050E-25     -0.74096287E-15      0.84349737E-25
    0.175885217297         0.58869149E-07     -0.28061048E-06     -0.25635427E-17     -0.58210991E-14     -0.53179183E-25     -0.75924582E-15      0.84182711E-25
    0.179026024748         0.61478167E-07     -0.27686008E-06      0.13186977E-16     -0.58926107E-14      0.28066785E-24     -0.77775337E-15      0.85064235E-25
    0.182166832200         0.64169396E-07     -0.27289961E-06     -0.23221020E-16     -0.59580514E-14     -0.50697040E-24     -0.79646647E-15      0.83471939E-25
    0.185307639652         0.66944851E-07     -0.26886318E-06     -0.48710208E-17     -0.60200190E-14     -0.10906528E-24     -0.81537419E-15      0.83129386E-25
    0.188448447104         0.69806589E-07     -0.26445749E-06      0.36642066E-17     -0.60715896E-14      0.84125272E-25     -0.83444388E-15      0.83393607E-25
    0.191589254555         0.72756711E-07     -0.25973029E-06      0.18143035E-16     -0.61131802E-14      0.42702620E-24     -0.85364420E-15      0.84734814E-25
    0.194730062007         0.75797365E-07     -0.25441255E-06      0.17587822E-16     -0.61376527E-14      0.42430275E-24     -0.87292139E-15      0.86067467E-25
    0.197870869459         0.78930738E-07     -0.24848476E-06      0.11129272E-16     -0.61433709E-14      0.27515267E-24     -0.89221653E-15      0.86931669E-25
    0.201011676911         0.82159069E-07     -0.24243446E-06      0.14930697E-16     -0.61414546E-14      0.37823089E-24     -0.91150566E-15      0.88119619E-25
    0.204152484362         0.85484636E-07     -0.23608237E-06      0.10219071E-16     -0.61268835E-14      0.26520852E-24     -0.93074902E-15      0.88952588E-25
    0.207293291814         0.88909765E-07     -0.23014600E-06      0.17615948E-16     -0.61180120E-14      0.46828788E-24     -0.94996452E-15      0.90423390E-25
    0.210434099266         0.92436830E-07     -0.22431959E-06      0.66288737E-17     -0.61071532E-14      0.18047263E-24     -0.96914591E-15      0.90990220E-25
    0.213574906717         0.96068246E-07     -0.21876088E-06      0.18803944E-17     -0.60987661E-14      0.52422925E-25     -0.98830096E-15      0.91154870E-25
    0.216715714169         0.99806478E-07     -0.21309271E-06     -0.35479960E-17     -0.60824646E-14     -0.10127311E-24     -0.10074048E-14      0.90836791E-25
    0.219856521621         0.10365403E-06     -0.20759285E-06     -0.44014345E-18     -0.60659934E-14     -0.12861268E-25     -0.10264569E-14      0.90796396E-25
    0.222997329073         0.10761347E-06     -0.20188777E-06     -0.54711143E-17     -0.60383694E-14     -0.16363849E-24     -0.10454223E-14      0.90282439E-25
    0.226138136524         0.11168740E-06     -0.19658745E-06     -0.54068274E-17     -0.60176762E-14     -0.16550669E-24     -0.10643226E-14      0.89762615E-25
    0.229278943976         0.11587846E-06     -0.19158608E-06      0.25750247E-17     -0.60012976E-14      0.80660814E-25     -0.10831716E-14      0.90015955E-25
    0.232419751428         0.12018935E-06     -0.18702480E-06      0.20085712E-17     -0.59942496E-14      0.64375831E-25     -0.11019984E-14      0.90218147E-25
    0.235560558880         0.12462281E-06     -0.18305903E-06     -0.21262432E-17     -0.60024533E-14     -0.69718909E-25     -0.11208509E-14      0.89999173E-25
    0.238701366331         0.12918164E-06     -0.17933467E-06     -0.30844887E-17     -0.60152382E-14     -0.10345983E-24     -0.11397436E-14      0.89674226E-25
    0.241842173783         0.13386868E-06     -0.17603750E-06      0.12054753E-16     -0.60394139E-14      0.41356894E-24     -0.11587122E-14      0.90973166E-25
    0.244982981235         0.13868680E-06     -0.17285138E-06     -0.14634149E-17     -0.60647759E-14     -0.51346325E-25     -0.11777605E-14      0.90811897E-25
    0.248123788686         0.14363896E-06     -0.16996083E-06      0.43205551E-17     -0.60981113E-14      0.15501940E-24     -0.11969135E-14      0.91298783E-25
    0.251264596138         0.14872811E-06     -0.16715529E-06      0.18547072E-17     -0.61323165E-14      0.68042425E-25     -0.12161740E-14      0.91512491E-25
    0.254405403590         0.15395730E-06     -0.16462505E-06      0.19591313E-17     -0.61746528E-14      0.73481865E-25     -0.12355673E-14      0.91743284E-25
    0.257546211042         0.15932959E-06     -0.16218333E-06      0.22485557E-17     -0.62185650E-14      0.86215949E-25     -0.12550987E-14      0.92014072E-25
    0.260687018493         0.16484812E-06     -0.15997336E-06      0.22722996E-17     -0.62698183E-14      0.89057987E-25     -0.12747910E-14      0.92293786E-25
    0.263827825945         0.17051605E-06     -0.15784314E-06      0.31243945E-17     -0.63228527E-14      0.12515644E-24     -0.12946498E-14      0.92686878E-25
    0.266968633397         0.17633661E-06     -0.15587315E-06     -0.35116021E-17     -0.63811101E-14     -0.14375740E-24     -0.13146917E-14      0.92235363E-25
    0.270109440849         0.18231305E-06     -0.15397000E-06      0.66955137E-18     -0.64410514E-14      0.28009449E-25     -0.13349218E-14      0.92323336E-25
    0.273250248300         0.18844869E-06     -0.15216394E-06      0.26665406E-17     -0.65040963E-14      0.11397863E-24     -0.13553499E-14      0.92681321E-25
    0.276391055752         0.19474689E-06     -0.15041966E-06      0.98268617E-18     -0.65689179E-14      0.42914500E-25     -0.13759816E-14      0.92816107E-25
    0.279531863204         0.20121105E-06     -0.14873322E-06     -0.98200647E-19     -0.66354623E-14     -0.43810433E-26     -0.13968223E-14      0.92802347E-25
    0.282672670655         0.20784464E-06     -0.14710849E-06      0.25135592E-17     -0.67040219E-14      0.11454781E-24     -0.14178783E-14      0.93162119E-25
    0.285813478107         0.21465116E-06     -0.14551634E-06      0.26188794E-17     -0.67733724E-14      0.12190140E-24     -0.14391522E-14      0.93544988E-25
    0.288954285559         0.22163414E-06     -0.14399055E-06      0.50383510E-18     -0.68451692E-14      0.23951825E-25     -0.14606515E-14      0.93620216E-25
    0.292095093011         0.22879719E-06     -0.14248174E-06      0.11941913E-17     -0.69171675E-14      0.57975298E-25     -0.14823770E-14      0.93802306E-25
    0.295235900462         0.23614394E-06     -0.14104573E-06     -0.23873856E-17     -0.69921423E-14     -0.11835126E-24     -0.15043380E-14      0.93430587E-25
    0.298376707914         0.24367808E-06     -0.13961618E-06     -0.45955703E-17     -0.70669165E-14     -0.23261281E-24     -0.15265338E-14      0.92699995E-25
    0.301517515366         0.25140334E-06     -0.13818565E-06      0.18398199E-17     -0.71410839E-14      0.95077221E-25     -0.15489626E-14      0.92998614E-25
    0.304658322818         0.25932350E-06     -0.13677190E-06     -0.56133216E-18     -0.72155324E-14     -0.29613615E-25     -0.15716252E-14      0.92905604E-25
    0.307799130269         0.26744238E-06     -0.13546608E-06     -0.13935852E-17     -0.72951813E-14     -0.75047989E-25     -0.15945380E-14      0.92669892E-25
    0.310939937721         0.27576385E-06     -0.13416058E-06     -0.15984021E-17     -0.73744293E-14     -0.87859664E-25     -0.16176996E-14      0.92393942E-25
    0.314080745173         0.28429181E-06     -0.13289038E-06      0.18978437E-17     -0.74551992E-14      0.10646973E-24     -0.16411150E-14      0.92728343E-25
    0.317221552624         0.29303021E-06     -0.13162232E-06      0.38063050E-17     -0.75356712E-14      0.21791944E-24     -0.16647831E-14      0.93412786E-25
    0.320362360076         0.30198307E-06     -0.13039906E-06     -0.36807888E-18     -0.76183033E-14     -0.21504269E-25     -0.16887107E-14      0.93345245E-25
    0.323503167528         0.31115440E-06     -0.12917711E-06     -0.13255734E-17     -0.77006195E-14     -0.79021242E-25     -0.17128969E-14      0.93097055E-25
    0.326643974980         0.32054830E-06     -0.12800042E-06      0.16046142E-17     -0.77852561E-14      0.97596027E-25     -0.17373488E-14      0.93403585E-25
    0.329784782431         0.33016890E-06     -0.12682556E-06     -0.23700259E-17     -0.78696423E-14     -0.14706229E-24     -0.17620659E-14      0.92941691E-25
    0.332925589883         0.34002034E-06     -0.12569620E-06     -0.37573788E-18     -0.79565086E-14     -0.23784026E-25     -0.17870557E-14      0.92866990E-25
    0.336066397335         0.35010685E-06     -0.12457019E-06      0.23181254E-18     -0.80432640E-14      0.14967701E-25     -0.18123181E-14      0.92914000E-25
    0.339207204787         0.36043265E-06     -0.12349035E-06     -0.86879993E-18     -0.81327002E-14     -0.57216530E-25     -0.18378613E-14      0.92734294E-25
    0.342348012238         0.37100205E-06     -0.12241579E-06     -0.87997032E-18     -0.82222107E-14     -0.59104316E-25     -0.18636857E-14      0.92548659E-25
    0.345488819690         0.38181936E-06     -0.12138914E-06      0.44245186E-18     -0.83146977E-14      0.30306281E-25     -0.18898006E-14      0.92643845E-25
    0.348629627142         0.39288894E-06     -0.12037010E-06      0.48732233E-18     -0.84074983E-14      0.34038037E-25     -0.19162069E-14      0.92750752E-25
    0.351770434593         0.40421519E-06     -0.11940092E-06      0.21048983E-17     -0.85036163E-14      0.14990878E-24     -0.19429151E-14      0.93221587E-25
    0.354911242045         0.41580254E-06     -0.11844317E-06      0.67125636E-18     -0.86004284E-14      0.48741453E-25     -0.19699274E-14      0.93374674E-25
    0.358052049497         0.42765547E-06     -0.11753724E-06      0.32208215E-17     -0.87009369E-14      0.23842797E-24     -0.19972554E-14      0.94123531E-25
    0.361192856949         0.43977848E-06     -0.11664748E-06     -0.19087485E-18     -0.88026384E-14     -0.14404102E-25     -0.20249028E-14      0.94078290E-25
    0.364333664400         0.45217610E-06     -0.11581279E-06     -0.33575693E-18     -0.89085601E-14     -0.25827119E-25     -0.20528828E-14      0.93997172E-25
    0.367474471852         0.46485292E-06     -0.11499845E-06      0.81738317E-18     -0.90161896E-14      0.64085054E-25     -0.20812010E-14      0.94198451E-25
    0.370615279304         0.47781353E-06     -0.11424455E-06      0.71799265E-18     -0.91287913E-14      0.57371711E-25     -0.21098727E-14      0.94378644E-25
    0.373756086755         0.49106257E-06     -0.11351575E-06      0.22682104E-18     -0.92437325E-14      0.18470326E-25     -0.21389055E-14      0.94436656E-25
    0.376896894207         0.50460471E-06     -0.11285455E-06     -0.36219046E-18     -0.93646268E-14     -0.30054425E-25     -0.21683180E-14      0.94342261E-25
    0.380037701659         0.51844464E-06     -0.11222337E-06      0.79892397E-18     -0.94885905E-14      0.67549763E-25     -0.21981198E-14      0.94554422E-25
    0.383178509111         0.53258708E-06     -0.11166863E-06      0.31333265E-17     -0.96197405E-14      0.26992171E-24     -0.22283336E-14      0.95402194E-25
