            ## Photon energy (column 1); D(omega) (2,3); E(omega) (4,5); response (6,7); cross sect (9); integrated (10)
                        ## UNITLESS RESPONSE FUNCTION FOR ABSORPTION/EMISSION 2 omega im(D(omega)E(omega)^*) IN COLUMN 7
             ## QUANTUM MECHANICAL PHOTOABSORPTION/EMISSION CROSS SECTION IN MEGABARNS (no factor of 1/3) IN COLUMN NINE
                                              ## INTEGRATED DIFFERENTIAL OSCILLATOR STRENGTH (FOR SUM RULE) IN COLUMN 10
 
    0.000000000000         0.00000000E+00      0.00000000E+00      0.17663737E-05      0.00000000E+00      0.00000000E+00      0.00000000E+00      0.00000000E+00      0.00000000E+00      0.00000000E+00
    0.006280045285        -0.16563515E-04     -0.48774670E-04      0.19815735E-05      0.75944472E-05     -0.50647119E-11      0.36600286E-12     -0.10556150E+00      0.76284320E-02      0.11876835E-04
    0.012560090569        -0.20764880E-04     -0.97537491E-04      0.26272604E-05      0.15178291E-04     -0.38559659E-10      0.14800562E-11     -0.20864788E+00      0.80086444E-02      0.24345629E-04
    0.018840135854        -0.27436095E-04     -0.14645583E-03      0.37036948E-05      0.22740888E-04     -0.12932436E-09      0.30706962E-11     -0.31278322E+00      0.74267694E-02      0.35908492E-04
    0.025120181138        -0.37228877E-04     -0.19528079E-03      0.52113052E-05      0.30271512E-04     -0.30674031E-09      0.54916008E-11     -0.41741325E+00      0.74729889E-02      0.47543315E-04
    0.031400226423        -0.49835328E-04     -0.24394960E-03      0.71506800E-05      0.37759315E-04     -0.60085755E-09      0.86251601E-11     -0.52235824E+00      0.74983221E-02      0.59217580E-04
    0.037680271707        -0.65295297E-04     -0.29247686E-03      0.95225554E-05      0.45193290E-04     -0.10429726E-08      0.12493434E-10     -0.62777871E+00      0.75199598E-02      0.70925532E-04
    0.043960316992        -0.83645156E-04     -0.34083752E-03      0.12327801E-04      0.52562228E-04     -0.16657743E-08      0.17126810E-10     -0.73377082E+00      0.75443318E-02      0.82671430E-04
    0.050240362276        -0.10492089E-03     -0.38899498E-03      0.15567402E-04      0.59854683E-04     -0.25036296E-08      0.22544376E-10     -0.84041615E+00      0.75676758E-02      0.94453673E-04
    0.056520407561        -0.12916673E-03     -0.43691037E-03      0.19242437E-04      0.67058935E-04     -0.35929149E-08      0.28775973E-10     -0.94780214E+00      0.75910311E-02      0.10627228E-03
    0.062800452845        -0.15629878E-03     -0.48463454E-03      0.23354055E-04      0.74162956E-04     -0.49728087E-08      0.34339089E-10     -0.10561193E+01      0.72928953E-02      0.11762671E-03
    0.069080498130        -0.18679981E-03     -0.53206137E-03      0.27903446E-04      0.81154376E-04     -0.66858133E-08      0.43282570E-10     -0.11656025E+01      0.75458691E-02      0.12937500E-03
    0.075360543414        -0.22036887E-03     -0.57904297E-03      0.32891816E-04      0.88020452E-04     -0.87743721E-08      0.52932194E-10     -0.12759357E+01      0.76971979E-02      0.14135890E-03
    0.081640588699        -0.25702401E-03     -0.62565233E-03      0.38320347E-04      0.94748037E-04     -0.11287396E-07      0.61607005E-10     -0.13874144E+01      0.75725566E-02      0.15314874E-03
    0.087920633984        -0.29705746E-03     -0.67186533E-03      0.44190169E-04      0.10132356E-03     -0.14278804E-07      0.71932342E-10     -0.15003594E+01      0.75583618E-02      0.16491648E-03
    0.094200679268        -0.34050107E-03     -0.71758155E-03      0.50502316E-04      0.10773298E-03     -0.17804548E-07      0.83587178E-10     -0.16147709E+01      0.75808797E-02      0.17671928E-03
    0.100480724553        -0.38743580E-03     -0.76271398E-03      0.57257691E-04      0.11396181E-03     -0.21925686E-07      0.96791403E-10     -0.17307205E+01      0.76403019E-02      0.18861460E-03
    0.106760769837        -0.43793723E-03     -0.80721886E-03      0.64457020E-04      0.11999503E-03     -0.26709491E-07      0.11089647E-09     -0.18483613E+01      0.76743038E-02      0.20056285E-03
    0.113040815122        -0.49213778E-03     -0.85102752E-03      0.72100811E-04      0.12581714E-03     -0.32229606E-07      0.12651384E-09     -0.19678617E+01      0.77246287E-02      0.21258946E-03
    0.119320860406        -0.55014400E-03     -0.89405533E-03      0.80189305E-04      0.13141211E-03     -0.38565781E-07      0.14363985E-09     -0.20893492E+01      0.77818677E-02      0.22470518E-03
    0.125600905691        -0.61207925E-03     -0.93622220E-03      0.88722429E-04      0.13676335E-03     -0.45805655E-07      0.16230153E-09     -0.22129870E+01      0.78411970E-02      0.23691327E-03
    0.131880950975        -0.67807827E-03     -0.97743580E-03      0.97699749E-04      0.14185375E-03     -0.54045081E-07      0.18271163E-09     -0.23389414E+01      0.79073207E-02      0.24922431E-03
    0.138160996260        -0.74828224E-03     -0.10175959E-02      0.10712042E-03      0.14666566E-03     -0.63389007E-07      0.20503419E-09     -0.24673856E+01      0.79808539E-02      0.26164984E-03
    0.144441041544        -0.82284183E-03     -0.10565947E-02      0.11698312E-03      0.15118087E-03     -0.73952517E-07      0.22942847E-09     -0.25985046E+01      0.80615369E-02      0.27420098E-03
    0.150721086829        -0.90191840E-03     -0.10943149E-02      0.12728603E-03      0.15538062E-03     -0.85861869E-07      0.25611571E-09     -0.27324955E+01      0.81507079E-02      0.28689096E-03
    0.157001132113        -0.98568328E-03     -0.11306298E-02      0.13802676E-03      0.15924564E-03     -0.99255656E-07      0.28529990E-09     -0.28695678E+01      0.82482695E-02      0.29973283E-03
    0.163281177398        -0.10743202E-02     -0.11654027E-02      0.14920227E-03      0.16275611E-03     -0.11428619E-06      0.31723628E-09     -0.30099470E+01      0.83550287E-02      0.31274091E-03
    0.169561222683        -0.11680243E-02     -0.11984838E-02      0.16080888E-03      0.16589171E-03     -0.13112075E-06      0.35224995E-09     -0.31538710E+01      0.84727315E-02      0.32593225E-03
    0.175841267967        -0.12670054E-02     -0.12297147E-02      0.17284216E-03      0.16863163E-03     -0.14994363E-06      0.39059568E-09     -0.33016018E+01      0.86005083E-02      0.33932253E-03
    0.182121313252        -0.13714865E-02     -0.12589188E-02      0.18529691E-03      0.17095458E-03     -0.17095733E-06      0.43277146E-09     -0.34534128E+01      0.87421725E-02      0.35293337E-03
    0.188401358536        -0.14817067E-02     -0.12859110E-02      0.19816707E-03      0.17283884E-03     -0.19438530E-06      0.47901457E-09     -0.36096063E+01      0.88949831E-02      0.36678211E-03
    0.194681403821        -0.15979243E-02     -0.13104864E-02      0.21144573E-03      0.17426226E-03     -0.22047380E-06      0.52997429E-09     -0.37705064E+01      0.90635324E-02      0.38089328E-03
    0.200961449105        -0.17204151E-02     -0.13324235E-02      0.22512501E-03      0.17520231E-03     -0.24949450E-06      0.58633973E-09     -0.39364626E+01      0.92511234E-02      0.39529651E-03
    0.207241494390        -0.18494746E-02     -0.13514835E-02      0.23919607E-03      0.17563612E-03     -0.28174746E-06      0.64866752E-09     -0.41078535E+01      0.94575162E-02      0.41002108E-03
    0.213521539674        -0.19854239E-02     -0.13674086E-02      0.25364902E-03      0.17554051E-03     -0.31756479E-06      0.71762593E-09     -0.42850958E+01      0.96833655E-02      0.42509728E-03
    0.219801584959        -0.21286107E-02     -0.13799174E-02      0.26847288E-03      0.17489204E-03     -0.35731422E-06      0.79421758E-09     -0.44686435E+01      0.99326448E-02      0.44056158E-03
    0.226081630243        -0.22794114E-02     -0.13887034E-02      0.28365558E-03      0.17366706E-03     -0.40140331E-06      0.87954994E-09     -0.46589911E+01      0.10208723E-01      0.45645571E-03
    0.232361675528        -0.24382351E-02     -0.13934340E-02      0.29918383E-03      0.17184176E-03     -0.45028470E-06      0.97484288E-09     -0.48566825E+01      0.10514464E-01      0.47282586E-03
    0.238641720812        -0.26055299E-02     -0.13937454E-02      0.31504317E-03      0.16939221E-03     -0.50446188E-06      0.10817622E-08     -0.50623173E+01      0.10855575E-01      0.48972709E-03
    0.244921766097        -0.27817817E-02     -0.13892405E-02      0.33121789E-03      0.16629444E-03     -0.56449512E-06      0.12018441E-08     -0.52765506E+01      0.11234094E-01      0.50721764E-03
    0.251201811381        -0.29675311E-02     -0.13794879E-02      0.34769099E-03      0.16252450E-03     -0.63101112E-06      0.13368858E-08     -0.55001203E+01      0.11652778E-01      0.52536005E-03
    0.257481856666        -0.31633720E-02     -0.13640092E-02      0.36444415E-03      0.15805848E-03     -0.70471016E-06      0.14895873E-08     -0.57338380E+01      0.12119950E-01      0.54422980E-03
    0.263761901951        -0.33699618E-02     -0.13422793E-02      0.38145773E-03      0.15287266E-03     -0.78637752E-06      0.16628785E-08     -0.59786097E+01      0.12642403E-01      0.56391297E-03
    0.270041947235        -0.35880319E-02     -0.13137179E-02      0.39871071E-03      0.14694350E-03     -0.87689589E-06      0.18603579E-08     -0.62354478E+01      0.13228668E-01      0.58450891E-03
    0.276321992520        -0.38183986E-02     -0.12776823E-02      0.41618068E-03      0.14024774E-03     -0.97726014E-06      0.20862719E-08     -0.65054887E+01      0.13888030E-01      0.60613142E-03
    0.282602037804        -0.40619785E-02     -0.12334581E-02      0.43384384E-03      0.13276250E-03     -0.10885951E-05      0.23457254E-08     -0.67900137E+01      0.14631251E-01      0.62891106E-03
    0.288882083089        -0.43198047E-02     -0.11802470E-02      0.45167495E-03      0.12446531E-03     -0.12121766E-05      0.26449016E-08     -0.70904717E+01      0.15471013E-01      0.65299814E-03
    0.295162128373        -0.45930480E-02     -0.11171552E-02      0.46964735E-03      0.11533422E-03     -0.13494571E-05      0.29909479E-08     -0.74085102E+01      0.16420284E-01      0.67856316E-03
    0.301442173658        -0.48830446E-02     -0.10431752E-02      0.48773294E-03      0.10534788E-03     -0.15020972E-05      0.33927285E-08     -0.77460135E+01      0.17495619E-01      0.70580239E-03
    0.307722218942        -0.51913267E-02     -0.95716331E-03      0.50590219E-03      0.94485605E-04     -0.16720035E-05      0.38616852E-08     -0.81051455E+01      0.18719769E-01      0.73494751E-03
    0.314002264227        -0.55196634E-02     -0.85780717E-03      0.52412412E-03      0.82727467E-04     -0.18613759E-05      0.44150865E-08     -0.84884055E+01      0.20134055E-01      0.76629456E-03
    0.320282309511        -0.58700147E-02     -0.74365950E-03      0.54236635E-03      0.70054378E-04     -0.20727358E-05      0.50504308E-08     -0.88985696E+01      0.21682266E-01      0.80005205E-03
    0.326562354796        -0.62449923E-02     -0.61296139E-03      0.56059505E-03      0.56448174E-04     -0.23091304E-05      0.58097360E-08     -0.93393406E+01      0.23497635E-01      0.83663592E-03
    0.332842400080        -0.66472164E-02     -0.46367164E-03      0.57877500E-03      0.41891703E-04     -0.25739812E-05      0.67245200E-08     -0.98144064E+01      0.25640114E-01      0.87655544E-03
    0.339122445365        -0.70800698E-02     -0.29346918E-03      0.59686963E-03      0.26368905E-04     -0.28714291E-05      0.78207388E-08     -0.10328560E+02      0.28131279E-01      0.92035351E-03
    0.345402490650        -0.75475421E-02     -0.99570241E-04      0.61484097E-03      0.98649031E-05     -0.32063854E-05      0.91434308E-08     -0.10887440E+02      0.31046973E-01      0.96869107E-03
    0.351682535934        -0.80544390E-02      0.12135377E-03      0.63264977E-03     -0.76339138E-05     -0.35847461E-05      0.10752721E-07     -0.11497831E+02      0.34488628E-01      0.10223870E-02
    0.357962581219        -0.86066147E-02      0.37331724E-03      0.65025547E-03     -0.26139806E-04     -0.40136603E-05      0.12726529E-07     -0.12167989E+02      0.38582303E-01      0.10824564E-02
    0.364242626503        -0.92112774E-02      0.66122103E-03      0.66761628E-03     -0.45663599E-04     -0.45018877E-05      0.15168413E-07     -0.12908069E+02      0.43491737E-01      0.11501695E-02
    0.370522671788        -0.98774113E-02      0.99112329E-03      0.68468921E-03     -0.66214599E-04     -0.50602902E-05      0.18216816E-07     -0.13730714E+02      0.49429949E-01      0.12271278E-02
    0.376802717072        -0.10616377E-01      0.13706243E-02      0.70143011E-03     -0.87800513E-04     -0.57025233E-05      0.22060902E-07     -0.14651894E+02      0.56682627E-01      0.13153779E-02
    0.383082762357        -0.11442732E-01      0.18094352E-02      0.71779374E-03     -0.11042737E-03     -0.64460056E-05      0.26977025E-07     -0.15692056E+02      0.65672452E-01      0.14176245E-02
    0.389362807641        -0.12375462E-01      0.23201454E-02      0.73373384E-03     -0.13409943E-03     -0.73133433E-05      0.33350366E-07     -0.16877841E+02      0.76966464E-01      0.15374549E-02
    0.395642852926        -0.13439803E-01      0.29194707E-02      0.74920318E-03     -0.15881913E-03     -0.83344627E-05      0.41763242E-07     -0.18244654E+02      0.91422320E-01      0.16797918E-02
    0.401922898210        -0.14670146E-01      0.36299834E-02      0.76415362E-03     -0.18458699E-03     -0.95499237E-05      0.53011045E-07     -0.19840687E+02      0.11013445E+00      0.18512620E-02
    0.408202943495        -0.16114526E-01      0.44834255E-02      0.77853620E-03     -0.21140156E-03     -0.11016209E-04      0.68474650E-07     -0.21733313E+02      0.13509012E+00      0.20615861E-02
    0.414482988779        -0.17842143E-01      0.55254436E-02      0.79230123E-03     -0.23925932E-03     -0.12814459E-04      0.90288374E-07     -0.24019606E+02      0.16923782E+00      0.23250753E-02
    0.420763034064        -0.19956656E-01      0.68246621E-02      0.80539835E-03     -0.26815466E-03     -0.15065944E-04      0.12210664E-06     -0.26845134E+02      0.21757476E+00      0.26638212E-02
    0.427043079349        -0.22620716E-01      0.84893827E-02      0.81777662E-03     -0.29807978E-03     -0.17960754E-04      0.17051027E-06     -0.30438710E+02      0.28896965E+00      0.31137229E-02
    0.433323124633        -0.26105055E-01      0.10701601E-01      0.82938462E-03     -0.32902464E-03     -0.21815412E-04      0.24832625E-06     -0.35182247E+02      0.40048181E+00      0.37372398E-02
    0.439603169918        -0.30896489E-01      0.13793114E-01      0.84017055E-03     -0.36097694E-03     -0.27200285E-04      0.38302478E-06     -0.41765287E+02      0.58812399E+00      0.46529000E-02
    0.445883215202        -0.37968077E-01      0.18441351E-01      0.85008232E-03     -0.39392200E-03     -0.35260842E-04      0.64225493E-06     -0.51574780E+02      0.93940347E+00      0.61154732E-02
    0.452163260487        -0.49588771E-01      0.26279602E-01      0.85906766E-03     -0.42784278E-03     -0.48692239E-04      0.12296660E-05     -0.67877456E+02      0.17141664E+01      0.87842879E-02
    0.458443305771        -0.72560684E-01      0.42501567E-01      0.86707421E-03     -0.46271982E-03     -0.75718161E-04      0.30044048E-05     -0.10064752E+03      0.39935714E+01      0.15001947E-01
    0.464723351056        -0.14064046E+00      0.96811257E-01      0.87404965E-03     -0.49853117E-03     -0.15911214E-03      0.13480874E-04     -0.20177038E+03      0.17095120E+02      0.41617628E-01
    0.471003396340         0.25471578E+00      0.36789396E+00      0.87994181E-03     -0.53525243E-03      0.25640420E-04      0.43338202E-03      0.31034308E+02      0.52455110E+03      0.85830012E+00
    0.477283441625         0.12696648E+00     -0.67169768E-01      0.88469876E-03     -0.57285663E-03      0.14395416E-03      0.12703927E-04      0.16638481E+03      0.14683427E+02      0.88116100E+00
    0.483563486909         0.60798834E-01     -0.37657673E-01      0.88826897E-03     -0.61131429E-03      0.74494300E-04      0.35948630E-05      0.82260771E+02      0.39696487E+01      0.88734141E+00
    0.489843532194         0.38027884E-01     -0.25766914E-01      0.89060138E-03     -0.65059337E-03      0.49602996E-04      0.17562263E-05      0.52355675E+02      0.18536867E+01      0.89022745E+00
    0.496123577478         0.26247158E-01     -0.19104427E-01      0.89164558E-03     -0.69065926E-03      0.36314074E-04      0.10849875E-05      0.36653966E+02      0.10951428E+01      0.89193249E+00
    0.502403622763         0.18808364E-01     -0.14575606E-01      0.89135188E-03     -0.73147477E-03      0.27558405E-04      0.76953091E-06      0.26612915E+02      0.74312939E+00      0.89308948E+00
    0.508683668048         0.13437060E-01     -0.11008175E-01      0.88967147E-03     -0.77300016E-03      0.20819293E-04      0.60349236E-06      0.19244085E+02      0.55783152E+00      0.89395798E+00
    0.514963713332         0.90812345E-02     -0.77812761E-02      0.88655652E-03     -0.81519312E-03      0.14825054E-04      0.51951483E-06      0.13122583E+02      0.45985509E+00      0.89467394E+00
    0.521243758617         0.50773948E-02     -0.43959713E-02      0.88196033E-03     -0.85800880E-03      0.86003582E-05      0.49974473E-06      0.72933764E+01      0.42379937E+00      0.89533376E+00
    0.527523803901         0.69314212E-03     -0.10621307E-03      0.87583744E-03     -0.90139982E-03      0.74150884E-06      0.56104562E-06      0.60271657E+00      0.45603164E+00      0.89604376E+00
    0.533803849186        -0.56526479E-02      0.70816067E-02      0.86814379E-03     -0.94531629E-03     -0.12386031E-04      0.85869049E-06     -0.96540125E+01      0.66928691E+00      0.89708579E+00
    0.540083894470        -0.22231356E-01      0.28693945E-01      0.85883678E-03     -0.98970588E-03     -0.51298975E-04      0.28526277E-05     -0.38357997E+02      0.21330072E+01      0.90040670E+00
    0.546363939755         0.10101374E+00      0.43026359E-01      0.84787549E-03     -0.10345138E-02      0.44950138E-04      0.15405398E-03      0.32258267E+02      0.11055616E+03      0.10725335E+01
    0.552643985039         0.20247307E-01     -0.23689046E-01      0.83522072E-03     -0.10796829E-02      0.46961065E-04      0.22935717E-05      0.32359406E+02      0.15804287E+01      0.10749941E+01
    0.558924030324         0.92181009E-02     -0.10136425E-01      0.82083517E-03     -0.11251538E-02      0.21207343E-04      0.22932058E-05      0.14037503E+02      0.15179122E+01      0.10773573E+01
    0.565204075608         0.60017625E-02      0.39544747E-02      0.80468353E-03     -0.11708646E-02      0.22536374E-06      0.11540735E-04      0.14335596E+00      0.73411682E+01      0.10887869E+01
    0.571484120893         0.23694963E-01      0.82068063E-02      0.78673265E-03     -0.12167515E-02      0.98934843E-05      0.40332427E-04      0.60505497E+01      0.24666068E+02      0.11271899E+01
    0.577764166177         0.21524544E-01     -0.33609016E-02      0.76695161E-03     -0.12627483E-02      0.23979820E-04      0.28428806E-04      0.14105542E+02      0.16722550E+02      0.11532255E+01
    0.584044211462         0.17927670E-01     -0.33182003E-02      0.74531184E-03     -0.13087869E-02      0.20680446E-04      0.24518649E-04      0.11705373E+02      0.13877841E+02      0.11748322E+01
    0.590324256747         0.17519055E-01     -0.26408515E-02      0.72178729E-03     -0.13547972E-02      0.19153483E-04      0.25771944E-04      0.10436060E+02      0.14042227E+02      0.11966948E+01
    0.596604302031         0.17951091E-01     -0.30530114E-02      0.69635449E-03     -0.14007072E-02      0.20018100E-04      0.27465568E-04      0.10504027E+02      0.14411910E+02      0.12191329E+01
