 ## Photon energy (column 1); D(omega) (2,3); E(omega) (4,5); response (6,7); cr
 oss sect (9); integrated (10)
 ## UNITLESS RESPONSE FUNCTION FOR ABSORPTION/EMISSION 2 omega im(D(omega)E(omeg
 a)^*) IN COLUMN 7
 ## QUANTUM MECHANICAL PHOTOABSORPTION/EMISSION CROSS SECTION IN MEGABARNS (no f
 actor of 1/3) IN COLUMN NINE
 ## INTEGRATED DIFFERENTIAL OSCILLATOR STRENGTH (CUMULATIVE EXCITATION PROBABILI
 TY FOR SUM RULE) IN COLUMN 10
 
    0.000000000000        -0.90223461E-05      0.00000000E+00     -0.13681186E-04      0.00000000E+00      0.00000000E+00      0.00000000E+00      0.00000000E+00      0.00000000E+00      0.00000000E+00
    0.006276908399        -0.10375779E-04     -0.48501274E-04     -0.13448012E-04      0.80647149E-05     -0.31587329E-11      0.92386477E-11     -0.16493844E-01      0.48241119E-01      0.00000000E+00
    0.012553816798        -0.14440023E-04     -0.97169910E-04     -0.12748465E-04      0.16116400E-04     -0.34697268E-10      0.36945590E-10     -0.10550209E+00      0.11233844E+00      0.00000000E+00
    0.018830725196        -0.21409804E-04     -0.14594844E-03     -0.11582472E-04      0.24141989E-04     -0.12336035E-09      0.83130830E-10     -0.22090746E+00      0.14886648E+00      0.00000000E+00
    0.025107633595        -0.31380522E-04     -0.19457936E-03     -0.99499180E-05      0.32128345E-04     -0.29824249E-09      0.14784645E-09     -0.33850533E+00      0.16780577E+00      0.00000000E+00
    0.031384541994        -0.44235594E-04     -0.24303161E-03     -0.78506531E-05      0.40062228E-04     -0.58934580E-09      0.23099860E-09     -0.45402775E+00      0.17795965E+00      0.00000000E+00
    0.037661450393        -0.59997386E-04     -0.29130593E-03     -0.52845025E-05      0.47930256E-04     -0.10278045E-08      0.33255791E-09     -0.56753288E+00      0.18363177E+00      0.00000000E+00
    0.043938358791        -0.78700357E-04     -0.33937408E-03     -0.22512813E-05      0.55718874E-04     -0.16461387E-08      0.45248792E-09     -0.67967425E+00      0.18682775E+00      0.00000000E+00
    0.050215267190        -0.10038326E-03     -0.38719331E-03      0.12491887E-05      0.63414323E-04     -0.24785251E-08      0.59073831E-09     -0.79103839E+00      0.18853821E+00      0.00000000E+00
    0.056492175589        -0.12509109E-03     -0.43471021E-03      0.52170589E-05      0.71002607E-04     -0.35610595E-08      0.74726545E-09     -0.90206890E+00      0.18929336E+00      0.00000000E+00
    0.062769083988        -0.15271787E-03     -0.48194482E-03      0.96524315E-05      0.78469465E-04     -0.49326521E-08      0.92041446E-09     -0.10132215E+01      0.18906335E+00      0.00000000E+00
    0.069045992387        -0.18375078E-03     -0.52890549E-03      0.14555334E-04      0.85800340E-04     -0.66359862E-08      0.11140547E-08     -0.11250015E+01      0.18886616E+00      0.00000000E+00
    0.075322900785        -0.21789650E-03     -0.57527061E-03      0.19925691E-04      0.92980357E-04     -0.87119379E-08      0.13252959E-08     -0.12370279E+01      0.18818178E+00      0.00000000E+00
    0.081599809184        -0.25524697E-03     -0.62121324E-03      0.25763293E-04      0.99994297E-04     -0.11210799E-07      0.15534551E-08     -0.13499592E+01      0.18706080E+00      0.00000000E+00
    0.087876717583        -0.29595341E-03     -0.66663580E-03      0.32067766E-04      0.10682657E-03     -0.14184178E-07      0.17993931E-08     -0.14639365E+01      0.18571377E+00      0.00000000E+00
    0.094153625982        -0.34011705E-03     -0.71146817E-03      0.38838530E-04      0.11346121E-03     -0.17688395E-07      0.20634173E-08     -0.15791387E+01      0.18421242E+00      0.00000000E+00
    0.100430534380        -0.38780251E-03     -0.75560312E-03      0.46074771E-04      0.11988184E-03     -0.21783585E-07      0.23453020E-08     -0.16956514E+01      0.18256015E+00      0.00000000E+00
    0.106707442779        -0.43909292E-03     -0.79898973E-03      0.53775392E-04      0.12607167E-03     -0.26536512E-07      0.26444652E-08     -0.18136782E+01      0.18073998E+00      0.00000000E+00
    0.112984351178        -0.49410249E-03     -0.84154407E-03      0.61938977E-04      0.13201348E-03     -0.32019621E-07      0.29610509E-08     -0.19333869E+01      0.17879215E+00      0.00000000E+00
    0.119261259577        -0.55293914E-03     -0.88317621E-03      0.70563750E-04      0.13768960E-03     -0.38311878E-07      0.32948892E-08     -0.20549395E+01      0.17672843E+00      0.00000000E+00
    0.125538167976        -0.61572113E-03     -0.92379143E-03      0.79647524E-04      0.14308194E-03     -0.45499685E-07      0.36458477E-08     -0.21785078E+01      0.17456181E+00      0.00000000E+00
    0.131815076374        -0.68257590E-03     -0.96328521E-03      0.89187662E-04      0.14817194E-03     -0.53677521E-07      0.40138849E-08     -0.23042667E+01      0.17230791E+00      0.00000000E+00
    0.138091984773        -0.75363712E-03     -0.10015449E-02      0.99181028E-04      0.15294061E-03     -0.62948787E-07      0.43989124E-08     -0.24323969E+01      0.16997788E+00      0.00000000E+00
    0.144368893172        -0.82904772E-03     -0.10384491E-02      0.10962394E-03      0.15736852E-03     -0.73426792E-07      0.48008799E-08     -0.25630886E+01      0.16758298E+00      0.00000000E+00
    0.150645801571        -0.90896014E-03     -0.10738667E-02      0.12051211E-03      0.16143578E-03     -0.85235762E-07      0.52198006E-08     -0.26965418E+01      0.16513504E+00      0.00000000E+00
    0.156922709970        -0.99353614E-03     -0.11076556E-02      0.13184064E-03      0.16512212E-03     -0.98511957E-07      0.56557369E-08     -0.28329671E+01      0.16264540E+00      0.00000000E+00
    0.163199618368        -0.10829483E-02     -0.11396625E-02      0.14360389E-03      0.16840681E-03     -0.11340497E-06      0.61088513E-08     -0.29725885E+01      0.16012615E+00      0.00000000E+00
    0.169476526767        -0.11773791E-02     -0.11697213E-02      0.15579552E-03      0.17126877E-03     -0.13007903E-06      0.65793927E-08     -0.31156421E+01      0.15758906E+00      0.00000000E+00
    0.175753435166        -0.12770233E-02     -0.11976546E-02      0.16840838E-03      0.17368653E-03     -0.14871479E-06      0.70676309E-08     -0.32623834E+01      0.15504391E+00      0.00000000E+00
    0.182030343565        -0.13820897E-02     -0.12232688E-02      0.18143450E-03      0.17563828E-03     -0.16951088E-06      0.75741682E-08     -0.34130850E+01      0.15250514E+00      0.00000000E+00
    0.188307251963        -0.14928005E-02     -0.12463560E-02      0.19486501E-03      0.17710190E-03     -0.19268600E-06      0.80997144E-08     -0.35680401E+01      0.14998550E+00      0.00000000E+00
    0.194584160362        -0.16093941E-02     -0.12666902E-02      0.20869010E-03      0.17805497E-03     -0.21848108E-06      0.86453339E-08     -0.37275646E+01      0.14750037E+00      0.00000000E+00
    0.200861068761        -0.17321240E-02     -0.12840264E-02      0.22289901E-03      0.17847484E-03     -0.24716161E-06      0.92124260E-08     -0.38919968E+01      0.14506595E+00      0.22574281E-03
    0.207137977160        -0.18612633E-02     -0.12981011E-02      0.23747995E-03      0.17833864E-03     -0.27902078E-06      0.98026695E-08     -0.40617067E+01      0.14269750E+00      0.44780000E-03
    0.213414885559        -0.19971056E-02     -0.13086274E-02      0.25242004E-03      0.17762333E-03     -0.31438243E-06      0.10418398E-07     -0.42370943E+01      0.14041413E+00      0.66630394E-03
    0.219691793957        -0.21399666E-02     -0.13152942E-02      0.26770533E-03      0.17630578E-03     -0.35360468E-06      0.11062453E-07     -0.44185948E+01      0.13823487E+00      0.88141664E-03
    0.225968702356        -0.22901878E-02     -0.13177649E-02      0.28332071E-03      0.17436276E-03     -0.39708430E-06      0.11738345E-07     -0.46066849E+01      0.13617979E+00      0.10933314E-02
    0.232245610755        -0.24481408E-02     -0.13156725E-02      0.29924990E-03      0.17177103E-03     -0.44526142E-06      0.12450604E-07     -0.48018878E+01      0.13427259E+00      0.13022782E-02
    0.238522519154        -0.26142287E-02     -0.13086156E-02      0.31547540E-03      0.16850740E-03     -0.49862477E-06      0.13205007E-07     -0.50047761E+01      0.13254076E+00      0.15085301E-02
    0.244799427552        -0.27888913E-02     -0.12961585E-02      0.33197846E-03      0.16454877E-03     -0.55771826E-06      0.14008366E-07     -0.52159821E+01      0.13101129E+00      0.17124019E-02
    0.251076335951        -0.29726124E-02     -0.12778210E-02      0.34873907E-03      0.15987219E-03     -0.62314842E-06      0.14869717E-07     -0.54362060E+01      0.12972005E+00      0.19142643E-02
    0.257353244350        -0.31659213E-02     -0.12530765E-02      0.36573590E-03      0.15445496E-03     -0.69559235E-06      0.15800052E-07     -0.56662202E+01      0.12870552E+00      0.21145481E-02
    0.263630152749        -0.33694028E-02     -0.12213451E-02      0.38294634E-03      0.14827466E-03     -0.77580816E-06      0.16812971E-07     -0.59068853E+01      0.12801140E+00      0.23137516E-02
    0.269907061148        -0.35837041E-02     -0.11819869E-02      0.40034639E-03      0.14130922E-03     -0.86464654E-06      0.17925201E-07     -0.61591612E+01      0.12768709E+00      0.25124505E-02
    0.276183969546        -0.38095466E-02     -0.11342927E-02      0.41791073E-03      0.13353702E-03     -0.96306481E-06      0.19157459E-07     -0.64241244E+01      0.12778984E+00      0.27113093E-02
    0.282460877945        -0.40477365E-02     -0.10774729E-02      0.43561266E-03      0.12493695E-03     -0.10721432E-05      0.20535475E-07     -0.67029853E+01      0.12838675E+00      0.29110970E-02
    0.288737786344        -0.42991791E-02     -0.10106450E-02      0.45342411E-03      0.11548847E-03     -0.11931046E-05      0.22091205E-07     -0.69971097E+01      0.12955661E+00      0.31127051E-02
    0.295014694743        -0.45648966E-02     -0.93281911E-03      0.47131564E-03      0.10517171E-03     -0.13273380E-05      0.23864183E-07     -0.73080470E+01      0.13139123E+00      0.33171681E-02
    0.301291603141        -0.48460488E-02     -0.84287831E-03      0.48925641E-03      0.93967544E-04     -0.14764275E-05      0.25903657E-07     -0.76375623E+01      0.13399967E+00      0.35256903E-02
    0.307568511540        -0.51439601E-02     -0.73955577E-03      0.50721423E-03      0.81857660E-04     -0.16421871E-05      0.28271279E-07     -0.79876775E+01      0.13751287E+00      0.37396795E-02
    0.313845419939        -0.54601522E-02     -0.62140299E-03      0.52515555E-03      0.68824651E-04     -0.18267040E-05      0.31045485E-07     -0.83607221E+01      0.14209345E+00      0.39607967E-02
    0.320122328338        -0.57963311E-02     -0.48677478E-03      0.54304546E-03      0.54852096E-04     -0.20323747E-05      0.34317164E-07     -0.87593190E+01      0.14790333E+00      0.41909548E-02
    0.326399236737        -0.61546469E-02     -0.33375967E-03      0.56084773E-03      0.39924640E-04     -0.22620413E-05      0.38210719E-07     -0.91867702E+01      0.15518421E+00      0.44324431E-02
    0.332676145135        -0.65373917E-02     -0.16009027E-03      0.57852480E-03      0.24028078E-04     -0.25189505E-05      0.42891783E-07     -0.96466076E+01      0.16425896E+00      0.46880529E-02
    0.338953053534        -0.69473950E-02      0.36833549E-04      0.59603787E-03      0.71494386E-05     -0.28069700E-05      0.48554458E-07     -0.10143201E+02      0.17545525E+00      0.49610857E-02
    0.345229961933        -0.73879942E-02      0.26011555E-03      0.61334688E-03     -0.10722935E-04     -0.31306781E-05      0.55457794E-07     -0.10681711E+02      0.18921912E+00      0.52555370E-02
    0.351506870332        -0.78631821E-02      0.51346719E-03      0.63041054E-03     -0.29599301E-04     -0.34955468E-05      0.63939404E-07     -0.11268323E+02      0.20611650E+00      0.55762830E-02
    0.357783778731        -0.83777851E-02      0.80137137E-03      0.64718643E-03     -0.49488438E-04     -0.39081777E-05      0.74442766E-07     -0.11910526E+02      0.22687109E+00      0.59293260E-02
    0.364060687129        -0.89376936E-02      0.11293078E-02      0.66363098E-03     -0.70397564E-04     -0.43766144E-05      0.87557902E-07     -0.12617482E+02      0.25242348E+00      0.63221321E-02
    0.370337595528        -0.95501765E-02      0.15040582E-02      0.67969958E-03     -0.92332261E-04     -0.49107684E-05      0.10407847E-06     -0.13400525E+02      0.28400974E+00      0.67640908E-02
    0.376614503927        -0.10224316E-01      0.19341365E-02      0.69534659E-03     -0.11529639E-03     -0.55230082E-05      0.12508761E-06     -0.14273860E+02      0.32328090E+00      0.72671609E-02
    0.382891412326        -0.10971619E-01      0.24304097E-02      0.71052545E-03     -0.13929203E-03     -0.62289932E-05      0.15209127E-06     -0.15255554E+02      0.37248981E+00      0.78468069E-02
    0.389168320724        -0.11806870E-01      0.30070019E-02      0.72518868E-03     -0.16431937E-03     -0.70488632E-05      0.18722602E-06     -0.16368933E+02      0.43477793E+00      0.85233819E-02
    0.395445229123        -0.12749398E-01      0.36826375E-02      0.73928803E-03     -0.19037670E-03     -0.80090039E-05      0.23358282E-06     -0.17644681E+02      0.51460762E+00      0.93241830E-02
    0.401722137522        -0.13824969E-01      0.44827104E-02      0.75277448E-03     -0.21746027E-03     -0.91447187E-05      0.29573863E-06     -0.19124006E+02      0.61846707E+00      0.10286604E-01
    0.407999045921        -0.15068809E-01      0.54426461E-02      0.76559839E-03     -0.24556427E-03     -0.10504486E-04      0.38067939E-06     -0.20863744E+02      0.75609572E+00      0.11463194E-01
    0.414275954320        -0.16530204E-01      0.66135547E-02      0.77770952E-03     -0.27468077E-03     -0.12156773E-04      0.49953010E-06     -0.22944417E+02      0.94280176E+00      0.12930325E-01
    0.420552862718        -0.18280365E-01      0.80719325E-02      0.78905716E-03     -0.30479964E-03     -0.14201712E-04      0.67067049E-06     -0.25484143E+02      0.12034790E+01      0.14803106E-01
    0.426829771117        -0.20426103E-01      0.99378990E-02      0.79959021E-03     -0.33590848E-03     -0.16792112E-04      0.92617412E-06     -0.28663655E+02      0.15809527E+01      0.17263288E-01
    0.433106679516        -0.23134915E-01      0.12411577E-01      0.80925728E-03     -0.36799262E-03     -0.20173647E-04      0.13258966E-05     -0.32774129E+02      0.21540531E+01      0.20615295E-01
    0.439383587915        -0.26684232E-01      0.15852642E-01      0.81800679E-03     -0.40103503E-03     -0.24768358E-04      0.19915124E-05     -0.38316455E+02      0.30808540E+01      0.25409533E-01
    0.445660496313        -0.31565288E-01      0.20977021E-01      0.82578704E-03     -0.43501629E-03     -0.31366969E-04      0.32008567E-05     -0.46229626E+02      0.47175234E+01      0.32750656E-01
    0.451937404712        -0.38717005E-01      0.29429318E-01      0.83254640E-03     -0.46991457E-03     -0.41635157E-04      0.57012702E-05     -0.58490281E+02      0.80093104E+01      0.45214258E-01
    0.458214313111        -0.50028048E-01      0.45907027E-01      0.83823333E-03     -0.50570555E-03     -0.59705889E-04      0.12079756E-04     -0.79988944E+02      0.16183445E+02      0.70397952E-01
    0.464491221510        -0.67482603E-01      0.89675453E-01      0.84279654E-03     -0.54236243E-03     -0.98017589E-04      0.36210000E-04     -0.12529032E+03      0.46285189E+02      0.14242415E+00
    0.470768129909         0.27807354E-01      0.24708276E+00      0.84618509E-03     -0.57985592E-03     -0.11274166E-03      0.21203586E-03     -0.13756500E+03      0.25872169E+03      0.54503113E+00
    0.477045038307         0.19066715E+00      0.15796555E-01      0.84834853E-03     -0.61815417E-03      0.14500976E-03      0.12523642E-03      0.16898107E+03      0.14593903E+03      0.77213259E+00
    0.483321946706         0.80841338E-01     -0.28620230E-01      0.84923700E-03     -0.65722280E-03      0.84545887E-04      0.27863909E-04      0.94136037E+02      0.31024548E+02      0.82041110E+00
    0.489598855105         0.46167959E-01     -0.23970919E-01      0.84880136E-03     -0.69702488E-03      0.54732994E-04      0.11587500E-04      0.58255732E+02      0.12333298E+02      0.83960343E+00
    0.495875763504         0.30250610E-01     -0.18858953E-01      0.84699329E-03     -0.73752093E-03      0.39204867E-04      0.62847806E-05      0.39907735E+02      0.63974547E+01      0.84955876E+00
    0.502152671902         0.20981572E-01     -0.14764157E-01      0.84376547E-03     -0.77866892E-03      0.29325631E-04      0.38969178E-05      0.28562220E+02      0.37954724E+01      0.85546505E+00
    0.508429580301         0.14688376E-01     -0.11313408E-01      0.83907165E-03     -0.82042429E-03      0.21970660E-04      0.26010652E-05      0.20483932E+02      0.24250543E+01      0.85923877E+00
    0.514706488700         0.98545757E-02     -0.81032207E-02      0.83286681E-03     -0.86273997E-03      0.15645555E-04      0.18045947E-05      0.13969581E+02      0.16112839E+01      0.86174615E+00
    0.520983397099         0.56661949E-02     -0.47024205E-02      0.82510727E-03     -0.90556638E-03      0.93084860E-05      0.13036196E-05      0.79632160E+01      0.11152194E+01      0.86348159E+00
    0.527260305498         0.14238327E-02     -0.47515755E-03      0.81575084E-03     -0.94885151E-03      0.17002528E-05      0.10159205E-05      0.13942266E+01      0.83306637E+00      0.86477795E+00
    0.533537213896        -0.39894104E-02      0.62750590E-02      0.80475692E-03     -0.99254089E-03     -0.10071858E-04      0.11633717E-05     -0.79201193E+01      0.91483052E+00      0.86620156E+00
    0.539814122295        -0.14415361E-01      0.23806719E-01      0.79208664E-03     -0.10365777E-02     -0.38969968E-04      0.42260350E-05     -0.29399833E+02      0.31882172E+01      0.87116287E+00
    0.546091030694         0.81007955E-01      0.58155062E-01      0.77770300E-03     -0.10809027E-02      0.15308390E-06      0.14502986E-03      0.11084751E+00      0.10501561E+03      0.10345818E+01
    0.552367939093         0.26453632E-01     -0.28347446E-01      0.76157096E-03     -0.11254546E-02      0.57501593E-04      0.90409046E-05      0.39980248E+02      0.62860450E+01      0.10443637E+01
    0.558644847491         0.10532810E-01     -0.11774082E-01      0.74365762E-03     -0.11701696E-02      0.24145163E-04      0.39879299E-05      0.16126908E+02      0.26635968E+01      0.10485087E+01
    0.564921755890         0.62428676E-02      0.26553561E-02      0.72393226E-03     -0.12149820E-02      0.14611175E-05      0.10741727E-04      0.93787803E+00      0.68950165E+01      0.10592383E+01
    0.571198664289         0.22706165E-01      0.89793501E-02      0.70236655E-03     -0.12598238E-02      0.52957566E-05      0.39884017E-04      0.32682332E+01      0.24614097E+02      0.10975412E+01
    0.577475572688         0.22262221E-01     -0.29562132E-02      0.67893461E-03     -0.13046252E-02      0.21910974E-04      0.31226159E-04      0.13006271E+02      0.18535730E+02      0.11263854E+01
    0.583752481087         0.18368652E-01     -0.33286002E-02      0.65361312E-03     -0.13493145E-02      0.19260703E-04      0.26396670E-04      0.11001462E+02      0.15077433E+02      0.11498480E+01
    0.590029389485         0.17793047E-01     -0.26340601E-02      0.62638148E-03     -0.13938180E-02      0.17484501E-04      0.27318765E-04      0.96138751E+01      0.15021258E+02      0.11732232E+01
    0.596306297884         0.18216033E-01     -0.29844438E-02      0.59722187E-03     -0.14380606E-02      0.18092916E-04      0.29115709E-04      0.95807477E+01      0.15417651E+02      0.11972152E+01
