 ## Photon energy (column 1); D(omega) (2,3); E(omega) (4,5); response (6,7); cross sect (9)
 ## UNITLESS RESPONSE FUNCTION FOR ABSORPTION/EMISSION ( 2 omega Im(D(omega)E(omega)*) ) IN COLUMN 7
 ## QUANTUM MECHANICAL PHOTOABSORPTION/EMISSION CROSS SECTION IN MEGABARNS (no factor of 1/3) IN COLUMN 9

    0.000000000000         0.17099931E-03      0.00000000E+00     -0.42116684E-06      0.00000000E+00     -0.00000000E+00     -0.00000000E+00     -0.00000000E+00     -0.00000000E+00
    0.006280045285         0.28516521E-03      0.36268828E-04      0.19994307E-06     -0.19134187E-06      0.62897242E-12      0.77641137E-12      0.10544184E+02      0.13015872E+02
    0.012560090569         0.27887770E-03     -0.25921371E-04      0.20545441E-05     -0.57801876E-06      0.14769400E-10      0.27114709E-11      0.41629137E+01      0.76425713E+00
    0.018840135854         0.22527649E-03     -0.71194521E-04      0.51164562E-05     -0.13543552E-05      0.47064166E-10     -0.22291372E-11      0.21571854E+01     -0.10217247E+00
    0.025120181138         0.14038494E-03     -0.98699539E-04      0.93420657E-05     -0.27126474E-05      0.79340703E-10     -0.27192232E-10      0.10764714E+01     -0.36893625E+00
    0.031400226423         0.29771882E-04     -0.10662206E-03      0.14670358E-04     -0.48421314E-05      0.59851482E-10     -0.89178180E-10      0.32198263E+00     -0.47975128E+00
    0.037680271707        -0.10487333E-03     -0.92105546E-04      0.21022970E-04     -0.79279303E-05     -0.11112232E-09     -0.20857994E-09     -0.28262756E+00     -0.53050042E+00
    0.043960316992        -0.25888933E-03     -0.47592665E-04      0.28304259E-04     -0.12149974E-04     -0.59341338E-09     -0.39498993E-09     -0.80306676E+00     -0.53454017E+00
    0.050240362276        -0.42309327E-03      0.26620798E-04      0.36401411E-04     -0.17681887E-04     -0.15948198E-08     -0.65433579E-09     -0.12503212E+01     -0.51299206E+00
    0.056520407561        -0.59694941E-03      0.12811670E-03      0.45184574E-04     -0.24689842E-04     -0.34066077E-08     -0.10116800E-08     -0.16497629E+01     -0.48993963E+00
    0.062800452845        -0.78003698E-03      0.26011773E-03      0.54507043E-04     -0.33331365E-04     -0.64292074E-08     -0.14847848E-08     -0.20222375E+01     -0.46702295E+00
    0.069080498130        -0.96924697E-03      0.42570487E-03      0.64205497E-04     -0.43754115E-04     -0.11171328E-07     -0.20829083E-08     -0.23760073E+01     -0.44300957E+00
    0.075360543414        -0.11611916E-02      0.62706223E-03      0.74100296E-04     -0.56094599E-04     -0.18270327E-07     -0.28141258E-08     -0.27158629E+01     -0.41831653E+00
    0.081640588699        -0.13524031E-02      0.86605756E-03      0.83995857E-04     -0.70476866E-04     -0.28514328E-07     -0.36849112E-08     -0.30452525E+01     -0.39353847E+00
    0.087920633984        -0.15394337E-02      0.11444080E-02      0.93681109E-04     -0.87011149E-04     -0.42868714E-07     -0.47017284E-08     -0.33670337E+01     -0.36928745E+00
    0.094200679268        -0.17186467E-02      0.14638565E-02      0.10293005E-03     -0.10579247E-03     -0.62505050E-07     -0.58677738E-08     -0.36835984E+01     -0.34580441E+00
    0.100480724553        -0.18860451E-02      0.18260469E-02      0.11150238E-03     -0.12689924E-03     -0.88829480E-07     -0.71801723E-08     -0.39967636E+01     -0.32306224E+00
    0.106760769837        -0.20373220E-02      0.22323964E-02      0.11914434E-03     -0.15039178E-03     -0.12351569E-06     -0.86303446E-08     -0.43079201E+01     -0.30100496E+00
    0.113040815122        -0.21679041E-02      0.26840496E-02      0.12558954E-03     -0.17631090E-03     -0.16854234E-06     -0.10204551E-07     -0.46181736E+01     -0.27961157E+00
    0.119320860406        -0.22729660E-02      0.31818970E-02      0.13056002E-03     -0.20467643E-03     -0.22623660E-06     -0.11882928E-07     -0.49284718E+01     -0.25886473E+00
    0.125600905691        -0.23474448E-02      0.37265646E-02      0.13376748E-03     -0.23548574E-03     -0.29932319E-06     -0.13639407E-07     -0.52396689E+01     -0.23875857E+00
    0.131880950975        -0.23860266E-02      0.43183820E-02      0.13491455E-03     -0.26871237E-03     -0.39097753E-06     -0.15441228E-07     -0.55525322E+01     -0.21929116E+00
    0.138160996260        -0.23831321E-02      0.49573685E-02      0.13369630E-03     -0.30430459E-03     -0.50488613E-06     -0.17246964E-07     -0.58677692E+01     -0.20044362E+00
    0.144441041544        -0.23329479E-02      0.56432268E-02      0.12980193E-03     -0.34218409E-03     -0.64531738E-06     -0.19007261E-07     -0.61860784E+01     -0.18220555E+00
    0.150721086829        -0.22294133E-02      0.63752843E-02      0.12291655E-03     -0.38224471E-03     -0.81719480E-06     -0.20664914E-07     -0.65081193E+01     -0.16457487E+00
    0.157001132113        -0.20661679E-02      0.71525060E-02      0.11272318E-03     -0.42435126E-03     -0.10261845E-05     -0.22145873E-07     -0.68345479E+01     -0.14749495E+00
    0.163281177398        -0.18366354E-02      0.79734282E-02      0.98904908E-04     -0.46833849E-03     -0.12787906E-05     -0.23367449E-07     -0.71660193E+01     -0.13094528E+00
    0.169561222683        -0.15339816E-02      0.88361358E-02      0.81147218E-04     -0.51401012E-03     -0.15824612E-05     -0.24231742E-07     -0.75031884E+01     -0.11489402E+00
    0.175841267967        -0.11511063E-02      0.97382459E-02      0.59140436E-04     -0.56113807E-03     -0.19457109E-05     -0.24619692E-07     -0.78467320E+01     -0.99287171E-01
    0.182121313252        -0.68067828E-03      0.10676859E-01      0.32582373E-04     -0.60946184E-03     -0.23782553E-05     -0.24393342E-07     -0.81973489E+01     -0.84078750E-01
    0.188401358536        -0.11512485E-03      0.11648520E-01      0.11810834E-05     -0.65868812E-03     -0.28911612E-05     -0.23389462E-07     -0.85557623E+01     -0.69216024E-01
    0.194681403821         0.55336569E-03      0.12649186E-01     -0.35342243E-04     -0.70849052E-03     -0.34970176E-05     -0.21413504E-07     -0.89227318E+01     -0.54637116E-01
    0.200961449105         0.13328306E-02      0.13674213E-01     -0.77250275E-04     -0.75850964E-03     -0.42101360E-05     -0.18235997E-07     -0.92990786E+01     -0.40278501E-01
    0.207241494390         0.22315279E-02      0.14718282E-01     -0.12478644E-03     -0.80835330E-03     -0.50467600E-05     -0.13586391E-07     -0.96856692E+01     -0.26074806E-01
    0.213521539674         0.32579611E-02      0.15775353E-01     -0.17817174E-03     -0.85759708E-03     -0.60253102E-05     -0.71334363E-08     -0.10083426E+02     -0.11937888E-01
    0.219801584959         0.44208447E-02      0.16838696E-01     -0.23760154E-03     -0.90578509E-03     -0.71666920E-05      0.15100856E-08     -0.10493384E+02      0.22110492E-02
    0.226081630243         0.57291217E-02      0.17900751E-01     -0.30324226E-03     -0.95243115E-03     -0.84945853E-05      0.12809650E-07     -0.10916639E+02      0.16462054E-01
    0.232361675528         0.71920044E-02      0.18953136E-01     -0.37522814E-03     -0.99702007E-03     -0.10035840E-04      0.27336277E-07     -0.11354410E+02      0.30927884E-01
    0.238641720812         0.88189733E-02      0.19986629E-01     -0.45365797E-03     -0.10390095E-02     -0.11820924E-04      0.45773165E-07     -0.11808065E+02      0.45723373E-01
    0.244921766097         0.10619795E-01      0.20991010E-01     -0.53859190E-03     -0.10778318E-02     -0.13884377E-04      0.68952802E-07     -0.12279092E+02      0.60980613E-01
    0.251201811381         0.12604625E-01      0.21955087E-01     -0.63004830E-03     -0.11128967E-02     -0.16265451E-04      0.97908555E-07     -0.12769181E+02      0.76863048E-01
    0.257481856666         0.14784016E-01      0.22866605E-01     -0.72800075E-03     -0.11435934E-02     -0.19008791E-04      0.13388924E-06     -0.13280237E+02      0.93539924E-01
    0.263761901951         0.17169057E-01      0.23712205E-01     -0.83237520E-03     -0.11692945E-02     -0.22165309E-04      0.17842503E-06     -0.13814443E+02      0.11120271E+00
    0.270041947235         0.19771560E-01      0.24477167E-01     -0.94304722E-03     -0.11893582E-02     -0.25793129E-04      0.23350212E-06     -0.14374269E+02      0.13012855E+00
    0.276321992520         0.22604153E-01      0.25145484E-01     -0.10598396E-02     -0.12031331E-02     -0.29958908E-04      0.30153647E-06     -0.14962597E+02      0.15059857E+00
    0.282602037804         0.25680576E-01      0.25699591E-01     -0.11825200E-02     -0.12099613E-02     -0.34739310E-04      0.38559535E-06     -0.15582762E+02      0.17296373E+00
    0.288882083089         0.29016107E-01      0.26120186E-01     -0.13107990E-02     -0.12091828E-02     -0.40222996E-04      0.48963459E-06     -0.16238707E+02      0.19767380E+00
    0.295162128373         0.32628008E-01      0.26386006E-01     -0.14443287E-02     -0.12001405E-02     -0.46513114E-04      0.61873575E-06     -0.16935130E+02      0.22527776E+00
    0.301442173658         0.36536177E-01      0.26473380E-01     -0.15827009E-02     -0.11821843E-02     -0.53730411E-04      0.77956208E-06     -0.17677650E+02      0.25648092E+00
    0.307722218942         0.40764183E-01      0.26355753E-01     -0.17254465E-02     -0.11546764E-02     -0.62017588E-04      0.98101891E-06     -0.18473126E+02      0.29221527E+00
    0.314002264227         0.45340567E-01      0.26003083E-01     -0.18720350E-02     -0.11169966E-02     -0.71545091E-04      0.12350215E-05     -0.19330048E+02      0.33367803E+00
    0.320282309511         0.50300810E-01      0.25380665E-01     -0.20218740E-02     -0.10685473E-02     -0.82519032E-04      0.15580379E-05     -0.20259055E+02      0.38251026E+00
    0.326562354796         0.55690249E-01      0.24447583E-01     -0.21743098E-02     -0.10087592E-02     -0.95192651E-04      0.19733721E-05     -0.21273765E+02      0.44101151E+00
    0.332842400080         0.61568416E-01      0.23154597E-01     -0.23286281E-02     -0.93709684E-03     -0.10988329E-03      0.25143720E-05     -0.22392011E+02      0.51237861E+00
    0.339122445365         0.68015927E-01      0.21440021E-01     -0.24840552E-02     -0.85306420E-03     -0.12699799E-03      0.32309935E-05     -0.23637712E+02      0.60137406E+00
    0.345402490650         0.75145684E-01      0.19223163E-01     -0.26397597E-02     -0.75621034E-03     -0.14707466E-03      0.42010697E-05     -0.25043977E+02      0.71536108E+00
    0.351682535934         0.83121139E-01      0.16392670E-01     -0.27948550E-02     -0.64613505E-03     -0.17084977E-03      0.55512006E-05     -0.26658173E+02      0.86616954E+00
    0.357962581219         0.92189054E-01      0.12784015E-01     -0.29484015E-02     -0.52249433E-03     -0.19937794E-03      0.74999244E-05     -0.28551068E+02      0.10739947E+01
    0.364242626503         0.10274064E+00      0.81324968E-02     -0.30994106E-02     -0.38500589E-03     -0.23425644E-03      0.10453622E-04     -0.30834054E+02      0.13759602E+01
    0.370522671788         0.11543420E+00      0.19669779E-02     -0.32468480E-02     -0.23345437E-03     -0.27808209E-03      0.15237478E-04     -0.33694351E+02      0.18462784E+01
    0.376802717072         0.13146257E+00     -0.66743563E-02     -0.33896381E-02     -0.67696383E-04     -0.33547403E-03      0.23756050E-04     -0.37473694E+02      0.26536389E+01
    0.383082762357         0.15317487E+00     -0.20134892E-01     -0.35266691E-02      0.11233466E-03     -0.41561333E-03      0.41221432E-04     -0.42861472E+02      0.42510939E+01
    0.389362807641         0.18549914E+00     -0.45665851E-01     -0.36567978E-02      0.30662409E-03     -0.53913908E-03      0.85747251E-04     -0.51404790E+02      0.81756630E+01
    0.395642852926         0.23430424E+00     -0.11509147E+00     -0.37788557E-02      0.51507187E-03     -0.74751359E-03      0.24864613E-03     -0.65985933E+02      0.21948961E+02
    0.401922898210         0.16360269E+00     -0.32181165E+00     -0.38916551E-02      0.73748883E-03     -0.70257549E-03      0.90973221E-03     -0.57497481E+02      0.74450804E+02
    0.408202943495        -0.90166661E-01     -0.19330715E+00     -0.39939958E-02      0.97359341E-03      0.14035870E-03      0.70198955E-03      0.10663580E+02      0.53332792E+02
    0.414482988779        -0.21768655E-01     -0.73548775E-01     -0.40846721E-02      0.12230089E-02     -0.85631431E-06      0.27110991E-03     -0.60475532E-01      0.19146610E+02
    0.420763034064         0.28449253E-01     -0.60741935E-01     -0.41624800E-02      0.14852611E-02     -0.17557354E-03      0.17721068E-03     -0.11541293E+02      0.11648910E+02
    0.427043079349         0.57419080E-01     -0.68898489E-01     -0.42262251E-02      0.17597768E-02     -0.31081213E-03      0.16239232E-03     -0.19041444E+02      0.99487246E+01
    0.433323124633         0.74736037E-01     -0.84350242E-01     -0.42747304E-02      0.20458823E-02     -0.42643076E-03      0.17997938E-03     -0.24378470E+02      0.10289178E+02
    0.439603169918         0.85003139E-01     -0.10152601E+00     -0.43068445E-02      0.23428036E-02     -0.53099738E-03      0.20934878E-03     -0.28362731E+02      0.11182170E+02
    0.445883215202         0.95340189E-01     -0.12195344E+00     -0.43214499E-02      0.26496659E-02     -0.65557651E-03      0.24469718E-03     -0.32757525E+02      0.12226909E+02
    0.452163260487         0.10020943E+00     -0.15320661E+00     -0.43174714E-02      0.29654950E-02     -0.80212386E-03      0.32944127E-03     -0.37539490E+02      0.15417890E+02
    0.458443305771         0.91091914E-01     -0.18967988E+00     -0.42938846E-02      0.32892186E-02     -0.93067362E-03      0.47205202E-03     -0.40843590E+02      0.20716499E+02
    0.464723351056         0.66235045E-01     -0.22280031E+00     -0.42497246E-02      0.36196687E-02     -0.10111860E-02      0.65720343E-03     -0.41663038E+02      0.27078195E+02
    0.471003396340         0.30341993E-01     -0.24236371E+00     -0.41840940E-02      0.39555848E-02     -0.10226840E-02      0.84220325E-03     -0.39606114E+02      0.32616525E+02
    0.477283441625        -0.28760074E-02     -0.24706738E+00     -0.40961715E-02      0.42956173E-02     -0.10018430E-02      0.97784359E-03     -0.36510922E+02      0.35636292E+02
    0.483563486909        -0.28344912E-01     -0.24774417E+00     -0.39852200E-02      0.46383323E-02     -0.10020974E-02      0.10820102E-02     -0.34405750E+02      0.37149455E+02
    0.489843532194        -0.51424834E-01     -0.24993166E+00     -0.38505943E-02      0.49822167E-02     -0.10259259E-02      0.11938419E-02     -0.33221947E+02      0.38659470E+02
    0.496123577478        -0.76408035E-01     -0.25230742E+00     -0.36917488E-02      0.53256840E-02     -0.10533997E-02      0.13280044E-02     -0.32208828E+02      0.40605163E+02
    0.502403622763        -0.10409478E+00     -0.25200706E+00     -0.35082445E-02      0.56670811E-02     -0.10680644E-02      0.14811019E-02     -0.30869619E+02      0.42807392E+02
    0.508683668048        -0.13310194E+00     -0.24710301E+00     -0.32997558E-02      0.60046956E-02     -0.10627160E-02      0.16426578E-02     -0.29065484E+02      0.44927004E+02
    0.514963713332        -0.16142057E+00     -0.23725296E+00     -0.30660767E-02      0.63367634E-02     -0.10386695E-02      0.18027023E-02     -0.26911250E+02      0.46706843E+02
    0.521243758617        -0.18756835E+00     -0.22328515E+00     -0.28071265E-02      0.66614775E-02     -0.10017064E-02      0.19559902E-02     -0.24612631E+02      0.48060055E+02
    0.527523803901        -0.21094565E+00     -0.20636402E+00     -0.25229546E-02      0.69769969E-02     -0.95755578E-03      0.21020919E-02     -0.22335889E+02      0.49033270E+02
    0.533803849186        -0.23156401E+00     -0.18741236E+00     -0.22137451E-02      0.72814562E-02     -0.90961367E-03      0.22430506E-02     -0.20163868E+02      0.49722841E+02
    0.540083894470        -0.24964480E+00     -0.16697908E+00     -0.18798206E-02      0.75729757E-02     -0.85899383E-03      0.23811702E-02     -0.18114926E+02      0.50215404E+02
    0.546363939755        -0.26537865E+00     -0.14535345E+00     -0.15216444E-02      0.78496717E-02     -0.80552067E-03      0.25179855E-02     -0.16177104E+02      0.50568179E+02
    0.552643985039        -0.27885918E+00     -0.12271296E+00     -0.11398232E-02      0.81096675E-02     -0.74862383E-03      0.26541571E-02     -0.14332083E+02      0.50812703E+02
    0.558924030324        -0.29010677E+00     -0.99216972E-01     -0.73510828E-03      0.83511043E-02     -0.68782465E-03      0.27897543E-02     -0.12565658E+02      0.50965168E+02
    0.565204075608        -0.29911284E+00     -0.75041721E-01     -0.30839543E-03      0.85721524E-02     -0.62288206E-03      0.29245732E-02     -0.10869555E+02      0.51035038E+02
    0.571484120893        -0.30587181E+00     -0.50380358E-01      0.13927523E-03      0.87710228E-02     -0.55375398E-03      0.30583451E-02     -0.92396252E+01      0.51029814E+02
    0.577764166177        -0.31039678E+00     -0.25432735E-01      0.60672088E-03      0.89459785E-02     -0.48052057E-03      0.31908440E-02     -0.76738046E+01      0.50957055E+02
    0.584044211462        -0.31271629E+00     -0.38798953E-03      0.10926183E-02      0.90953463E-02     -0.40323399E-03      0.33218554E-02     -0.61694092E+01      0.50823804E+02
    0.590324256747        -0.31287489E+00      0.24566278E-01      0.15955075E-02      0.92175278E-02     -0.32202647E-03      0.34511876E-02     -0.47248603E+01      0.50636767E+02
    0.596604302031        -0.31092835E+00      0.49256253E-01      0.21137954E-02      0.93110109E-02     -0.23698722E-03      0.35786413E-02     -0.33377478E+01      0.50401882E+02
    0.602884347316        -0.30694195E+00      0.73522969E-01      0.26457618E-02      0.93743806E-02     -0.14814436E-03      0.37040189E-02     -0.20047590E+01      0.50124522E+02
    0.609164392600        -0.30098391E+00      0.97202658E-01      0.31895649E-02      0.94063300E-02     -0.55662351E-04      0.38270000E-02     -0.72443845E+00      0.49807920E+02
    0.615444437885        -0.29313910E+00      0.12014704E+00      0.37432488E-02      0.94056700E-02      0.40337277E-04      0.39473498E-02      0.50538356E+00      0.49456132E+02
    0.621724483169        -0.28349906E+00      0.14221319E+00      0.43047510E-02      0.93713397E-02      0.13968311E-03      0.40647829E-02      0.16863281E+01      0.49072199E+02
    0.628004528454        -0.27216602E+00      0.16326703E+00      0.48719115E-02      0.93024154E-02      0.24216986E-03      0.41790234E-02      0.28197356E+01      0.48658991E+02
    0.634284573738        -0.25925205E+00      0.18318481E+00      0.54424820E-02      0.91981190E-02      0.34756400E-03      0.42898077E-02      0.39067648E+01      0.48219233E+02
    0.640564619023        -0.24487931E+00      0.20185476E+00      0.60141366E-02      0.90578262E-02      0.45560513E-03      0.43969077E-02      0.49484245E+01      0.47755753E+02
    0.646844664307        -0.22917357E+00      0.21917788E+00      0.65844827E-02      0.88810737E-02      0.56604800E-03      0.45000728E-02      0.59460271E+01      0.47270823E+02
    0.653124709592        -0.21227104E+00      0.23506699E+00      0.71510722E-02      0.86675654E-02      0.67858743E-03      0.45991136E-02      0.69003628E+01      0.46767080E+02
    0.659404754876        -0.19430990E+00      0.24945001E+00      0.77114143E-02      0.84171778E-02      0.79294865E-03      0.46938453E-02      0.78126579E+01      0.46246888E+02
    0.665684800161        -0.17543059E+00      0.26226698E+00      0.82629882E-02      0.81299646E-02      0.90884666E-03      0.47840816E-02      0.86841056E+01      0.45712299E+02
    0.671964845445        -0.15578786E+00      0.27347137E+00      0.88032559E-02      0.78061605E-02      0.10258498E-02      0.48697877E-02      0.95145918E+01      0.45166499E+02
