
 # Omega; pulse ft; projected flux at t=    1000.0500000000001     
    0.000000000000         0.18717486E-09      0.00000000E+00      0.00000000E+00      0.95815434E-15      0.35498741E-29
    0.003140022642         0.20186436E-09      0.39510133E-07     -0.50169360E-21      0.98914033E-15     -0.12559952E-28
    0.006280045285         0.24594737E-09      0.65491520E-07     -0.14936282E-20      0.99881954E-15     -0.22779514E-28
    0.009420067927         0.31946741E-09      0.73909113E-07      0.45125483E-21      0.97609720E-15      0.59595976E-29
    0.012560090569         0.42249703E-09      0.72319038E-07     -0.12989241E-20      0.94734042E-15     -0.17015206E-28
    0.015700113211         0.55513782E-09      0.65380220E-07     -0.12852236E-20      0.90025793E-15     -0.17696985E-28
    0.018840135854         0.71752051E-09      0.58146251E-07      0.41710288E-21      0.86237181E-15      0.61860870E-29
    0.021980158496         0.90980495E-09      0.50789434E-07     -0.10242905E-20      0.81867852E-15     -0.16510612E-28
    0.025120181138         0.11321802E-08      0.45034357E-07     -0.89592303E-21      0.79042253E-15     -0.15724833E-28
    0.028260203780         0.13848647E-08      0.39958872E-07     -0.30268529E-21      0.76254909E-15     -0.57762491E-29
    0.031400226423         0.16681061E-08      0.36325591E-07     -0.12014488E-20      0.75149503E-15     -0.24855281E-28
    0.034540249065         0.19821816E-08      0.33253436E-07     -0.75113360E-21      0.74315097E-15     -0.16786405E-28
    0.037680271707         0.23273981E-08      0.31269909E-07     -0.31002495E-21      0.75215233E-15     -0.74572007E-29
    0.040820294349         0.27040919E-08      0.29618643E-07     -0.95501693E-21      0.76406979E-15     -0.24636496E-28
    0.043960316992         0.31126296E-08      0.28771634E-07     -0.58325517E-21      0.79332966E-15     -0.16082285E-28
    0.047100339634         0.35534072E-08      0.27979895E-07      0.19854895E-21      0.82203358E-15      0.58332566E-29
    0.050240362276         0.40268513E-08      0.27604623E-07     -0.66086203E-21      0.86162281E-15     -0.20627480E-28
    0.053380384919         0.45334185E-08      0.26798374E-07      0.30840528E-22      0.88628846E-15      0.10199725E-29
    0.056520407561         0.50735959E-08      0.25593872E-07     -0.13090426E-21      0.89468287E-15     -0.45760095E-29
    0.059660430203         0.56479014E-08      0.23417861E-07     -0.43197609E-21      0.86331739E-15     -0.15925130E-28
    0.062800452845         0.62568834E-08      0.20179573E-07     -0.33460629E-21      0.78294240E-15     -0.12982309E-28
    0.065940475488         0.69011217E-08      0.16603711E-07      0.11167368E-21      0.67669866E-15      0.45513576E-29
    0.069080498130         0.75812269E-08      0.12745454E-07     -0.74641121E-21      0.54470566E-15     -0.31899563E-28
    0.072220520772         0.82978416E-08      0.97046050E-08      0.87258957E-22      0.43421511E-15      0.39042452E-29
    0.075360543414         0.90516395E-08      0.71068454E-08      0.25706442E-21      0.33241655E-15      0.12023966E-28
    0.078500566057         0.98433265E-08      0.53497364E-08     -0.52958332E-21      0.26123059E-15     -0.25859847E-28
    0.081640588699         0.10673641E-07      0.39913912E-08      0.40642226E-22      0.20321385E-15      0.20692191E-29
    0.084780611341         0.11543353E-07      0.31007754E-08     -0.90081208E-24      0.16441002E-15     -0.47763063E-31
    0.087920633984         0.12453265E-07      0.24400924E-08     -0.40259640E-21      0.13459262E-15     -0.22206743E-28
    0.091060656626         0.13404215E-07      0.20021723E-08     -0.52855634E-22      0.11477164E-15     -0.30298730E-29
    0.094200679268         0.14397070E-07      0.17032463E-08     -0.24378132E-21      0.10137248E-15     -0.14509186E-28
    0.097340701910         0.15432734E-07      0.15158686E-08     -0.62274235E-21      0.93590656E-16     -0.38448495E-28
    0.100480724553         0.16512144E-07      0.14586836E-08      0.30919809E-21      0.93347851E-16      0.19787004E-28
    0.103620747195         0.17636269E-07      0.15006057E-08      0.36713546E-21      0.99460153E-16      0.24333740E-28
    0.106760769837         0.18806114E-07      0.17677430E-08      0.86843749E-22      0.12126320E-15      0.59572865E-29
    0.109900792479         0.20022721E-07      0.22463510E-08      0.83249404E-21      0.15937581E-15      0.59064420E-28
    0.113040815122         0.21287162E-07      0.31361354E-08     -0.80760228E-21      0.22998517E-15     -0.59224657E-28
    0.116180837764         0.22600547E-07      0.44746770E-08     -0.91333027E-21      0.33897579E-15     -0.69188648E-28
    0.119320860406         0.23964023E-07      0.60814242E-08     -0.71628928E-22      0.47563214E-15     -0.56021450E-29
    0.122460883048         0.25378770E-07      0.78300715E-08     -0.42680436E-21      0.63191906E-15     -0.34444872E-28
    0.125600905691         0.26846007E-07      0.87707236E-08     -0.16874283E-21      0.73003704E-15     -0.14045422E-28
    0.128740928333         0.28366986E-07      0.95465716E-08     -0.18214641E-21      0.81915586E-15     -0.15629307E-28
    0.131880950975         0.29943001E-07      0.99939834E-08     -0.10776163E-21      0.88363807E-15     -0.95279606E-29
    0.135020973618         0.31575378E-07      0.10585493E-07     -0.34066994E-21      0.96400868E-15     -0.31024420E-28
    0.138160996260         0.33265483E-07      0.10168961E-07      0.26659837E-21      0.95347102E-15      0.24997030E-28
    0.141301018902         0.35014721E-07      0.75375361E-08      0.37041668E-22      0.72737325E-15      0.35745260E-29
    0.144441041544         0.36824533E-07      0.46220680E-08     -0.17666730E-21      0.45888675E-15     -0.17539829E-28
    0.147581064187         0.38696400E-07      0.24434735E-08     -0.64853648E-22      0.24949974E-15     -0.66221175E-29
    0.150721086829         0.40631842E-07      0.14010768E-08     -0.17627657E-21      0.14708791E-15     -0.18505876E-28
    0.153861109471         0.42632417E-07      0.88868257E-09     -0.17396067E-21      0.95891541E-16     -0.18770884E-28
    0.157001132113         0.44699723E-07      0.61786125E-09      0.78404134E-22      0.68503940E-16      0.86928774E-29
    0.160141154756         0.46835399E-07      0.47961663E-09      0.10229946E-21      0.54624571E-16      0.11651106E-28
    0.163281177398         0.49041122E-07      0.38791151E-09      0.29046396E-23      0.45371118E-16      0.33973404E-30
    0.166421200040         0.51318613E-07      0.33841633E-09      0.10037577E-21      0.40638729E-16      0.12053625E-28
    0.169561222683         0.53669630E-07      0.29814050E-09     -0.10292089E-21      0.36749004E-16     -0.12686101E-28
    0.172701245325         0.56095974E-07      0.27524054E-09     -0.17774055E-21      0.34815383E-16     -0.22482536E-28
    0.175841267967         0.58599489E-07      0.25346214E-09     -0.61225457E-22      0.32893392E-16     -0.79456166E-29
    0.178981290609         0.61182058E-07      0.24030101E-09     -0.55333420E-22      0.31988552E-16     -0.73659117E-29
    0.182121313252         0.63845608E-07      0.22650670E-09     -0.10723617E-21      0.30922446E-16     -0.14639764E-28
    0.185261335894         0.66592107E-07      0.21756425E-09      0.13246955E-22      0.30454259E-16      0.18542854E-29
    0.188401358536         0.69423567E-07      0.20775782E-09     -0.60232175E-22      0.29812803E-16     -0.86431884E-29
    0.191541381178         0.72342043E-07      0.20093365E-09     -0.59480576E-22      0.29553122E-16     -0.87483442E-29
    0.194681403821         0.75349631E-07      0.19337169E-09      0.23833438E-22      0.29145540E-16      0.35922445E-29
    0.197821426463         0.78448474E-07      0.18776064E-09     -0.12963519E-21      0.28996013E-16     -0.20019657E-28
    0.200961449105         0.81640757E-07      0.18159079E-09     -0.76029814E-22      0.28728347E-16     -0.12028203E-28
    0.204101471747         0.84928709E-07      0.17675839E-09      0.64061680E-23      0.28642502E-16      0.10380762E-29
    0.207241494390         0.88314602E-07      0.17152438E-09     -0.94203793E-22      0.28464542E-16     -0.15633159E-28
    0.210381517032         0.91800755E-07      0.16724035E-09     -0.28414080E-22      0.28418574E-16     -0.48283064E-29
    0.213521539674         0.95389531E-07      0.16267688E-09      0.55546277E-22      0.28301367E-16      0.96635461E-29
    0.216661562317         0.99083337E-07      0.15880867E-09     -0.28731484E-22      0.28282351E-16     -0.51168107E-29
    0.219801584959         0.10288463E-06      0.15475146E-09     -0.46000945E-22      0.28208302E-16     -0.83851138E-29
    0.222941607601         0.10679590E-06      0.15121564E-09      0.47625326E-22      0.28208674E-16      0.88843148E-29
    0.226081630243         0.11081969E-06      0.14755631E-09     -0.28379526E-22      0.28166441E-16     -0.54172557E-29
    0.229221652886         0.11495860E-06      0.14429695E-09     -0.29802680E-22      0.28181591E-16     -0.58205455E-29
    0.232361675528         0.11921526E-06      0.14096127E-09      0.42798995E-24      0.28163698E-16      0.85511290E-31
    0.235501698170         0.12359235E-06      0.13793856E-09      0.27679225E-22      0.28190694E-16      0.56568414E-29
    0.238641720812         0.12809259E-06      0.13487298E-09     -0.21164173E-22      0.28191951E-16     -0.44238611E-29
    0.241781743455         0.13271877E-06      0.13205699E-09     -0.18758142E-23      0.28228823E-16     -0.40097861E-30
    0.244921766097         0.13747370E-06      0.12922169E-09      0.23728051E-22      0.28245559E-16      0.51865293E-29
    0.248061788739         0.14236024E-06      0.12658896E-09      0.32264500E-22      0.28290929E-16      0.72106817E-29
    0.251201811381         0.14738131E-06      0.12395357E-09      0.12222676E-22      0.28320521E-16      0.27925984E-29
    0.254341834024         0.15253987E-06      0.12148537E-09      0.48619426E-22      0.28373448E-16      0.11355283E-28
    0.257481856666         0.15783893E-06      0.11902579E-09      0.47757635E-22      0.28413918E-16      0.11400735E-28
    0.260621879308         0.16328153E-06      0.11670653E-09      0.36848737E-23      0.28473698E-16      0.89902410E-30
    0.263761901951         0.16887077E-06      0.11440355E-09     -0.35625815E-22      0.28523609E-16     -0.88823889E-29
    0.266901924593         0.17460981E-06      0.11221984E-09     -0.36222763E-22      0.28589669E-16     -0.92282859E-29
    0.270041947235         0.18050182E-06      0.11005790E-09     -0.10156036E-21      0.28647986E-16     -0.26436085E-28
    0.273181969877         0.18655005E-06      0.10799816E-09     -0.28937207E-22      0.28719855E-16     -0.76952457E-29
    0.276321992520         0.19275778E-06      0.10596411E-09     -0.23372980E-22      0.28785766E-16     -0.63494058E-29
    0.279462015162         0.19912834E-06      0.10401885E-09     -0.12658576E-21      0.28863228E-16     -0.35125110E-28
    0.282602037804         0.20566511E-06      0.10210053E-09     -0.14099667E-22      0.28935826E-16     -0.39959194E-29
    0.285742060446         0.21237151E-06      0.10026006E-09     -0.56906721E-22      0.29018340E-16     -0.16470553E-28
    0.288882083089         0.21925100E-06      0.98450021E-10     -0.15700746E-21      0.29097745E-16     -0.46404897E-28
    0.292022105731         0.22630710E-06      0.96707763E-10     -0.14823382E-22      0.29185446E-16     -0.44735501E-29
    0.295162128373         0.23354337E-06      0.94996250E-10     -0.80245732E-22      0.29270889E-16     -0.24725859E-28
    0.298302151016         0.24096340E-06      0.93344812E-10     -0.13780592E-21      0.29363474E-16     -0.43349602E-28
    0.301442173658         0.24857086E-06      0.91725853E-10     -0.39382119E-22      0.29455100E-16     -0.12646426E-28
    0.304582196300         0.25636942E-06      0.90163879E-10     -0.38081290E-22      0.29554039E-16     -0.12482337E-28
    0.307722218942         0.26436283E-06      0.88627829E-10     -0.15013801E-21      0.29650649E-16     -0.50229023E-28
    0.310862241585         0.27255487E-06      0.87138223E-10     -0.48002243E-22      0.29752072E-16     -0.16389664E-28
    0.314002264227         0.28094936E-06      0.85681841E-10     -0.10188367E-21      0.29854279E-16     -0.35499511E-28
    0.317142286869         0.28955016E-06      0.84269176E-10     -0.15195616E-21      0.29961320E-16     -0.54026957E-28
    0.320282309511         0.29836118E-06      0.82886977E-10     -0.15878005E-22      0.30068947E-16     -0.57600713E-29
    0.323422332154         0.30738639E-06      0.81544387E-10     -0.16903351E-22      0.30180834E-16     -0.62561908E-29
    0.326562354796         0.31662976E-06      0.80231435E-10      0.51645911E-22      0.30293728E-16      0.19500426E-28
    0.329702377438         0.32609534E-06      0.78954654E-10      0.10540817E-21      0.30410446E-16      0.40599374E-28
    0.332842400080         0.33578719E-06      0.77706858E-10     -0.20046143E-22      0.30528634E-16     -0.78755127E-29
    0.335982422723         0.34570944E-06      0.76492244E-10     -0.11927654E-22      0.30650293E-16     -0.47793877E-29
    0.339122445365         0.35586624E-06      0.75305478E-10     -0.25073351E-21      0.30773675E-16     -0.10246255E-27
    0.342262468007         0.36626178E-06      0.74149068E-10     -0.15337004E-21      0.30900148E-16     -0.63913911E-28
    0.345402490650         0.37690029E-06      0.73019954E-10     -0.10434039E-21      0.31028809E-16     -0.44337989E-28
    0.348542513292         0.38778604E-06      0.71919012E-10     -0.30758313E-22      0.31160375E-16     -0.13326665E-28
    0.351682535934         0.39892335E-06      0.70844190E-10     -0.81167902E-22      0.31294314E-16     -0.35854653E-28
    0.354822558576         0.41031655E-06      0.69795545E-10     -0.54824042E-22      0.31430990E-16     -0.24688881E-28
    0.357962581219         0.42197002E-06      0.68771997E-10      0.23517767E-22      0.31570259E-16      0.10795993E-28
    0.361102603861         0.43388818E-06      0.67773096E-10      0.57442284E-23      0.31712251E-16      0.26878278E-29
    0.364242626503         0.44607547E-06      0.66798226E-10      0.79312539E-23      0.31857013E-16      0.37825264E-29
    0.367382649145         0.45853638E-06      0.65846077E-10      0.10153358E-22      0.32004246E-16      0.49350029E-29
    0.370522671788         0.47127541E-06      0.64917005E-10     -0.28499565E-22      0.32154444E-16     -0.14116296E-28
    0.373662694430         0.48429711E-06      0.64009706E-10     -0.25884873E-22      0.32307288E-16     -0.13064738E-28
    0.376802717072         0.49760605E-06      0.63124215E-10      0.49583171E-24      0.32463113E-16      0.25499312E-30
    0.379942739715         0.51120685E-06      0.62259379E-10     -0.39447555E-23      0.32621644E-16     -0.20669080E-29
    0.383082762357         0.52510413E-06      0.61415288E-10     -0.96549766E-24      0.32783239E-16     -0.51537885E-30
    0.386222784999         0.53930256E-06      0.60590848E-10     -0.20967423E-23      0.32947629E-16     -0.11401505E-29
    0.389362807641         0.55380682E-06      0.59786088E-10      0.18282463E-22      0.33115134E-16      0.10126540E-28
    0.392502830284         0.56862162E-06      0.59000118E-10      0.76742099E-24      0.33285570E-16      0.43294905E-30
    0.395642852926         0.58375171E-06      0.58232788E-10      0.71985744E-23      0.33459155E-16      0.41361271E-29
    0.398782875568         0.59920184E-06      0.57483482E-10      0.41009588E-22      0.33635838E-16      0.23996317E-28
    0.401922898210         0.61497679E-06      0.56751799E-10     -0.59020480E-23      0.33815682E-16     -0.35167481E-29
    0.405062920853         0.63108138E-06      0.56037450E-10     -0.15102296E-22      0.33998815E-16     -0.91628043E-29
    0.408202943495         0.64752043E-06      0.55339779E-10      0.74077623E-24      0.34185135E-16      0.45760095E-30
    0.411342966137         0.66429877E-06      0.54658809E-10     -0.17311001E-22      0.34374950E-16     -0.10886897E-28
    0.414482988779         0.68142128E-06      0.53993617E-10      0.96286966E-23      0.34567975E-16      0.61645166E-29
    0.417623011422         0.69889282E-06      0.53344511E-10      0.76505082E-23      0.34764696E-16      0.49858474E-29
    0.420763034064         0.71671828E-06      0.52710358E-10     -0.49450727E-23      0.34964668E-16     -0.32802439E-29
    0.423903056706         0.73490258E-06      0.52091715E-10      0.23476505E-22      0.35168547E-16      0.15849633E-28
    0.427043079349         0.75345064E-06      0.51487268E-10      0.12802207E-22      0.35375738E-16      0.87961072E-29
    0.430183101991         0.77236737E-06      0.50897764E-10     -0.78603244E-23      0.35587036E-16     -0.54958337E-29
    0.433323124633         0.79165771E-06      0.50321869E-10      0.16805215E-23      0.35801802E-16      0.11956173E-29
    0.436463147275         0.81132662E-06      0.49760203E-10      0.56382164E-23      0.36020757E-16      0.40814307E-29
    0.439603169918         0.83137904E-06      0.49211592E-10     -0.99957600E-23      0.36243340E-16     -0.73616746E-29
    0.442743192560         0.85181993E-06      0.48676642E-10      0.52274221E-23      0.36470277E-16      0.39165711E-29
    0.445883215202         0.87265424E-06      0.48154310E-10      0.12125323E-22      0.36701076E-16      0.92413822E-29
    0.449023237844         0.89388696E-06      0.47644945E-10     -0.12880602E-22      0.36936280E-16     -0.99855616E-29
    0.452163260487         0.91552302E-06      0.47147841E-10     -0.33199176E-23      0.37175632E-16     -0.26177240E-29
    0.455303283129         0.93756741E-06      0.46663068E-10     -0.73011254E-23      0.37419463E-16     -0.58548270E-29
    0.458443305771         0.96002506E-06      0.46190248E-10     -0.23255933E-22      0.37667758E-16     -0.18965017E-28
    0.461583328413         0.98290095E-06      0.45729109E-10     -0.46301635E-23      0.37920576E-16     -0.38395339E-29
    0.464723351056         0.10062000E-05      0.45279664E-10     -0.15952632E-22      0.38178210E-16     -0.13450695E-28
    0.467863373698         0.10299272E-05      0.44841284E-10     -0.17315183E-22      0.38440415E-16     -0.14843527E-28
    0.471003396340         0.10540874E-05      0.44414384E-10      0.10464143E-22      0.38707826E-16      0.91196635E-29
    0.474143418983         0.10786856E-05      0.43997942E-10     -0.10224127E-22      0.38979841E-16     -0.90580337E-29
    0.477283441625         0.11037267E-05      0.43592766E-10     -0.12217484E-22      0.39257455E-16     -0.11002453E-28
    0.480423464267         0.11292155E-05      0.43197532E-10      0.63812989E-23      0.39539767E-16      0.58409603E-29
    0.483563486909         0.11551570E-05      0.42813325E-10      0.45629113E-23      0.39828046E-16      0.42447496E-29
    0.486703509552         0.11815559E-05      0.42438609E-10     -0.58768396E-23      0.40121162E-16     -0.55559227E-29
    0.489843532194         0.12084172E-05      0.42074659E-10      0.14007531E-22      0.40420593E-16      0.13456858E-28
    0.492983554836         0.12357457E-05      0.41719845E-10      0.15119291E-22      0.40725076E-16      0.14758786E-28
    0.496123577478         0.12635461E-05      0.41375499E-10     -0.23053699E-23      0.41036187E-16     -0.22864640E-29
    0.499263600121         0.12918231E-05      0.41040010E-10      0.73549521E-24      0.41352632E-16      0.74109784E-30
    0.502403622763         0.13205817E-05      0.40714633E-10     -0.47097841E-23      0.41675956E-16     -0.48209878E-29
    0.505543645405         0.13498263E-05      0.40397938E-10     -0.10597812E-22      0.42004999E-16     -0.11019401E-28
    0.508683668048         0.13795618E-05      0.40090979E-10      0.11843051E-22      0.42341142E-16      0.12507759E-28
