
 # Omega; pulse ft; projected flux at t=    1000.0500000000001     
    0.000000000000         0.18717486E-09      0.00000000E+00      0.00000000E+00      0.48326979E-08      0.42351647E-21
    0.003140022642         0.20186436E-09      0.19399553E+00      0.61138439E-14      0.48566985E-08      0.15306073E-21
    0.006280045285         0.24594737E-09      0.32003618E+00     -0.11901706E-12      0.48809127E-08     -0.18151445E-20
    0.009420067927         0.31946741E-09      0.37142761E+00      0.41918802E-13      0.49053416E-08      0.55361001E-21
    0.012560090569         0.42249703E-09      0.37635036E+00     -0.68749391E-13      0.49299869E-08     -0.90057997E-21
    0.015700113211         0.55513782E-09      0.35984067E+00     -0.10337635E-12      0.49548536E-08     -0.14234486E-20
    0.018840135854         0.71752051E-09      0.33577721E+00      0.42902420E-13      0.49799394E-08      0.63628930E-21
    0.021980158496         0.90980495E-09      0.31051750E+00     -0.42328817E-13      0.50052538E-08     -0.68230122E-21
    0.025120181138         0.11321802E-08      0.28662958E+00     -0.10140245E-12      0.50307919E-08     -0.17797696E-20
    0.028260203780         0.13848647E-08      0.26497265E+00     -0.50809257E-13      0.50565655E-08     -0.96961077E-21
    0.031400226423         0.16681061E-08      0.24567991E+00     -0.23575603E-13      0.50825664E-08     -0.48772637E-21
    0.034540249065         0.19821816E-08      0.22860154E+00     -0.74613377E-13      0.51088091E-08     -0.16674669E-20
    0.037680271707         0.23273981E-08      0.21349387E+00     -0.94408903E-14      0.51352856E-08     -0.22708693E-21
    0.040820294349         0.27040919E-08      0.20010178E+00     -0.39791776E-13      0.51620098E-08     -0.10265053E-20
    0.043960316992         0.31126296E-08      0.18818812E+00     -0.44147257E-13      0.51889725E-08     -0.12172867E-20
    0.047100339634         0.35534072E-08      0.17754555E+00      0.14132973E-13      0.52161885E-08      0.41521882E-21
    0.050240362276         0.40268513E-08      0.16799581E+00     -0.39239116E-13      0.52436515E-08     -0.12247701E-20
    0.053380384919         0.45334185E-08      0.15938852E+00     -0.64635851E-13      0.52713723E-08     -0.21376673E-20
    0.056520407561         0.50735959E-08      0.15159653E+00      0.32483929E-13      0.52993473E-08      0.11355380E-20
    0.059660430203         0.56479014E-08      0.14451309E+00     -0.27702065E-13      0.53275859E-08     -0.10212579E-20
    0.062800452845         0.62568834E-08      0.13804785E+00     -0.52012910E-13      0.53560853E-08     -0.20180364E-20
    0.065940475488         0.69011217E-08      0.13212467E+00      0.10496831E-14      0.53848556E-08      0.42780747E-22
    0.069080498130         0.75812269E-08      0.12667853E+00     -0.20006444E-13      0.54138919E-08     -0.85502041E-21
    0.072220520772         0.82978416E-08      0.12165443E+00     -0.31070204E-13      0.54432089E-08     -0.13901804E-20
    0.075360543414         0.90516395E-08      0.11700470E+00     -0.33051914E-13      0.54727935E-08     -0.15459747E-20
    0.078500566057         0.98433265E-08      0.11268917E+00     -0.10243825E-13      0.55026746E-08     -0.50021163E-21
    0.081640588699         0.10673641E-07      0.10867190E+00     -0.42974149E-13      0.55328164E-08     -0.21879444E-20
    0.084780611341         0.11543353E-07      0.10492363E+00     -0.30688407E-13      0.55632845E-08     -0.16271677E-20
    0.087920633984         0.12453265E-07      0.10141594E+00     -0.91318358E-14      0.55939837E-08     -0.50370129E-21
    0.091060656626         0.13404215E-07      0.98128660E-01     -0.37112231E-13      0.56250840E-08     -0.21274051E-20
    0.094200679268         0.14397070E-07      0.95036681E-01      0.13985037E-14      0.56563189E-08      0.83235049E-22
    0.097340701910         0.15432734E-07      0.92128942E-01     -0.15088293E-13      0.56880975E-08     -0.93156047E-21
    0.100480724553         0.16512144E-07      0.89380587E-01     -0.15107017E-13      0.57198737E-08     -0.96676734E-21
    0.103620747195         0.17636269E-07      0.86787375E-01     -0.80090996E-14      0.57522676E-08     -0.53084316E-21
    0.106760769837         0.18806114E-07      0.84329216E-01      0.14060872E-13      0.57847951E-08      0.96454429E-21
    0.109900792479         0.20022721E-07      0.81997865E-01     -0.86377470E-14      0.58176468E-08     -0.61283744E-21
    0.113040815122         0.21287162E-07      0.79784989E-01     -0.81361470E-14      0.58509476E-08     -0.59665572E-21
    0.116180837764         0.22600547E-07      0.77677594E-01     -0.99365300E-15      0.58844078E-08     -0.75273436E-22
    0.119320860406         0.23964023E-07      0.75672101E-01     -0.85919354E-14      0.59183642E-08     -0.67198085E-21
    0.122460883048         0.25378770E-07      0.73757365E-01     -0.66647671E-14      0.59525236E-08     -0.53787419E-21
    0.125600905691         0.26846007E-07      0.71929821E-01      0.91502426E-14      0.59871266E-08      0.76162655E-21
    0.128740928333         0.28366986E-07      0.70181340E-01     -0.29848139E-14      0.60220001E-08     -0.25611580E-21
    0.131880950975         0.29943001E-07      0.68508203E-01     -0.45274518E-14      0.60572901E-08     -0.40030372E-21
    0.135020973618         0.31575378E-07      0.66904153E-01     -0.13420169E-13      0.60928844E-08     -0.12221594E-20
    0.138160996260         0.33265483E-07      0.65365763E-01     -0.23577475E-13      0.61288820E-08     -0.22106919E-20
    0.141301018902         0.35014721E-07      0.63888126E-01     -0.19799805E-13      0.61652127E-08     -0.19106838E-20
    0.144441041544         0.36824533E-07      0.62468140E-01      0.30832323E-14      0.62019428E-08      0.30610853E-21
    0.147581064187         0.38696400E-07      0.61101855E-01     -0.14563547E-13      0.62390271E-08     -0.14870639E-20
    0.150721086829         0.40631842E-07      0.59786536E-01     -0.12095646E-13      0.62765129E-08     -0.12698256E-20
    0.153861109471         0.42632417E-07      0.58518933E-01     -0.27271663E-14      0.63143701E-08     -0.29426950E-21
    0.157001132113         0.44699723E-07      0.57296657E-01     -0.27728380E-13      0.63526345E-08     -0.30743201E-20
    0.160141154756         0.46835399E-07      0.56116998E-01     -0.38411351E-14      0.63912858E-08     -0.43747515E-21
    0.163281177398         0.49041122E-07      0.54977871E-01      0.88402295E-14      0.64303518E-08      0.10339758E-20
    0.166421200040         0.51318613E-07      0.53876993E-01     -0.29301072E-14      0.64698192E-08     -0.35186195E-21
    0.169561222683         0.53669630E-07      0.52812543E-01     -0.41036679E-14      0.65097106E-08     -0.50582094E-21
    0.172701245325         0.56095974E-07      0.51782580E-01     -0.10937239E-14      0.65500174E-08     -0.13834596E-21
    0.175841267967         0.58599489E-07      0.50785511E-01     -0.90318066E-14      0.65907584E-08     -0.11721149E-20
    0.178981290609         0.61182058E-07      0.49819672E-01      0.87506662E-14      0.66319287E-08      0.11648771E-20
    0.182121313252         0.63845608E-07      0.48883667E-01      0.98210309E-14      0.66735446E-08      0.13407564E-20
    0.185261335894         0.66592107E-07      0.47976057E-01      0.15157487E-14      0.67156038E-08      0.21217183E-21
    0.188401358536         0.69423567E-07      0.47095617E-01      0.57867477E-14      0.67581205E-08      0.83038594E-21
    0.191541381178         0.72342043E-07      0.46241097E-01      0.10841774E-13      0.68010947E-08      0.15945974E-20
    0.194681403821         0.75349631E-07      0.45411413E-01      0.16560308E-14      0.68445393E-08      0.24960175E-21
    0.197821426463         0.78448474E-07      0.44605475E-01      0.36463158E-14      0.68884559E-08      0.56310320E-21
    0.200961449105         0.81640757E-07      0.43822323E-01      0.30214641E-14      0.69328564E-08      0.47800700E-21
    0.204101471747         0.84928709E-07      0.43060998E-01     -0.55066849E-14      0.69777438E-08     -0.89232109E-21
    0.207241494390         0.88314602E-07      0.42320648E-01      0.98331815E-14      0.70231292E-08      0.16318206E-20
    0.210381517032         0.91800755E-07      0.41600428E-01      0.13254606E-13      0.70690169E-08      0.22523094E-20
    0.213521539674         0.95389531E-07      0.40899577E-01     -0.40771145E-15      0.71154174E-08     -0.70930738E-22
    0.216661562317         0.99083337E-07      0.40217345E-01      0.84185455E-16      0.71623361E-08      0.14992649E-22
    0.219801584959         0.10288463E-06      0.39553052E-01      0.35225710E-14      0.72097832E-08      0.64209895E-21
    0.222941607601         0.10679590E-06      0.38906030E-01     -0.55826461E-14      0.72577649E-08     -0.10414204E-20
    0.226081630243         0.11081969E-06      0.38275667E-01     -0.24039391E-14      0.73062911E-08     -0.45887844E-21
    0.229221652886         0.11495860E-06      0.37661368E-01     -0.50835101E-14      0.73553690E-08     -0.99282353E-21
    0.232361675528         0.11921526E-06      0.37062582E-01     -0.10251396E-13      0.74050084E-08     -0.20482026E-20
    0.235501698170         0.12359235E-06      0.36478773E-01     -0.30102825E-14      0.74552171E-08     -0.61521558E-21
    0.238641720812         0.12809259E-06      0.35909443E-01     -0.70276894E-14      0.75060050E-08     -0.14689694E-20
    0.241781743455         0.13271877E-06      0.35354110E-01     -0.65430535E-14      0.75573805E-08     -0.13986590E-20
    0.244921766097         0.13747370E-06      0.34812323E-01     -0.47937622E-14      0.76093536E-08     -0.10478310E-20
    0.248061788739         0.14236024E-06      0.34283645E-01      0.41639115E-16      0.76619335E-08      0.93057819E-23
    0.251201811381         0.14738131E-06      0.33767668E-01     -0.91080547E-14      0.77151303E-08     -0.20809796E-20
    0.254341834024         0.15253987E-06      0.33263994E-01     -0.25730477E-14      0.77689536E-08     -0.60094672E-21
    0.257481856666         0.15783893E-06      0.32772251E-01      0.10802313E-14      0.78234140E-08      0.25787356E-21
    0.260621879308         0.16328153E-06      0.32292078E-01     -0.63866759E-14      0.78785215E-08     -0.15582015E-20
    0.263761901951         0.16887077E-06      0.31823133E-01     -0.21664494E-14      0.79342870E-08     -0.54014894E-21
    0.266901924593         0.17460981E-06      0.31365088E-01      0.69685302E-14      0.79907213E-08      0.17753364E-20
    0.270041947235         0.18050182E-06      0.30917630E-01     -0.78523599E-14      0.80478354E-08     -0.20439633E-20
    0.273181969877         0.18655005E-06      0.30480457E-01      0.24223257E-14      0.81056407E-08      0.64416690E-21
    0.276321992520         0.19275778E-06      0.30053282E-01     -0.14935520E-14      0.81641487E-08     -0.40573209E-21
    0.279462015162         0.19912834E-06      0.29635828E-01     -0.38678968E-14      0.82233713E-08     -0.10732668E-20
    0.282602037804         0.20566511E-06      0.29227831E-01     -0.46334684E-15      0.82833205E-08     -0.13131492E-21
    0.285742060446         0.21237151E-06      0.28829036E-01      0.89025369E-15      0.83440086E-08      0.25766676E-21
    0.288882083089         0.21925100E-06      0.28439200E-01     -0.75005243E-14      0.84054484E-08     -0.22168440E-20
    0.292022105731         0.22630710E-06      0.28058086E-01     -0.35069990E-14      0.84676526E-08     -0.10583776E-20
    0.295162128373         0.23354337E-06      0.27685469E-01      0.42758111E-14      0.85306345E-08      0.13174919E-20
    0.298302151016         0.24096340E-06      0.27321132E-01     -0.27978519E-14      0.85944074E-08     -0.88012017E-21
    0.301442173658         0.24857086E-06      0.26964866E-01     -0.59548725E-14      0.86589854E-08     -0.19122348E-20
    0.304582196300         0.25636942E-06      0.26616468E-01     -0.33405814E-14      0.87243822E-08     -0.10949803E-20
    0.307722218942         0.26436283E-06      0.26275746E-01     -0.67357075E-14      0.87906125E-08     -0.22534468E-20
    0.310862241585         0.27255487E-06      0.25942510E-01     -0.48574262E-15      0.88576908E-08     -0.16584971E-21
    0.314002264227         0.28094936E-06      0.25616583E-01      0.30820585E-14      0.89256324E-08      0.10738872E-20
    0.317142286869         0.28955016E-06      0.25297787E-01     -0.45303303E-14      0.89944525E-08     -0.16107274E-20
    0.320282309511         0.29836118E-06      0.24985957E-01     -0.59723518E-14      0.90641672E-08     -0.21665928E-20
    0.323422332154         0.30738639E-06      0.24680929E-01      0.15912674E-14      0.91347923E-08      0.58895260E-21
    0.326562354796         0.31662976E-06      0.24382547E-01     -0.78855932E-14      0.92063447E-08     -0.29774366E-20
    0.329702377438         0.32609534E-06      0.24090659E-01     -0.11135355E-14      0.92788409E-08     -0.42889315E-21
    0.332842400080         0.33578719E-06      0.23805118E-01     -0.76323861E-16      0.93522986E-08     -0.29985297E-22
    0.335982422723         0.34570944E-06      0.23525783E-01     -0.15673570E-14      0.94267352E-08     -0.62803688E-21
    0.339122445365         0.35586624E-06      0.23252517E-01     -0.70390604E-15      0.95021692E-08     -0.28765206E-21
    0.342262468007         0.36626178E-06      0.22985186E-01      0.16489817E-14      0.95786189E-08      0.68718029E-21
    0.345402490650         0.37690029E-06      0.22723665E-01     -0.29091942E-14      0.96561036E-08     -0.12362214E-20
    0.348542513292         0.38778604E-06      0.22467826E-01     -0.24881074E-14      0.97346426E-08     -0.10780231E-20
    0.351682535934         0.39892335E-06      0.22217551E-01      0.13225059E-14      0.98142562E-08      0.58419631E-21
    0.354822558576         0.41031655E-06      0.21972723E-01     -0.72210550E-14      0.98949645E-08     -0.32518538E-20
    0.357962581219         0.42197002E-06      0.21733230E-01     -0.47538971E-14      0.99767890E-08     -0.21823093E-20
    0.361102603861         0.43388818E-06      0.21498961E-01      0.18977223E-14      0.10059751E-07      0.88797839E-21
    0.364242626503         0.44607547E-06      0.21269812E-01     -0.18354751E-14      0.10143872E-07     -0.87536388E-21
    0.367382649145         0.45853638E-06      0.21045679E-01     -0.13376583E-14      0.10229176E-07     -0.65016396E-21
    0.370522671788         0.47127541E-06      0.20826463E-01      0.75400733E-15      0.10315684E-07      0.37347205E-21
    0.373662694430         0.48429711E-06      0.20612067E-01     -0.62998332E-14      0.10403422E-07     -0.31796823E-20
    0.376802717072         0.49760605E-06      0.20402400E-01     -0.23539590E-14      0.10492414E-07     -0.12105788E-20
    0.379942739715         0.51120685E-06      0.20197368E-01      0.16000113E-14      0.10582684E-07      0.83834755E-21
    0.383082762357         0.52510413E-06      0.19996886E-01     -0.40855709E-14      0.10674259E-07     -0.21808617E-20
    0.386222784999         0.53930256E-06      0.19800867E-01     -0.23844640E-14      0.10767164E-07     -0.12966056E-20
    0.389362807641         0.55380682E-06      0.19609230E-01     -0.22176879E-15      0.10861428E-07     -0.12283632E-21
    0.392502830284         0.56862162E-06      0.19421893E-01     -0.25878669E-14      0.10957076E-07     -0.14599738E-20
    0.395642852926         0.58375171E-06      0.19238781E-01      0.34047412E-15      0.11054140E-07      0.19562821E-21
    0.398782875568         0.59920184E-06      0.19059817E-01      0.18511716E-14      0.11152646E-07      0.10831930E-20
    0.401922898210         0.61497679E-06      0.18884930E-01     -0.18567593E-14      0.11252626E-07     -0.11063541E-20
    0.405062920853         0.63108138E-06      0.18714046E-01      0.43627960E-15      0.11354111E-07      0.26469780E-21
    0.408202943495         0.64752043E-06      0.18547100E-01      0.37426764E-15      0.11457132E-07      0.23119698E-21
    0.411342966137         0.66429877E-06      0.18384024E-01     -0.18420505E-14      0.11561722E-07     -0.11584664E-20
    0.414482988779         0.68142128E-06      0.18224756E-01      0.32410291E-14      0.11667914E-07      0.20749826E-20
    0.417623011422         0.69889282E-06      0.18069230E-01      0.78694311E-15      0.11775744E-07      0.51285198E-21
    0.420763034064         0.71671828E-06      0.17917390E-01      0.55865657E-15      0.11885247E-07      0.37057691E-21
    0.423903056706         0.73490258E-06      0.17769174E-01      0.89441163E-15      0.11996457E-07      0.60384185E-21
    0.427043079349         0.75345064E-06      0.17624530E-01      0.11063950E-14      0.12109416E-07      0.76017898E-21
    0.430183101991         0.77236737E-06      0.17483400E-01     -0.15811614E-14      0.12224159E-07     -0.11055269E-20
    0.433323124633         0.79165771E-06      0.17345733E-01      0.88943386E-16      0.12340728E-07      0.63279317E-22
    0.436463147275         0.81132662E-06      0.17211477E-01     -0.12198250E-14      0.12459162E-07     -0.88301530E-21
    0.439603169918         0.83137904E-06      0.17080586E-01     -0.42309235E-14      0.12579505E-07     -0.31159894E-20
    0.442743192560         0.85181993E-06      0.16953009E-01     -0.13822488E-14      0.12701799E-07     -0.10356301E-20
    0.445883215202         0.87265424E-06      0.16828704E-01     -0.17061188E-14      0.12826091E-07     -0.13003279E-20
    0.449023237844         0.89388696E-06      0.16707623E-01     -0.51098583E-14      0.12952422E-07     -0.39613680E-20
    0.452163260487         0.91552302E-06      0.16589729E-01     -0.11177824E-14      0.13080846E-07     -0.88136094E-21
    0.455303283129         0.93756741E-06      0.16474976E-01     -0.34823989E-14      0.13211406E-07     -0.27925617E-20
    0.458443305771         0.96002506E-06      0.16363329E-01     -0.38783050E-14      0.13344157E-07     -0.31627251E-20
    0.461583328413         0.98290095E-06      0.16254748E-01     -0.13705816E-14      0.13479148E-07     -0.11365462E-20
    0.464723351056         0.10062000E-05      0.16149201E-01     -0.35557898E-14      0.13616434E-07     -0.29981161E-20
    0.467863373698         0.10299272E-05      0.16046648E-01     -0.28744902E-14      0.13756069E-07     -0.24641710E-20
    0.471003396340         0.10540874E-05      0.15947063E-01     -0.71943973E-15      0.13898113E-07     -0.62700290E-21
    0.474143418983         0.10786856E-05      0.15850408E-01     -0.19378287E-14      0.14042620E-07     -0.17168134E-20
    0.477283441625         0.11037267E-05      0.15756660E-01     -0.31684640E-14      0.14189657E-07     -0.28533595E-20
    0.480423464267         0.11292155E-05      0.15665785E-01     -0.22506695E-14      0.14339280E-07     -0.20600933E-20
    0.483563486909         0.11551570E-05      0.15577763E-01     -0.24536957E-14      0.14491560E-07     -0.22826049E-20
    0.486703509552         0.11815559E-05      0.15492562E-01     -0.42308671E-14      0.14646559E-07     -0.39998319E-20
    0.489843532194         0.12084172E-05      0.15410166E-01      0.21030657E-14      0.14804352E-07      0.20203886E-20
    0.492983554836         0.12357457E-05      0.15330544E-01     -0.32315054E-14      0.14965002E-07     -0.31544533E-20
    0.496123577478         0.12635461E-05      0.15253686E-01      0.51584152E-15      0.15128593E-07      0.51161121E-21
    0.499263600121         0.12918231E-05      0.15179562E-01      0.22871032E-14      0.15295193E-07      0.23045252E-20
    0.502403622763         0.13205817E-05      0.15108167E-01     -0.25487486E-14      0.15464889E-07     -0.26089277E-20
    0.505543645405         0.13498263E-05      0.15039472E-01     -0.10222608E-14      0.15637754E-07     -0.10629271E-20
    0.508683668048         0.13795618E-05      0.14973476E-01     -0.46883622E-14      0.15813883E-07     -0.49515031E-20
