
 # Omega; pulse ft; projected flux at t=    1000.0500000000001     
    0.000000000000         0.18717486E-09      0.00000000E+00      0.00000000E+00      0.45213299E-14      0.27767904E-27
    0.003140022642         0.20186436E-09      0.16667425E-06      0.17285862E-19      0.41727075E-14      0.43275338E-27
    0.006280045285         0.24594737E-09      0.24800308E-06     -0.16259173E-18      0.37823266E-14     -0.24797072E-26
    0.009420067927         0.31946741E-09      0.26561164E-06      0.12945950E-18      0.35078593E-14      0.17097358E-26
    0.012560090569         0.42249703E-09      0.25592686E-06      0.60494449E-19      0.33525039E-14      0.79244468E-27
    0.015700113211         0.55513782E-09      0.23699101E-06     -0.10388112E-18      0.32632658E-14     -0.14303990E-26
    0.018840135854         0.71752051E-09      0.22297492E-06      0.43934698E-19      0.33069592E-14      0.65159911E-27
    0.021980158496         0.90980495E-09      0.18658514E-06     -0.12408100E-19      0.30075792E-14     -0.20000705E-27
    0.025120181138         0.11321802E-08      0.15537364E-06     -0.10325535E-18      0.27270474E-14     -0.18122908E-26
    0.028260203780         0.13848647E-08      0.15969941E-06     -0.23993925E-19      0.30475996E-14     -0.45788445E-27
    0.031400226423         0.16681061E-08      0.15908504E-06     -0.18331255E-19      0.32911128E-14     -0.37923255E-27
    0.034540249065         0.19821816E-08      0.14209948E-06     -0.36870422E-19      0.31756528E-14     -0.82398370E-27
    0.037680271707         0.23273981E-08      0.13633018E-06     -0.29877182E-19      0.32792248E-14     -0.71865228E-27
    0.040820294349         0.27040919E-08      0.12880786E-06     -0.72110647E-20      0.33228461E-14     -0.18602326E-27
    0.043960316992         0.31126296E-08      0.12163028E-06     -0.38863860E-19      0.33537514E-14     -0.10716059E-26
    0.047100339634         0.35534072E-08      0.11366915E-06      0.22085608E-19      0.33395357E-14      0.64886275E-27
    0.050240362276         0.40268513E-08      0.10726826E-06      0.44816990E-20      0.33481630E-14      0.13988723E-27
    0.053380384919         0.45334185E-08      0.10067366E-06      0.36531957E-19      0.33295269E-14      0.12082021E-26
    0.056520407561         0.50735959E-08      0.95562014E-07     -0.48036663E-19      0.33405535E-14     -0.16792137E-26
    0.059660430203         0.56479014E-08      0.90931055E-07      0.11879342E-20      0.33522430E-14      0.43794106E-28
    0.062800452845         0.62568834E-08      0.88667555E-07      0.46022065E-19      0.34401911E-14      0.17855990E-26
    0.065940475488         0.69011217E-08      0.82739628E-07     -0.45794524E-19      0.33721254E-14     -0.18663956E-26
    0.069080498130         0.75812269E-08      0.72463318E-07     -0.33218760E-19      0.30968830E-14     -0.14196785E-26
    0.072220520772         0.82978416E-08      0.76063547E-07      0.15593940E-19      0.34033267E-14      0.69772282E-27
    0.075360543414         0.90516395E-08      0.79899394E-07     -0.81791546E-20      0.37372251E-14     -0.38257289E-27
    0.078500566057         0.98433265E-08      0.83077031E-07     -0.18396079E-19      0.40566974E-14     -0.89829070E-27
    0.081640588699         0.10673641E-07      0.86207747E-07      0.21731698E-19      0.43890981E-14      0.11064267E-26
    0.084780611341         0.11543353E-07      0.93431639E-07     -0.22506122E-19      0.49539536E-14     -0.11933247E-26
    0.087920633984         0.12453265E-07      0.94014942E-07     -0.20537137E-19      0.51857533E-14     -0.11328043E-26
    0.091060656626         0.13404215E-07      0.78716809E-07     -0.77705442E-20      0.45123276E-14     -0.44543524E-27
    0.094200679268         0.14397070E-07      0.10699748E-06      0.77247897E-20      0.63681923E-14      0.45975800E-27
    0.097340701910         0.15432734E-07      0.16852788E-06     -0.23663036E-19      0.10405015E-13     -0.14609704E-26
    0.100480724553         0.16512144E-07      0.17646777E-06      0.56824362E-19      0.11292982E-13      0.36364516E-26
    0.103620747195         0.17636269E-07      0.16325761E-06      0.31581809E-19      0.10820715E-13      0.20932424E-26
    0.106760769837         0.18806114E-07      0.16157926E-06      0.57805212E-19      0.11083975E-13      0.39653079E-26
    0.109900792479         0.20022721E-07      0.14127489E-06      0.16329262E-19      0.10023279E-13      0.11585408E-26
    0.113040815122         0.21287162E-07      0.11810982E-06     -0.10292129E-18      0.86614582E-14     -0.75476239E-26
    0.116180837764         0.22600547E-07      0.10032804E-06     -0.52122428E-19      0.76002751E-14     -0.39484953E-26
    0.119320860406         0.23964023E-07      0.85659257E-07      0.50609581E-19      0.66994661E-14      0.39582082E-26
    0.122460883048         0.25378770E-07      0.74832979E-07      0.96959197E-20      0.60393300E-14      0.78250071E-27
    0.125600905691         0.26846007E-07      0.66732103E-07     -0.42003414E-19      0.55544912E-14     -0.34961822E-26
    0.128740928333         0.28366986E-07      0.60546646E-07     -0.11898700E-19      0.51952829E-14     -0.10209832E-26
    0.131880950975         0.29943001E-07      0.55463673E-07     -0.31090555E-19      0.49039318E-14     -0.27489337E-26
    0.135020973618         0.31575378E-07      0.51479791E-07     -0.15646725E-19      0.46882055E-14     -0.14249293E-26
    0.138160996260         0.33265483E-07      0.47955098E-07      0.14738631E-19      0.44964079E-14      0.13819364E-26
    0.141301018902         0.35014721E-07      0.45133737E-07      0.99215470E-20      0.43554116E-14      0.95743062E-27
    0.144441041544         0.36824533E-07      0.42529836E-07     -0.60724885E-20      0.42224342E-14     -0.60288695E-27
    0.147581064187         0.38696400E-07      0.40388863E-07      0.19999429E-19      0.41240517E-14      0.20421144E-26
    0.150721086829         0.40631842E-07      0.38352792E-07     -0.13086059E-19      0.40263546E-14     -0.13738013E-26
    0.153861109471         0.42632417E-07      0.36641543E-07     -0.73743447E-20      0.39537335E-14     -0.79571413E-27
    0.157001132113         0.44699723E-07      0.34980327E-07     -0.45309307E-20      0.38783630E-14     -0.50235649E-27
    0.160141154756         0.46835399E-07      0.33562976E-07     -0.60735738E-21      0.38225597E-14     -0.69173241E-28
    0.163281177398         0.49041122E-07      0.32167780E-07      0.16210550E-19      0.37624255E-14      0.18960272E-26
    0.166421200040         0.51318613E-07      0.30963272E-07      0.14497375E-20      0.37182249E-14      0.17409174E-27
    0.169561222683         0.53669630E-07      0.29766579E-07     -0.55303472E-20      0.36690491E-14     -0.68167443E-27
    0.172701245325         0.56095974E-07      0.28721579E-07      0.11592114E-19      0.36330141E-14      0.14662952E-26
    0.175841267967         0.58599489E-07      0.27678346E-07     -0.79561514E-20      0.35919948E-14     -0.10325203E-26
    0.178981290609         0.61182058E-07      0.26756188E-07     -0.33704109E-20      0.35617484E-14     -0.44866464E-27
    0.182121313252         0.63845608E-07      0.25836411E-07      0.75642874E-20      0.35271586E-14      0.10326682E-26
    0.185261335894         0.66592107E-07      0.25011058E-07     -0.48614068E-20      0.35010037E-14     -0.68049114E-27
    0.188401358536         0.69423567E-07      0.24193191E-07     -0.36574692E-20      0.34716713E-14     -0.52483902E-27
    0.191541381178         0.72342043E-07      0.23445948E-07      0.47788945E-20      0.34484068E-14      0.70287507E-27
    0.194681403821         0.75349631E-07      0.22714167E-07     -0.62806194E-20      0.34235448E-14     -0.94663309E-27
    0.197821426463         0.78448474E-07      0.22031081E-07     -0.99357414E-20      0.34022758E-14     -0.15343838E-26
    0.200961449105         0.81640757E-07      0.21373174E-07     -0.88003019E-20      0.33813166E-14     -0.13922409E-26
    0.204101471747         0.84928709E-07      0.20743819E-07     -0.44681061E-20      0.33613958E-14     -0.72402640E-27
    0.207241494390         0.88314602E-07      0.20149672E-07     -0.49903824E-20      0.33438464E-14     -0.82815604E-27
    0.210381517032         0.91800755E-07      0.19566358E-07     -0.64520160E-20      0.33248436E-14     -0.10963687E-26
    0.213521539674         0.95389531E-07      0.19027435E-07     -0.14184139E-20      0.33102578E-14     -0.24676555E-27
    0.216661562317         0.99083337E-07      0.18484448E-07     -0.20212568E-20      0.32919087E-14     -0.35996709E-27
    0.219801584959         0.10288463E-06      0.17993507E-07     -0.39576915E-20      0.32798806E-14     -0.72141330E-27
    0.222941607601         0.10679590E-06      0.17486686E-07      0.40252641E-20      0.32620717E-14      0.75089697E-27
    0.226081630243         0.11081969E-06      0.17037315E-07     -0.47447726E-21      0.32521859E-14     -0.90571093E-28
    0.229221652886         0.11495860E-06      0.16563606E-07     -0.26756973E-20      0.32349178E-14     -0.52257105E-27
    0.232361675528         0.11921526E-06      0.16150161E-07      0.67224806E-20      0.32267606E-14      0.13431343E-26
    0.235501698170         0.12359235E-06      0.15707296E-07      0.45725794E-20      0.32101217E-14      0.93450435E-27
    0.238641720812         0.12809259E-06      0.15324795E-07      0.78973009E-20      0.32032798E-14      0.16507407E-26
    0.241781743455         0.13271877E-06      0.14911053E-07      0.12808557E-19      0.31874230E-14      0.27379883E-26
    0.244921766097         0.13747370E-06      0.14555154E-07      0.32467375E-20      0.31814975E-14      0.70967899E-27
    0.248061788739         0.14236024E-06      0.14169121E-07      0.18297557E-20      0.31666079E-14      0.40892577E-27
    0.251201811381         0.14738131E-06      0.13835990E-07      0.12245847E-19      0.31612034E-14      0.27978924E-26
    0.254341834024         0.15253987E-06      0.13476422E-07      0.31764516E-20      0.31474783E-14      0.74187438E-27
    0.257481856666         0.15783893E-06      0.13162909E-07      0.31822675E-20      0.31422586E-14      0.75967305E-27
    0.260621879308         0.16328153E-06      0.12828720E-07      0.14339267E-19      0.31299114E-14      0.34984502E-26
    0.263761901951         0.16887077E-06      0.12532100E-07     -0.27479276E-20      0.31245597E-14     -0.68512570E-27
    0.266901924593         0.17460981E-06      0.12221700E-07     -0.13769428E-20      0.31136594E-14     -0.35079658E-27
    0.270041947235         0.18050182E-06      0.11939485E-07      0.27864404E-20      0.31078387E-14      0.72530830E-27
    0.273181969877         0.18655005E-06      0.11652016E-07     -0.11431892E-20      0.30986103E-14     -0.30400727E-27
    0.276321992520         0.19275778E-06      0.11382902E-07     -0.37082784E-20      0.30922315E-14     -0.10073754E-26
    0.279462015162         0.19912834E-06      0.11116939E-07      0.10943540E-20      0.30847365E-14      0.30366214E-27
    0.282602037804         0.20566511E-06      0.10859523E-07      0.68082879E-20      0.30776456E-14      0.19295045E-26
    0.285742060446         0.21237151E-06      0.10613612E-07     -0.33273982E-20      0.30719053E-14     -0.96305125E-27
    0.288882083089         0.21925100E-06      0.10366959E-07      0.42382866E-20      0.30640432E-14      0.12526618E-26
    0.292022105731         0.22630710E-06      0.10139567E-07      0.23394754E-20      0.30600208E-14      0.70603051E-27
    0.295162128373         0.23354337E-06      0.99029723E-08     -0.21188713E-20      0.30513710E-14     -0.65288101E-27
    0.298302151016         0.24096340E-06      0.96925098E-08     -0.15676534E-20      0.30489725E-14     -0.49313667E-27
    0.301442173658         0.24857086E-06      0.94657998E-08      0.53568893E-20      0.30396674E-14      0.17202098E-26
    0.304582196300         0.25636942E-06      0.92707528E-08      0.34577802E-20      0.30387800E-14      0.11333959E-26
    0.307722218942         0.26436283E-06      0.90533139E-08      0.23735810E-20      0.30288075E-14      0.79408711E-27
    0.310862241585         0.27255487E-06      0.88717936E-08     -0.32409490E-20      0.30291442E-14     -0.11065746E-26
    0.314002264227         0.28094936E-06      0.86638621E-08      0.46073058E-21      0.30187652E-14      0.16053319E-27
    0.317142286869         0.28955016E-06      0.84945292E-08     -0.10515762E-19      0.30201708E-14     -0.37388063E-26
    0.320282309511         0.29836118E-06      0.82961015E-08      0.41936112E-20      0.30095806E-14      0.15213183E-26
    0.323422332154         0.30738639E-06      0.81374218E-08     -0.26287519E-19      0.30117852E-14     -0.97294160E-26
    0.326562354796         0.31662976E-06      0.79485698E-08      0.61183949E-20      0.30012153E-14      0.23101792E-26
    0.329702377438         0.32609534E-06      0.77991461E-08     -0.57500967E-21      0.30039459E-14     -0.22147270E-27
    0.332842400080         0.33578719E-06      0.76199148E-08     -0.55702981E-20      0.29936301E-14     -0.21883988E-26
    0.335982422723         0.34570944E-06      0.74784037E-08     -0.88097608E-20      0.29965818E-14     -0.35300539E-26
    0.339122445365         0.35586624E-06      0.73088165E-08     -0.18052632E-19      0.29867567E-14     -0.73772300E-26
    0.342262468007         0.36626178E-06      0.71741269E-08     -0.58890546E-20      0.29896746E-14     -0.24541463E-26
    0.345402490650         0.37690029E-06      0.70141003E-08     -0.27472736E-20      0.29805439E-14     -0.11674155E-26
    0.348542513292         0.38778604E-06      0.68849321E-08      0.22374286E-20      0.29830369E-14      0.96941144E-27
    0.351682535934         0.39892335E-06      0.67345154E-08     -0.14670564E-20      0.29748670E-14     -0.64804923E-27
    0.354822558576         0.41031655E-06      0.66105367E-08      0.75040237E-21      0.29769194E-14      0.33792829E-27
    0.357962581219         0.42197002E-06      0.64695873E-08      0.23585564E-20      0.29699087E-14      0.10827116E-26
    0.361102603861         0.43388818E-06      0.63497145E-08     -0.92281713E-21      0.29711457E-14     -0.43180274E-27
    0.364242626503         0.44607547E-06      0.62178538E-08      0.40380582E-20      0.29653819E-14      0.19258067E-26
    0.367382649145         0.45853638E-06      0.61015691E-08     -0.21452211E-20      0.29656455E-14     -0.10426769E-26
    0.370522671788         0.47127541E-06      0.59782798E-08     -0.84847951E-21      0.29611388E-14     -0.42026565E-27
    0.373662694430         0.48429711E-06      0.58646260E-08      0.12359046E-20      0.29600224E-14      0.62379176E-27
    0.376802717072         0.49760605E-06      0.57499475E-08      0.55643403E-21      0.29570458E-14      0.28615929E-27
    0.379942739715         0.51120685E-06      0.56399094E-08      0.37746385E-20      0.29551069E-14      0.19777729E-26
    0.383082762357         0.52510413E-06      0.55334922E-08      0.49078800E-20      0.29537564E-14      0.26198071E-26
    0.386222784999         0.53930256E-06      0.54262642E-08      0.76507293E-21      0.29506525E-14      0.41602552E-27
    0.389362807641         0.55380682E-06      0.53271960E-08      0.26148497E-20      0.29506999E-14      0.14483486E-26
    0.392502830284         0.56862162E-06      0.52225565E-08      0.18387516E-20      0.29463631E-14      0.10373521E-26
    0.395642852926         0.58375171E-06      0.51304240E-08      0.12888519E-21      0.29478178E-14      0.74054317E-28
    0.398782875568         0.59920184E-06      0.50285543E-08     -0.17205885E-21      0.29424042E-14     -0.10067837E-27
    0.401922898210         0.61497679E-06      0.49428073E-08      0.58980659E-21      0.29451824E-14      0.35143753E-27
    0.405062920853         0.63108138E-06      0.48437748E-08     -0.15646456E-20      0.29387955E-14     -0.94929549E-27
    0.408202943495         0.64752043E-06      0.47637470E-08      0.70380227E-21      0.29427175E-14      0.43476097E-27
    0.411342966137         0.66429877E-06      0.46677100E-08      0.52353407E-21      0.29355250E-14      0.32925082E-27
    0.414482988779         0.68142128E-06      0.45927899E-08      0.13221132E-20      0.29404114E-14      0.84644775E-27
    0.417623011422         0.69889282E-06      0.44999087E-08      0.10329794E-20      0.29325971E-14      0.67319417E-27
    0.420763034064         0.71671828E-06      0.44294428E-08      0.15463003E-20      0.29382080E-14      0.10257164E-26
    0.423903056706         0.73490258E-06      0.43396485E-08      0.11843825E-20      0.29298158E-14      0.79960914E-27
    0.427043079349         0.75345064E-06      0.42729117E-08      0.80470249E-21      0.29358210E-14      0.55289289E-27
    0.430183101991         0.77236737E-06      0.41864700E-08      0.15956348E-20      0.29271239E-14      0.11156465E-26
    0.433323124633         0.79165771E-06      0.41233453E-08      0.30464216E-21      0.29335792E-14      0.21673953E-27
    0.436463147275         0.81132662E-06      0.40414694E-08     -0.23034743E-21      0.29255665E-14     -0.16674547E-27
    0.439603169918         0.83137904E-06      0.39819178E-08      0.11629726E-20      0.29326018E-14      0.85650573E-27
    0.442743192560         0.85181993E-06      0.39027232E-08      0.50551763E-21      0.29240595E-14      0.37875184E-27
    0.445883215202         0.87265424E-06      0.38443513E-08      0.35631225E-21      0.29299938E-14      0.27156537E-27
    0.449023237844         0.89388696E-06      0.37694960E-08      0.16307824E-20      0.29222651E-14      0.12642482E-26
    0.452163260487         0.91552302E-06      0.37141231E-08      0.20209486E-21      0.29285513E-14      0.15934990E-27
    0.455303283129         0.93756741E-06      0.36438621E-08     -0.52211500E-21      0.29220403E-14     -0.41868793E-27
    0.458443305771         0.96002506E-06      0.35901682E-08      0.10963635E-20      0.29277519E-14      0.89407523E-27
    0.461583328413         0.98290095E-06      0.35236911E-08      0.17590757E-20      0.29219986E-14      0.14587024E-26
    0.464723351056         0.10062000E-05      0.34715630E-08     -0.67397952E-21      0.29270990E-14     -0.56827567E-27
    0.467863373698         0.10299272E-05      0.34091859E-08      0.38764156E-21      0.29225416E-14      0.33230766E-27
    0.471003396340         0.10540874E-05      0.33582109E-08      0.49885624E-21      0.29267330E-14      0.43476097E-27
    0.474143418983         0.10786856E-05      0.32997523E-08     -0.18477235E-20      0.29234054E-14     -0.16369850E-26
    0.477283441625         0.11037267E-05      0.32497843E-08     -0.56062530E-22      0.29265925E-14     -0.50487098E-28
    0.480423464267         0.11292155E-05      0.31951447E-08      0.89124746E-21      0.29245947E-14      0.81578078E-27
    0.483563486909         0.11551570E-05      0.31460759E-08      0.12993316E-20      0.29267070E-14      0.12087321E-26
    0.486703509552         0.11815559E-05      0.30951241E-08      0.14088248E-20      0.29261085E-14      0.13318930E-26
    0.489843532194         0.12084172E-05      0.30468761E-08      0.50500243E-21      0.29270954E-14      0.48514946E-27
    0.492983554836         0.12357457E-05      0.29994602E-08      0.14863531E-20      0.29279410E-14      0.14509124E-26
    0.496123577478         0.12635461E-05      0.29520043E-08      0.22601822E-20      0.29277955E-14      0.22416469E-26
    0.499263600121         0.12918231E-05      0.29079325E-08     -0.41992648E-21      0.29300837E-14     -0.42312527E-27
    0.502403622763         0.13205817E-05      0.28612760E-08     -0.57896176E-21      0.29288342E-14     -0.59263176E-27
    0.505543645405         0.13498263E-05      0.28203024E-08      0.81045995E-21      0.29324961E-14      0.84270066E-27
    0.508683668048         0.13795618E-05      0.27743835E-08      0.17000308E-20      0.29300996E-14      0.17954474E-26
