
 # Omega; pulse ft; projected flux at t=    1000.0500000000001     
    0.000000000000         0.18717486E-09      0.00000000E+00      0.00000000E+00      0.16316748E-10      0.00000000E+00
    0.003140022642         0.20186436E-09      0.65543616E-03      0.48306381E-16      0.16408913E-10      0.12093553E-23
    0.006280045285         0.24594737E-09      0.10806287E-02     -0.44488589E-15      0.16480806E-10     -0.67850116E-23
    0.009420067927         0.31946741E-09      0.12550497E-02      0.10846524E-15      0.16575093E-10      0.14324704E-23
    0.012560090569         0.42249703E-09      0.12708831E-02      0.21441712E-15      0.16647884E-10      0.28087487E-23
    0.015700113211         0.55513782E-09      0.12161497E-02     -0.40564717E-15      0.16745867E-10     -0.55855896E-23
    0.018840135854         0.71752051E-09      0.11339958E-02      0.86346043E-17      0.16818385E-10      0.12806052E-24
    0.021980158496         0.90980495E-09      0.10497867E-02      0.26417988E-16      0.16921587E-10      0.42583343E-24
    0.025120181138         0.11321802E-08      0.96816052E-03     -0.49135876E-15      0.16992712E-10     -0.86241051E-23
    0.028260203780         0.13848647E-08      0.89622501E-03     -0.42983225E-16      0.17102975E-10     -0.82026388E-24
    0.031400226423         0.16681061E-08      0.83003359E-03      0.22843190E-15      0.17171534E-10      0.47257438E-23
    0.034540249065         0.19821816E-08      0.77372117E-03     -0.30601855E-15      0.17291194E-10     -0.68389318E-23
    0.037680271707         0.23273981E-08      0.72156082E-03      0.71326376E-16      0.17356099E-10      0.17156526E-23
    0.040820294349         0.27040919E-08      0.67788739E-03     -0.38304319E-16      0.17487407E-10     -0.98813348E-24
    0.043960316992         0.31126296E-08      0.63646566E-03     -0.44838010E-15      0.17549475E-10     -0.12363331E-22
    0.047100339634         0.35534072E-08      0.60213459E-03      0.97487674E-17      0.17690376E-10      0.28641331E-24
    0.050240362276         0.40268513E-08      0.56898056E-03      0.47651632E-17      0.17759585E-10      0.14873499E-24
    0.053380384919         0.45334185E-08      0.54087874E-03     -0.16532640E-15      0.17888197E-10     -0.54677527E-23
    0.056520407561         0.50735959E-08      0.51485241E-03      0.15550993E-15      0.17997653E-10      0.54361478E-23
    0.059660430203         0.56479014E-08      0.48982194E-03      0.13324537E-15      0.18057661E-10      0.49121927E-23
    0.062800452845         0.62568834E-08      0.47007320E-03     -0.25642541E-15      0.18238257E-10     -0.99489875E-23
    0.065940475488         0.69011217E-08      0.44707106E-03      0.52479201E-16      0.18220769E-10      0.21388354E-23
    0.069080498130         0.75812269E-08      0.43094216E-03      0.31151858E-16      0.18417283E-10      0.13313448E-23
    0.072220520772         0.82978416E-08      0.41150092E-03     -0.12648855E-15      0.18411869E-10     -0.56595027E-23
    0.075360543414         0.90516395E-08      0.39695654E-03     -0.26099425E-16      0.18567299E-10     -0.12207780E-23
    0.078500566057         0.98433265E-08      0.38114321E-03      0.12003862E-16      0.18611434E-10      0.58615521E-24
    0.081640588699         0.10673641E-07      0.36797643E-03     -0.15321340E-15      0.18734797E-10     -0.78005596E-23
    0.084780611341         0.11543353E-07      0.35480029E-03     -0.53019700E-16      0.18812301E-10     -0.28112226E-23
    0.087920633984         0.12453265E-07      0.34305680E-03     -0.56741535E-16      0.18922609E-10     -0.31297962E-23
    0.091060656626         0.13404215E-07      0.33174516E-03     -0.20731893E-15      0.19016813E-10     -0.11884259E-22
    0.094200679268         0.14397070E-07      0.32133540E-03      0.24751031E-16      0.19124989E-10      0.14731125E-23
    0.097340701910         0.15432734E-07      0.31139853E-03      0.93515502E-17      0.19225937E-10      0.57737045E-24
    0.100480724553         0.16512144E-07      0.30220891E-03     -0.16392338E-15      0.19339734E-10     -0.10490209E-22
    0.103620747195         0.17636269E-07      0.29328158E-03      0.15776836E-16      0.19438704E-10      0.10456888E-23
    0.106760769837         0.18806114E-07      0.28522784E-03      0.90644231E-17      0.19565990E-10      0.62179910E-24
    0.109900792479         0.20022721E-07      0.27707642E-03     -0.78557733E-16      0.19658228E-10     -0.55735737E-23
    0.113040815122         0.21287162E-07      0.26991759E-03      0.29066559E-16      0.19794121E-10      0.21315653E-23
    0.116180837764         0.22600547E-07      0.26254033E-03      0.16306918E-16      0.19888545E-10      0.12353183E-23
    0.119320860406         0.23964023E-07      0.25603616E-03     -0.14294811E-15      0.20024755E-10     -0.11180065E-22
    0.122460883048         0.25378770E-07      0.24933475E-03      0.32330110E-16      0.20122343E-10      0.26091732E-23
    0.125600905691         0.26846007E-07      0.24354084E-03      0.12315514E-16      0.20271284E-10      0.10250900E-23
    0.128740928333         0.28366986E-07      0.23726497E-03     -0.35750248E-16      0.20358826E-10     -0.30675961E-23
    0.131880950975         0.29943001E-07      0.23226882E-03     -0.14334665E-16      0.20536513E-10     -0.12674281E-23
    0.135020973618         0.31575378E-07      0.22676266E-03     -0.57937544E-16      0.20651015E-10     -0.52763056E-23
    0.138160996260         0.33265483E-07      0.22065262E-03     -0.10631903E-15      0.20689024E-10     -0.99687785E-23
    0.141301018902         0.35014721E-07      0.21797842E-03     -0.15703820E-16      0.21034947E-10     -0.15154207E-23
    0.144441041544         0.36824533E-07      0.21096341E-03     -0.38769849E-17      0.20944805E-10     -0.38491363E-24
    0.147581064187         0.38696400E-07      0.20674726E-03     -0.52573341E-16      0.21110681E-10     -0.53681921E-23
    0.150721086829         0.40631842E-07      0.20221118E-03     -0.32353818E-16      0.21228544E-10     -0.33965700E-23
    0.153861109471         0.42632417E-07      0.19769769E-03     -0.63966621E-16      0.21332180E-10     -0.69021921E-23
    0.157001132113         0.44699723E-07      0.19371297E-03     -0.12474887E-15      0.21477479E-10     -0.13831243E-22
    0.160141154756         0.46835399E-07      0.18956490E-03     -0.12119511E-16      0.21589955E-10     -0.13803173E-23
    0.163281177398         0.49041122E-07      0.18582887E-03     -0.43612374E-16      0.21735018E-10     -0.51010144E-23
    0.166421200040         0.51318613E-07      0.18201249E-03     -0.41543329E-16      0.21856972E-10     -0.49887311E-23
    0.169561222683         0.53669630E-07      0.17849263E-03     -0.11737386E-16      0.22001125E-10     -0.14467583E-23
    0.172701245325         0.56095974E-07      0.17495395E-03     -0.34632291E-16      0.22130056E-10     -0.43806645E-23
    0.175841267967         0.58599489E-07      0.17163778E-03     -0.61846682E-16      0.22274526E-10     -0.80262369E-23
    0.178981290609         0.61182058E-07      0.16833784E-03      0.44246435E-16      0.22408911E-10      0.58900268E-23
    0.182121313252         0.63845608E-07      0.16521266E-03     -0.13035332E-16      0.22554652E-10     -0.17795692E-23
    0.185261335894         0.66592107E-07      0.16212283E-03     -0.34662618E-16      0.22693668E-10     -0.48520121E-23
    0.188401358536         0.69423567E-07      0.15917537E-03      0.11174175E-17      0.22841326E-10      0.16034702E-24
    0.191541381178         0.72342043E-07      0.15627332E-03      0.68707952E-17      0.22984525E-10      0.10105498E-23
    0.194681403821         0.75349631E-07      0.15349062E-03     -0.33933433E-16      0.23134549E-10     -0.51145450E-23
    0.197821426463         0.78448474E-07      0.15075815E-03     -0.54818602E-17      0.23281691E-10     -0.84656766E-24
    0.200961449105         0.81640757E-07      0.14812804E-03     -0.23594976E-16      0.23434414E-10     -0.37328141E-23
    0.204101471747         0.84928709E-07      0.14554992E-03     -0.43384885E-16      0.23585381E-10     -0.70302274E-23
    0.207241494390         0.88314602E-07      0.14306117E-03      0.92364234E-17      0.23741061E-10      0.15327883E-23
    0.210381517032         0.91800755E-07      0.14062435E-03      0.45355825E-16      0.23895809E-10      0.77071584E-23
    0.213521539674         0.95389531E-07      0.13826672E-03     -0.15199565E-16      0.24054660E-10     -0.26443122E-23
    0.216661562317         0.99083337E-07      0.13595988E-03     -0.19991778E-16      0.24213193E-10     -0.35603501E-23
    0.219801584959         0.10288463E-06      0.13372406E-03     -0.10108424E-16      0.24375401E-10     -0.18425771E-23
    0.222941607601         0.10679590E-06      0.13153730E-03     -0.27858756E-16      0.24537760E-10     -0.51969399E-23
    0.226081630243         0.11081969E-06      0.12941486E-03      0.36943704E-17      0.24703491E-10      0.70520378E-24
    0.229221652886         0.11495860E-06      0.12733942E-03     -0.12362831E-16      0.24869740E-10     -0.24144950E-23
    0.232361675528         0.11921526E-06      0.12532269E-03     -0.40388178E-16      0.25039150E-10     -0.80694538E-23
    0.235501698170         0.12359235E-06      0.12335080E-03     -0.18541538E-16      0.25209372E-10     -0.37893596E-23
    0.238641720812         0.12809259E-06      0.12143283E-03     -0.19788486E-16      0.25382610E-10     -0.41363070E-23
    0.241781743455         0.13271877E-06      0.11955752E-03     -0.28285302E-16      0.25556906E-10     -0.60463348E-23
    0.244921766097         0.13747370E-06      0.11773199E-03     -0.52884117E-17      0.25734116E-10     -0.11559526E-23
    0.248061788739         0.14236024E-06      0.11594701E-03      0.53133245E-18      0.25912596E-10      0.11874565E-24
    0.251201811381         0.14738131E-06      0.11420817E-03     -0.44021255E-16      0.26093923E-10     -0.10057838E-22
    0.254341834024         0.15253987E-06      0.11250786E-03     -0.16660534E-16      0.26276711E-10     -0.38911416E-23
    0.257481856666         0.15783893E-06      0.11085047E-03     -0.19519705E-16      0.26462300E-10     -0.46597572E-23
    0.260621879308         0.16328153E-06      0.10922971E-03     -0.42926371E-16      0.26649527E-10     -0.10473044E-22
    0.263761901951         0.16887077E-06      0.10764897E-03     -0.97262652E-17      0.26839527E-10     -0.24249963E-23
    0.266901924593         0.17460981E-06      0.10610308E-03     -0.42805019E-19      0.27031334E-10     -0.10905213E-25
    0.270041947235         0.18050182E-06      0.10459461E-03     -0.22761350E-16      0.27225897E-10     -0.59247619E-23
    0.273181969877         0.18655005E-06      0.10311933E-03      0.12663869E-16      0.27422431E-10      0.33676914E-23
    0.276321992520         0.19275778E-06      0.10167910E-03      0.17514457E-16      0.27621717E-10      0.47579041E-23
    0.279462015162         0.19912834E-06      0.10027050E-03     -0.27953054E-16      0.27823131E-10     -0.77564338E-23
    0.282602037804         0.20566511E-06      0.98894810E-04      0.12797904E-17      0.28027307E-10      0.36269931E-24
    0.285742060446         0.21237151E-06      0.97549298E-04     -0.18021318E-16      0.28233763E-10     -0.52159231E-23
    0.288882083089         0.21925100E-06      0.96234746E-04     -0.30493292E-16      0.28443001E-10     -0.90125528E-23
    0.292022105731         0.22630710E-06      0.94948993E-04     -0.19967984E-17      0.28654667E-10     -0.60261400E-24
    0.295162128373         0.23354337E-06      0.93692436E-04      0.66065007E-18      0.28869149E-10      0.20356398E-24
    0.298302151016         0.24096340E-06      0.92463370E-04     -0.11386201E-16      0.29086199E-10     -0.35817567E-23
    0.301442173658         0.24857086E-06      0.91261897E-04     -0.36299277E-17      0.29306114E-10     -0.11656461E-23
    0.304582196300         0.25636942E-06      0.90086673E-04     -0.19747462E-16      0.29528732E-10     -0.64728499E-23
    0.307722218942         0.26436283E-06      0.88937588E-04     -0.32185959E-16      0.29754279E-10     -0.10767888E-22
    0.310862241585         0.27255487E-06      0.87813565E-04      0.85975913E-17      0.29982658E-10      0.29355218E-23
    0.314002264227         0.28094936E-06      0.86714362E-04      0.24968836E-17      0.30214043E-10      0.86999367E-24
    0.317142286869         0.28955016E-06      0.85639089E-04     -0.20927386E-16      0.30448383E-10     -0.74405865E-23
    0.320282309511         0.29836118E-06      0.84587432E-04      0.12959596E-17      0.30685822E-10      0.47013586E-24
    0.323422332154         0.30738639E-06      0.83558626E-04     -0.28176657E-17      0.30926335E-10     -0.10428615E-23
    0.326562354796         0.31662976E-06      0.82552338E-04     -0.29209245E-16      0.31170053E-10     -0.11028806E-22
    0.329702377438         0.32609534E-06      0.81567873E-04      0.10851300E-16      0.31416962E-10      0.41795239E-23
    0.332842400080         0.33578719E-06      0.80604919E-04      0.13142837E-16      0.31667193E-10      0.51634165E-23
    0.335982422723         0.34570944E-06      0.79662812E-04     -0.25205621E-16      0.31920733E-10     -0.10099843E-22
    0.339122445365         0.35586624E-06      0.78741285E-04      0.16725122E-16      0.32177722E-10      0.68347414E-23
    0.342262468007         0.36626178E-06      0.77839686E-04      0.43943743E-17      0.32438139E-10      0.18312680E-23
    0.345402490650         0.37690029E-06      0.76957800E-04     -0.14915065E-16      0.32702141E-10     -0.63379483E-23
    0.348542513292         0.38778604E-06      0.76094977E-04     -0.92996772E-17      0.32969697E-10     -0.40292743E-23
    0.351682535934         0.39892335E-06      0.75251057E-04     -0.10107149E-16      0.33240979E-10     -0.44646750E-23
    0.354822558576         0.41031655E-06      0.74425390E-04     -0.34397593E-16      0.33515946E-10     -0.15490249E-22
    0.357962581219         0.42197002E-06      0.73617863E-04      0.49798965E-17      0.33794787E-10      0.22860558E-23
    0.361102603861         0.43388818E-06      0.72827836E-04      0.30901793E-17      0.34077455E-10      0.14459505E-23
    0.364242626503         0.44607547E-06      0.72055223E-04     -0.18812956E-16      0.34364148E-10     -0.89721631E-23
    0.367382649145         0.45853638E-06      0.71299411E-04     -0.12983295E-16      0.34654819E-10     -0.63104833E-23
    0.370522671788         0.47127541E-06      0.70560324E-04     -0.14884900E-16      0.34949672E-10     -0.73727319E-23
    0.373662694430         0.48429711E-06      0.69837392E-04     -0.26854173E-16      0.35248666E-10     -0.13553968E-22
    0.376802717072         0.49760605E-06      0.69130528E-04     -0.61746061E-17      0.35552001E-10     -0.31754365E-23
    0.379942739715         0.51120685E-06      0.68439218E-04     -0.13596235E-16      0.35859654E-10     -0.71239315E-23
    0.383082762357         0.52510413E-06      0.67763352E-04     -0.20420470E-16      0.36171811E-10     -0.10900366E-22
    0.386222784999         0.53930256E-06      0.67102483E-04     -0.69820204E-17      0.36488476E-10     -0.37966298E-23
    0.389362807641         0.55380682E-06      0.66456465E-04     -0.72977892E-17      0.36809813E-10     -0.40421990E-23
    0.392502830284         0.56862162E-06      0.65824926E-04     -0.17491469E-16      0.37135861E-10     -0.98680062E-23
    0.395642852926         0.58375171E-06      0.65207677E-04     -0.36975049E-18      0.37466757E-10     -0.21244971E-24
    0.398782875568         0.59920184E-06      0.64604421E-04     -0.37964170E-17      0.37802578E-10     -0.22214323E-23
    0.401922898210         0.61497679E-06      0.64014927E-04     -0.19638592E-16      0.38143433E-10     -0.11701698E-22
    0.405062920853         0.63108138E-06      0.63438972E-04     -0.29211348E-17      0.38489437E-10     -0.17722991E-23
    0.408202943495         0.64752043E-06      0.62876283E-04     -0.40537989E-18      0.38840673E-10     -0.25041601E-24
    0.411342966137         0.66429877E-06      0.62326704E-04     -0.16993323E-16      0.39197293E-10     -0.10687109E-22
    0.414482988779         0.68142128E-06      0.61789927E-04     -0.34874413E-17      0.39559355E-10     -0.22327414E-23
    0.417623011422         0.69889282E-06      0.61265856E-04     -0.38003522E-17      0.39927048E-10     -0.24766951E-23
    0.420763034064         0.71671828E-06      0.60754158E-04     -0.12136342E-16      0.40300409E-10     -0.80504707E-23
    0.423903056706         0.73490258E-06      0.60254778E-04      0.47381609E-17      0.40679655E-10      0.31988625E-23
    0.427043079349         0.75345064E-06      0.59767382E-04      0.45334805E-17      0.41064817E-10      0.31148520E-23
    0.430183101991         0.77236737E-06      0.59291926E-04     -0.30223518E-17      0.41456122E-10     -0.21131880E-23
    0.433323124633         0.79165771E-06      0.58828092E-04     -0.81522354E-17      0.41853606E-10     -0.57999578E-23
    0.436463147275         0.81132662E-06      0.58375861E-04     -0.50082102E-17      0.42257518E-10     -0.36253775E-23
    0.439603169918         0.83137904E-06      0.57934904E-04     -0.16349358E-16      0.42667883E-10     -0.12040971E-22
    0.442743192560         0.85181993E-06      0.57505228E-04     -0.21714079E-17      0.43084968E-10     -0.16268962E-23
    0.445883215202         0.87265424E-06      0.57086516E-04     -0.11298323E-17      0.43508806E-10     -0.86110794E-24
    0.449023237844         0.89388696E-06      0.56678772E-04     -0.14610801E-16      0.43939667E-10     -0.11326881E-22
    0.452163260487         0.91552302E-06      0.56281727E-04     -0.26820909E-17      0.44377615E-10     -0.21148036E-23
    0.455303283129         0.93756741E-06      0.55895332E-04     -0.63845216E-17      0.44822885E-10     -0.51197956E-23
    0.458443305771         0.96002506E-06      0.55519387E-04     -0.12950585E-16      0.45275592E-10     -0.10561093E-22
    0.461583328413         0.98290095E-06      0.55153840E-04     -0.30490359E-17      0.45735975E-10     -0.25283939E-23
    0.464723351056         0.10062000E-05      0.54798492E-04     -0.14045008E-17      0.46204149E-10     -0.11842254E-23
    0.467863373698         0.10299272E-05      0.54453286E-04     -0.15700645E-16      0.46680351E-10     -0.13459456E-22
    0.471003396340         0.10540874E-05      0.54118082E-04     -0.99491699E-17      0.47164749E-10     -0.86708561E-23
    0.474143418983         0.10786856E-05      0.53792773E-04     -0.28958308E-17      0.47657542E-10     -0.25655524E-23
    0.477283441625         0.11037267E-05      0.53477289E-04     -0.15157514E-16      0.48158960E-10     -0.13650096E-22
    0.480423464267         0.11292155E-05      0.53171477E-04     -0.98771790E-17      0.48669165E-10     -0.90408256E-23
    0.483563486909         0.11551570E-05      0.52875324E-04      0.42548712E-18      0.49188444E-10      0.39581885E-24
    0.486703509552         0.11815559E-05      0.52588651E-04     -0.12676661E-16      0.49716939E-10     -0.11984425E-22
    0.489843532194         0.12084172E-05      0.52311486E-04      0.56017399E-17      0.50254983E-10      0.53815207E-23
    0.492983554836         0.12357457E-05      0.52043633E-04      0.72855310E-17      0.50802703E-10      0.71118146E-23
    0.496123577478         0.12635461E-05      0.51785150E-04     -0.88777545E-17      0.51360470E-10     -0.88049499E-23
    0.499263600121         0.12918231E-05      0.51535837E-04     -0.52590649E-18      0.51928411E-10     -0.52991258E-24
    0.502403622763         0.13205817E-05      0.51295771E-04     -0.64758512E-17      0.52506927E-10     -0.66287540E-23
    0.505543645405         0.13498263E-05      0.51064761E-04     -0.12649296E-16      0.53096156E-10     -0.13152495E-22
    0.508683668048         0.13795618E-05      0.50842886E-04     -0.10643854E-16      0.53696515E-10     -0.11241255E-22
