
 # Omega; pulse ft; projected flux at t=    1000.0500000000001     
    0.000000000000         0.18717486E-09      0.00000000E+00      0.00000000E+00      0.31554492E-14      0.15146129E-27
    0.003140022642         0.20186436E-09      0.12544443E-06      0.87610389E-19      0.31405146E-14      0.21933353E-26
    0.006280045285         0.24594737E-09      0.20429685E-06     -0.49651727E-20      0.31157574E-14     -0.75724484E-28
    0.009420067927         0.31946741E-09      0.23069722E-06      0.66337727E-19      0.30467543E-14      0.87610399E-27
    0.012560090569         0.42249703E-09      0.22345339E-06      0.16408634E-18      0.29271190E-14      0.21494426E-26
    0.015700113211         0.55513782E-09      0.20879896E-06     -0.11919929E-19      0.28750732E-14     -0.16413237E-27
    0.018840135854         0.71752051E-09      0.19648583E-06     -0.37704438E-20      0.29140974E-14     -0.55919761E-28
    0.021980158496         0.90980495E-09      0.17677504E-06      0.91595432E-19      0.28494495E-14      0.14764333E-26
    0.025120181138         0.11321802E-08      0.16160347E-06     -0.28179702E-19      0.28363905E-14     -0.49459730E-27
    0.028260203780         0.13848647E-08      0.15707030E-06      0.82624931E-19      0.29974274E-14      0.15767604E-26
    0.031400226423         0.16681061E-08      0.15198398E-06      0.50707812E-19      0.31442079E-14      0.10490309E-26
    0.034540249065         0.19821816E-08      0.14589788E-06      0.16842491E-19      0.32605398E-14      0.37639759E-27
    0.037680271707         0.23273981E-08      0.14784688E-06      0.30026813E-19      0.35562424E-14      0.72225146E-27
    0.040820294349         0.27040919E-08      0.15966466E-06      0.29687588E-19      0.41188566E-14      0.76584835E-27
    0.043960316992         0.31126296E-08      0.17024489E-06      0.43742685E-19      0.46942180E-14      0.12061313E-26
    0.047100339634         0.35534072E-08      0.17960130E-06      0.16360517E-19      0.52765852E-14      0.48066281E-27
    0.050240362276         0.40268513E-08      0.19534926E-06      0.39526934E-19      0.60974346E-14      0.12337538E-26
    0.053380384919         0.45334185E-08      0.21259245E-06      0.10046372E-18      0.70309578E-14      0.33225835E-26
    0.056520407561         0.50735959E-08      0.23072212E-06      0.87248352E-20      0.80653342E-14      0.30499335E-27
    0.059660430203         0.56479014E-08      0.24167053E-06      0.11584449E-19      0.89093694E-14      0.42706957E-27
    0.062800452845         0.62568834E-08      0.24489550E-06      0.57974490E-19      0.95016413E-14      0.22493383E-26
    0.065940475488         0.69011217E-08      0.23398600E-06     -0.44373085E-19      0.95363026E-14     -0.18084636E-26
    0.069080498130         0.75812269E-08      0.21625306E-06     -0.46672043E-19      0.92420612E-14     -0.19946348E-26
    0.072220520772         0.82978416E-08      0.19466296E-06      0.62337193E-19      0.87098445E-14      0.27891656E-26
    0.075360543414         0.90516395E-08      0.17326595E-06     -0.46879274E-19      0.81043648E-14     -0.21927375E-26
    0.078500566057         0.98433265E-08      0.15439391E-06     -0.23867093E-19      0.75391402E-14     -0.11654434E-26
    0.081640588699         0.10673641E-07      0.13864414E-06      0.54193185E-19      0.70587941E-14      0.27591396E-26
    0.084780611341         0.11543353E-07      0.12643872E-06     -0.28012350E-19      0.67040624E-14     -0.14852772E-26
    0.087920633984         0.12453265E-07      0.11522130E-06     -0.31549390E-19      0.63554710E-14     -0.17402272E-26
    0.091060656626         0.13404215E-07      0.98213570E-07      0.46893335E-19      0.56299513E-14      0.26880928E-26
    0.094200679268         0.14397070E-07      0.95910061E-07     -0.12609839E-19      0.57083001E-14     -0.75050254E-27
    0.097340701910         0.15432734E-07      0.99312572E-07      0.54693620E-19      0.61316192E-14      0.33768177E-26
    0.100480724553         0.16512144E-07      0.82841346E-07      0.58426871E-19      0.53013977E-14      0.37390035E-26
    0.103620747195         0.17636269E-07      0.81399212E-07      0.55906407E-19      0.53951402E-14      0.37054769E-26
    0.106760769837         0.18806114E-07      0.10167331E-06      0.61962392E-20      0.69745612E-14      0.42504812E-27
    0.109900792479         0.20022721E-07      0.12256973E-06      0.10262598E-18      0.86961705E-14      0.72811862E-26
    0.113040815122         0.21287162E-07      0.11839847E-06     -0.55889885E-19      0.86826263E-14     -0.40986254E-26
    0.116180837764         0.22600547E-07      0.10274293E-06     -0.42502379E-19      0.77832133E-14     -0.32197358E-26
    0.119320860406         0.23964023E-07      0.99251485E-07      0.23457095E-19      0.77625231E-14      0.18345946E-26
    0.122460883048         0.25378770E-07      0.94494041E-07     -0.47222935E-19      0.76260588E-14     -0.38110856E-26
    0.125600905691         0.26846007E-07      0.90997548E-07      0.39010321E-19      0.75742417E-14      0.32470501E-26
    0.128740928333         0.28366986E-07      0.89065599E-07     -0.55908029E-20      0.76423883E-14     -0.47972604E-27
    0.131880950975         0.29943001E-07      0.87561445E-07      0.20454914E-19      0.77419206E-14      0.18085622E-26
    0.135020973618         0.31575378E-07      0.88581970E-07     -0.28910250E-21      0.80670583E-14     -0.26328233E-28
    0.138160996260         0.33265483E-07      0.87017005E-07      0.27784072E-19      0.81589646E-14      0.26051145E-26
    0.141301018902         0.35014721E-07      0.82419694E-07     -0.19203423E-19      0.79535116E-14     -0.18531329E-26
    0.144441041544         0.36824533E-07      0.73459636E-07     -0.11273931E-19      0.72931972E-14     -0.11192950E-26
    0.147581064187         0.38696400E-07      0.66276025E-07      0.53214636E-19      0.67673545E-14      0.54336739E-26
    0.150721086829         0.40631842E-07      0.60778988E-07     -0.86723789E-20      0.63807026E-14     -0.91044409E-27
    0.153861109471         0.42632417E-07      0.57198869E-07     -0.71308027E-20      0.61719312E-14     -0.76943521E-27
    0.157001132113         0.44699723E-07      0.54115957E-07      0.44734770E-19      0.59999818E-14      0.49598643E-26
    0.160141154756         0.46835399E-07      0.51654181E-07      0.53878617E-20      0.58830060E-14      0.61363518E-27
    0.163281177398         0.49041122E-07      0.49501919E-07      0.17647984E-19      0.57898705E-14      0.20641532E-26
    0.166421200040         0.51318613E-07      0.47374462E-07      0.39640939E-19      0.56889627E-14      0.47602825E-26
    0.169561222683         0.53669630E-07      0.45701262E-07     -0.24799763E-21      0.56331691E-14     -0.30568360E-28
    0.172701245325         0.56095974E-07      0.43737682E-07     -0.49432142E-20      0.55324123E-14     -0.62527088E-27
    0.175841267967         0.58599489E-07      0.42350848E-07      0.20299546E-19      0.54961387E-14      0.26344010E-26
    0.178981290609         0.61182058E-07      0.40536657E-07      0.10837167E-19      0.53961861E-14      0.14426294E-26
    0.182121313252         0.63845608E-07      0.39320543E-07      0.16208413E-20      0.53679975E-14      0.22127548E-27
    0.185261335894         0.66592107E-07      0.37674728E-07      0.21492053E-19      0.52736418E-14      0.30084197E-26
    0.188401358536         0.69423567E-07      0.36551882E-07      0.64030621E-20      0.52451170E-14      0.91882574E-27
    0.191541381178         0.72342043E-07      0.35091504E-07      0.19060602E-20      0.51612236E-14      0.28034144E-27
    0.194681403821         0.75349631E-07      0.34013696E-07      0.13836990E-20      0.51266424E-14      0.20855510E-27
    0.197821426463         0.78448474E-07      0.32743125E-07     -0.60991743E-20      0.50565446E-14     -0.94189992E-27
    0.200961449105         0.81640757E-07      0.31686205E-07      0.58676990E-20      0.50128769E-14      0.92829207E-27
    0.204101471747         0.84928709E-07      0.30595135E-07     -0.65319238E-20      0.49577348E-14     -0.10584541E-26
    0.207241494390         0.88314602E-07      0.29553758E-07     -0.25990275E-20      0.49044585E-14     -0.43130970E-27
    0.210381517032         0.91800755E-07      0.28620064E-07     -0.19643004E-20      0.48633085E-14     -0.33378677E-27
    0.213521539674         0.95389531E-07      0.27601872E-07     -0.55466926E-20      0.48019772E-14     -0.96497410E-27
    0.216661562317         0.99083337E-07      0.26796218E-07      0.32629137E-20      0.47721578E-14      0.58109466E-27
    0.219801584959         0.10288463E-06      0.25816007E-07     -0.10711084E-20      0.47057762E-14     -0.19524307E-27
    0.222941607601         0.10679590E-06      0.25106798E-07     -0.23628274E-20      0.46835731E-14     -0.44077603E-27
    0.226081630243         0.11081969E-06      0.24181417E-07      0.23757441E-20      0.46158953E-14      0.45349641E-27
    0.229221652886         0.11495860E-06      0.23538922E-07     -0.45839524E-20      0.45972163E-14     -0.89525852E-27
    0.232361675528         0.11921526E-06      0.22683282E-07     -0.14149733E-20      0.45320612E-14     -0.28270803E-27
    0.235501698170         0.12359235E-06      0.22082645E-07      0.31125577E-20      0.45130606E-14      0.63611771E-27
    0.238641720812         0.12809259E-06      0.21307155E-07      0.23077923E-20      0.44537480E-14      0.48238844E-27
    0.241781743455         0.13271877E-06      0.20730080E-07      0.20403093E-20      0.44313123E-14      0.43614147E-27
    0.244921766097         0.13747370E-06      0.20039398E-07      0.22781749E-20      0.43802554E-14      0.49796845E-27
    0.248061788739         0.14236024E-06      0.19474623E-07      0.10616730E-19      0.43523163E-14      0.23726964E-26
    0.251201811381         0.14738131E-06      0.18867544E-07      0.32196382E-21      0.43107969E-14      0.73561279E-28
    0.254341834024         0.15253987E-06      0.18310353E-07      0.53058373E-20      0.42764642E-14      0.12392019E-26
    0.257481856666         0.15783893E-06      0.17780632E-07      0.10978079E-19      0.42446045E-14      0.26206945E-26
    0.260621879308         0.16328153E-06      0.17231741E-07     -0.31504880E-20      0.42041470E-14     -0.76864634E-27
    0.263761901951         0.16887077E-06      0.16769368E-07      0.26075254E-20      0.41810145E-14      0.65011999E-27
    0.266901924593         0.17460981E-06      0.16233319E-07      0.11335248E-19      0.41356788E-14      0.28878226E-26
    0.270041947235         0.18050182E-06      0.15826051E-07     -0.64150066E-20      0.41195090E-14     -0.16698213E-26
    0.273181969877         0.18655005E-06      0.15308958E-07     -0.10341727E-20      0.40710975E-14     -0.27501663E-27
    0.276321992520         0.19275778E-06      0.14943574E-07      0.35253327E-20      0.40595087E-14      0.95767714E-27
    0.279462015162         0.19912834E-06      0.14452700E-07     -0.98273308E-20      0.40103458E-14     -0.27268949E-26
    0.282602037804         0.20566511E-06      0.14116926E-07      0.31899008E-20      0.40008108E-14      0.90403460E-27
    0.285742060446         0.21237151E-06      0.13658549E-07      0.86873832E-20      0.39532037E-14      0.25143955E-26
    0.288882083089         0.21925100E-06      0.13341655E-07     -0.34350690E-20      0.39432401E-14     -0.10152640E-26
    0.292022105731         0.22630710E-06      0.12920452E-07     -0.17121300E-21      0.38992647E-14     -0.51670389E-28
    0.295162128373         0.23354337E-06      0.12614059E-07      0.99623116E-21      0.38867293E-14      0.30696550E-27
    0.298302151016         0.24096340E-06      0.12232685E-07     -0.43913731E-20      0.38480354E-14     -0.13813941E-26
    0.301442173658         0.24857086E-06      0.11931176E-07      0.98638005E-20      0.38313515E-14      0.31674737E-26
    0.304582196300         0.25636942E-06      0.11590447E-07      0.77903842E-20      0.37991324E-14      0.25535428E-26
    0.307722218942         0.26436283E-06      0.11291873E-07     -0.44123318E-20      0.37777226E-14     -0.14761560E-26
    0.310862241585         0.27255487E-06      0.10991239E-07     -0.23228438E-20      0.37527978E-14     -0.79310103E-27
    0.314002264227         0.28094936E-06      0.10695977E-07     -0.23599707E-20      0.37268186E-14     -0.82228889E-27
    0.317142286869         0.28955016E-06      0.10431632E-07     -0.23275790E-19      0.37088941E-14     -0.82755453E-26
    0.320282309511         0.29836118E-06      0.10140242E-07     -0.76408096E-21      0.36785804E-14     -0.27718600E-27
    0.323422332154         0.30738639E-06      0.99062098E-08      0.15857554E-20      0.36664409E-14      0.58691251E-27
    0.326562354796         0.31662976E-06      0.96202727E-08      0.14661375E-19      0.36324157E-14      0.55358314E-26
    0.329702377438         0.32609534E-06      0.94105729E-08      0.57623854E-20      0.36246086E-14      0.22194602E-26
    0.332842400080         0.33578719E-06      0.91331179E-08      0.46192838E-20      0.35881211E-14      0.18147745E-26
    0.335982422723         0.34570944E-06      0.89421744E-08     -0.81157882E-20      0.35831118E-14     -0.32519805E-26
    0.339122445365         0.35586624E-06      0.86768815E-08     -0.20236399E-19      0.35458181E-14     -0.82696289E-26
    0.342262468007         0.36626178E-06      0.84991680E-08     -0.56881623E-20      0.35418591E-14     -0.23704284E-26
    0.345402490650         0.37690029E-06      0.82490877E-08     -0.14733731E-19      0.35053345E-14     -0.62608932E-26
    0.348542513292         0.38778604E-06      0.80800453E-08      0.66997683E-20      0.35008440E-14      0.29028109E-26
    0.351682535934         0.39892335E-06      0.78478796E-08      0.10255108E-19      0.34666782E-14      0.45300337E-26
    0.354822558576         0.41031655E-06      0.76836753E-08     -0.49079424E-20      0.34601853E-14     -0.22101910E-26
    0.357962581219         0.42197002E-06      0.74710416E-08     -0.19530050E-20      0.34296332E-14     -0.89654042E-27
    0.361102603861         0.43388818E-06      0.73090467E-08      0.10463090E-20      0.34200345E-14      0.48958680E-27
    0.364242626503         0.44607547E-06      0.71168379E-08     -0.33441655E-20      0.33941200E-14     -0.15948795E-26
    0.367382649145         0.45853638E-06      0.69552916E-08      0.37045335E-21      0.33805942E-14      0.18005750E-27
    0.370522671788         0.47127541E-06      0.67827512E-08      0.25958058E-20      0.33596066E-14      0.12857447E-26
    0.373662694430         0.48429711E-06      0.66210976E-08     -0.57432640E-20      0.33418324E-14     -0.28987680E-26
    0.376802717072         0.49760605E-06      0.64672105E-08      0.27213881E-20      0.33259152E-14      0.13995379E-26
    0.379942739715         0.51120685E-06      0.63056433E-08      0.24610334E-20      0.33039271E-14      0.12894918E-26
    0.383082762357         0.52510413E-06      0.61683922E-08     -0.15707507E-20      0.32926635E-14     -0.83846053E-27
    0.386222784999         0.53930256E-06      0.60079134E-08     -0.61528620E-21      0.32669373E-14     -0.33457563E-27
    0.389362807641         0.55380682E-06      0.58850547E-08      0.14299069E-20      0.32596944E-14      0.79201635E-27
    0.392502830284         0.56862162E-06      0.57272584E-08      0.13357167E-20      0.32310962E-14      0.75355938E-27
    0.395642852926         0.58375171E-06      0.56161706E-08      0.24424687E-20      0.32269161E-14      0.14033836E-26
    0.398782875568         0.59920184E-06      0.54628945E-08      0.13975358E-20      0.31965536E-14      0.81775294E-27
    0.401922898210         0.61497679E-06      0.53608914E-08      0.17078575E-20      0.31942988E-14      0.10176306E-26
    0.405062920853         0.63108138E-06      0.52138424E-08      0.40111618E-21      0.31633214E-14      0.24336359E-27
    0.408202943495         0.64752043E-06      0.51183338E-08      0.24453497E-20      0.31617570E-14      0.15105700E-26
    0.411342966137         0.66429877E-06      0.49791827E-08      0.70855060E-21      0.31314103E-14      0.44560780E-27
    0.414482988779         0.68142128E-06      0.48878927E-08      0.49717863E-21      0.31293431E-14      0.31830538E-27
    0.417623011422         0.69889282E-06      0.47578934E-08      0.17519948E-20      0.31007261E-14      0.11417776E-26
    0.420763034064         0.71671828E-06      0.46688665E-08      0.20254126E-20      0.30970264E-14      0.13435287E-26
    0.423903056706         0.73490258E-06      0.45490281E-08      0.37712117E-21      0.30711737E-14      0.25460486E-27
    0.427043079349         0.75345064E-06      0.44609577E-08      0.12392734E-20      0.30650232E-14      0.85147674E-27
    0.430183101991         0.77236737E-06      0.43513054E-08      0.20278976E-20      0.30423746E-14      0.14178789E-26
    0.433323124633         0.79165771E-06      0.42630034E-08      0.90214551E-21      0.30329399E-14      0.64183695E-27
    0.436463147275         0.81132662E-06      0.41645250E-08     -0.12607129E-20      0.30146449E-14     -0.91261346E-27
    0.439603169918         0.83137904E-06      0.40761250E-08      0.76585346E-22      0.30019834E-14      0.56403555E-28
    0.442743192560         0.85181993E-06      0.39878313E-08      0.84309970E-21      0.29878255E-14      0.63168037E-27
    0.445883215202         0.87265424E-06      0.38991810E-08      0.15275885E-20      0.29717825E-14      0.11642601E-26
    0.449023237844         0.89388696E-06      0.38203986E-08      0.14754759E-22      0.29617269E-14      0.11438483E-28
    0.452163260487         0.91552302E-06      0.37315903E-08      0.28637191E-20      0.29423240E-14      0.22580157E-26
    0.455303283129         0.93756741E-06      0.36606885E-08      0.27709231E-20      0.29355335E-14      0.22220240E-26
    0.458443305771         0.96002506E-06      0.35717916E-08     -0.11008375E-20      0.29127660E-14     -0.89772371E-27
    0.461583328413         0.98290095E-06      0.35075285E-08      0.11325246E-20      0.29085959E-14      0.93913891E-27
    0.464723351056         0.10062000E-05      0.34200128E-08      0.25486788E-20      0.28836338E-14      0.21489557E-26
    0.467863373698         0.10299272E-05      0.33617428E-08     -0.83877811E-21      0.28818708E-14     -0.71904672E-27
    0.471003396340         0.10540874E-05      0.32769963E-08      0.10173997E-20      0.28559532E-14      0.88667966E-27
    0.474143418983         0.10786856E-05      0.32233760E-08      0.13488682E-20      0.28557400E-14      0.11950257E-26
    0.477283441625         0.11037267E-05      0.31420554E-08     -0.68359057E-21      0.28295772E-14     -0.61560733E-27
    0.480423464267         0.11292155E-05      0.30916709E-08      0.30888247E-20      0.28298826E-14      0.28272775E-26
    0.483563486909         0.11551570E-05      0.30146425E-08      0.65464776E-21      0.28044382E-14      0.60900062E-27
    0.486703509552         0.11815559E-05      0.29665121E-08     -0.11754983E-21      0.28045196E-14     -0.11113078E-27
    0.489843532194         0.12084172E-05      0.28944437E-08      0.17697667E-20      0.27806555E-14      0.17001925E-26
    0.492983554836         0.12357457E-05      0.28472848E-08      0.20445689E-20      0.27793941E-14      0.19958181E-26
    0.496123577478         0.12635461E-05      0.27806925E-08      0.78434774E-21      0.27578886E-14      0.77791546E-27
    0.499263600121         0.12918231E-05      0.27340000E-08     -0.21862404E-21      0.27548263E-14     -0.22028941E-27
    0.502403622763         0.13205817E-05      0.26729857E-08     -0.11576345E-20      0.27360982E-14     -0.11849677E-26
    0.505543645405         0.13498263E-05      0.26259657E-08     -0.72292724E-21      0.27304286E-14     -0.75168584E-27
    0.508683668048         0.13795618E-05      0.25706318E-08      0.53910247E-21      0.27149121E-14      0.56936036E-27
