
 # Omega; pulse ft; projected flux at t=    1000.0500000000001     
    0.000000000000         0.18717486E-09      0.00000000E+00      0.00000000E+00      0.53472251E-14      0.60584518E-27
    0.003140022642         0.20186436E-09      0.21130708E-06     -0.18438077E-19      0.52900950E-14     -0.46159919E-27
    0.006280045285         0.24594737E-09      0.34212555E-06     -0.99167273E-19      0.52178004E-14     -0.15124128E-26
    0.009420067927         0.31946741E-09      0.38676795E-06      0.14337584E-18      0.51079373E-14      0.18935250E-26
    0.012560090569         0.42249703E-09      0.37620442E-06     -0.34595006E-19      0.49280751E-14     -0.45317594E-27
    0.015700113211         0.55513782E-09      0.35338344E-06     -0.50112757E-19      0.48659403E-14     -0.69003142E-27
    0.018840135854         0.71752051E-09      0.33560652E-06      0.75398072E-19      0.49774079E-14      0.11182350E-26
    0.021980158496         0.90980495E-09      0.30487789E-06     -0.77285187E-19      0.49143485E-14     -0.12457654E-26
    0.025120181138         0.11321802E-08      0.27923445E-06      0.17985879E-19      0.49009959E-14      0.31567995E-27
    0.028260203780         0.13848647E-08      0.27410313E-06      0.53302323E-19      0.52308056E-14      0.10171868E-26
    0.031400226423         0.16681061E-08      0.26743656E-06     -0.21388350E-19      0.55326627E-14     -0.44247701E-27
    0.034540249065         0.19821816E-08      0.25794349E-06     -0.42548840E-19      0.57645456E-14     -0.95088554E-27
    0.037680271707         0.23273981E-08      0.26406865E-06     -0.21298970E-19      0.63517885E-14     -0.51231585E-27
    0.040820294349         0.27040919E-08      0.28955597E-06     -0.15186525E-18      0.74696524E-14     -0.39176558E-26
    0.043960316992         0.31126296E-08      0.31158122E-06      0.24167931E-19      0.85913309E-14      0.66639025E-27
    0.047100339634         0.35534072E-08      0.33117576E-06      0.13349202E-18      0.97297577E-14      0.39219206E-26
    0.050240362276         0.40268513E-08      0.36307886E-06      0.19934458E-20      0.11332777E-13      0.62221404E-28
    0.053380384919         0.45334185E-08      0.39840303E-06      0.60433273E-19      0.13176173E-13      0.19986777E-26
    0.056520407561         0.50735959E-08      0.43587964E-06      0.83283672E-19      0.15237009E-13      0.29113405E-26
    0.059660430203         0.56479014E-08      0.45996367E-06      0.33389211E-19      0.16956913E-13      0.12309188E-26
    0.062800452845         0.62568834E-08      0.46965338E-06      0.57326404E-19      0.18221968E-13      0.22241933E-26
    0.065940475488         0.69011217E-08      0.45140096E-06     -0.27163393E-19      0.18397238E-13     -0.11070677E-26
    0.069080498130         0.75812269E-08      0.41978315E-06      0.10048287E-19      0.17940378E-13      0.42943616E-27
    0.072220520772         0.82978416E-08      0.37964844E-06      0.11966943E-19      0.16986687E-13      0.53543934E-27
    0.075360543414         0.90516395E-08      0.33944697E-06     -0.14088869E-19      0.15877339E-13     -0.65899468E-27
    0.078500566057         0.98433265E-08      0.30345710E-06      0.44325467E-19      0.14817978E-13      0.21644371E-26
    0.081640588699         0.10673641E-07      0.27330651E-06      0.74250533E-19      0.13914864E-13      0.37803201E-26
    0.084780611341         0.11543353E-07      0.24978212E-06      0.41526158E-19      0.13244004E-13      0.22018094E-26
    0.087920633984         0.12453265E-07      0.22799665E-06      0.13162860E-19      0.12576026E-13      0.72604786E-27
    0.091060656626         0.13404215E-07      0.19451146E-06      0.32695718E-19      0.11150089E-13      0.18742349E-26
    0.094200679268         0.14397070E-07      0.19024600E-06     -0.39766306E-19      0.11322912E-13     -0.23667799E-26
    0.097340701910         0.15432734E-07      0.19719033E-06      0.18141768E-19      0.12174652E-13      0.11200839E-26
    0.100480724553         0.16512144E-07      0.16430548E-06      0.11635296E-18      0.10514661E-13      0.74459595E-26
    0.103620747195         0.17636269E-07      0.16126502E-06     -0.73073473E-19      0.10688646E-13     -0.48433101E-26
    0.106760769837         0.18806114E-07      0.20150285E-06      0.29417941E-19      0.13822644E-13      0.20180048E-26
    0.109900792479         0.20022721E-07      0.24285739E-06      0.59084992E-19      0.17230430E-13      0.41920069E-26
    0.113040815122         0.21287162E-07      0.23361241E-06     -0.22770102E-19      0.17131718E-13     -0.16698213E-26
    0.116180837764         0.22600547E-07      0.20097153E-06     -0.88467221E-19      0.15224447E-13     -0.67017678E-26
    0.119320860406         0.23964023E-07      0.19238887E-06     -0.12448083E-18      0.15046859E-13     -0.97357269E-26
    0.122460883048         0.25378770E-07      0.18112732E-06      0.16463086E-19      0.14617722E-13      0.13286390E-26
    0.125600905691         0.26846007E-07      0.17319867E-06      0.61773943E-19      0.14416307E-13      0.51417954E-26
    0.128740928333         0.28366986E-07      0.16856159E-06     -0.42807278E-19      0.14463644E-13     -0.36731336E-26
    0.131880950975         0.29943001E-07      0.16510980E-06     -0.48141150E-19      0.14598514E-13     -0.42564962E-26
    0.135020973618         0.31575378E-07      0.16656337E-06     -0.48131777E-19      0.15168735E-13     -0.43833056E-26
    0.138160996260         0.33265483E-07      0.16385275E-06      0.23029472E-19      0.15363305E-13      0.21593095E-26
    0.141301018902         0.35014721E-07      0.15729345E-06     -0.31168137E-19      0.15178839E-13     -0.30077294E-26
    0.144441041544         0.36824533E-07      0.14228967E-06     -0.65857796E-19      0.14126760E-13     -0.65384736E-26
    0.147581064187         0.38696400E-07      0.13010350E-06      0.60455551E-19      0.13284691E-13      0.61730338E-26
    0.150721086829         0.40631842E-07      0.12015245E-06     -0.52721827E-19      0.12613850E-13     -0.55348453E-26
    0.153861109471         0.42632417E-07      0.11350657E-06     -0.28121115E-19      0.12247703E-13     -0.30343535E-26
    0.157001132113         0.44699723E-07      0.10761207E-06     -0.17065364E-19      0.11931240E-13     -0.18920829E-26
    0.160141154756         0.46835399E-07      0.10282771E-06     -0.34077814E-20      0.11711269E-13     -0.38811957E-27
    0.163281177398         0.49041122E-07      0.98615436E-07      0.29927298E-19      0.11534313E-13      0.35003731E-26
    0.166421200040         0.51318613E-07      0.94410102E-07      0.47669306E-19      0.11337238E-13      0.57243692E-26
    0.169561222683         0.53669630E-07      0.91104665E-07     -0.28402929E-19      0.11229624E-13     -0.35009647E-26
    0.172701245325         0.56095974E-07      0.87199940E-07     -0.18771897E-20      0.11029986E-13     -0.23744713E-27
    0.175841267967         0.58599489E-07      0.84448838E-07      0.54981102E-20      0.10959462E-13      0.71352469E-27
    0.178981290609         0.61182058E-07      0.80832910E-07      0.29392946E-20      0.10760370E-13      0.39127501E-27
    0.182121313252         0.63845608E-07      0.78415266E-07      0.30111245E-19      0.10705166E-13      0.41107542E-26
    0.185261335894         0.66592107E-07      0.75131897E-07      0.11707953E-19      0.10516830E-13      0.16388585E-26
    0.188401358536         0.69423567E-07      0.72896668E-07      0.57846080E-20      0.10460516E-13      0.83007889E-27
    0.191541381178         0.72342043E-07      0.69982223E-07      0.41822031E-20      0.10292916E-13      0.61511429E-27
    0.194681403821         0.75349631E-07      0.67834577E-07     -0.51697348E-20      0.10224223E-13     -0.77919736E-27
    0.197821426463         0.78448474E-07      0.65298774E-07     -0.10593101E-19      0.10084137E-13     -0.16359003E-26
    0.200961449105         0.81640757E-07      0.63191222E-07     -0.16501111E-19      0.99970891E-14     -0.26105380E-26
    0.204101471747         0.84928709E-07      0.61013902E-07     -0.12508871E-19      0.98868905E-14     -0.20269781E-26
    0.207241494390         0.88314602E-07      0.58936233E-07     -0.95963180E-20      0.97804923E-14     -0.15925130E-26
    0.210381517032         0.91800755E-07      0.57073348E-07     -0.18174856E-20      0.96982765E-14     -0.30883904E-27
    0.213521539674         0.95389531E-07      0.55041179E-07     -0.17566227E-19      0.95756727E-14     -0.30560471E-26
    0.216661562317         0.99083337E-07      0.53434110E-07      0.30519566E-20      0.95161192E-14      0.54352516E-27
    0.219801584959         0.10288463E-06      0.51477283E-07     -0.48773300E-20      0.93833480E-14     -0.88904624E-27
    0.222941607601         0.10679590E-06      0.50062838E-07     -0.34739377E-20      0.93390230E-14     -0.64804923E-27
    0.226081630243         0.11081969E-06      0.48215253E-07     -0.90401221E-21      0.92036194E-14     -0.17256332E-27
    0.229221652886         0.11495860E-06      0.46933943E-07     -0.11503554E-19      0.91663284E-14     -0.22466759E-26
    0.232361675528         0.11921526E-06      0.45225572E-07      0.56480484E-20      0.90359528E-14      0.11284655E-26
    0.235501698170         0.12359235E-06      0.44027658E-07     -0.38329187E-20      0.89979932E-14     -0.78333888E-27
    0.238641720812         0.12809259E-06      0.42479428E-07     -0.51439425E-20      0.88793024E-14     -0.10752174E-26
    0.241781743455         0.13271877E-06      0.41328300E-07      0.14000313E-19      0.88344380E-14      0.29927411E-26
    0.244921766097         0.13747370E-06      0.39949594E-07      0.13131310E-19      0.87322698E-14      0.28702704E-26
    0.248061788739         0.14236024E-06      0.38822734E-07      0.14545388E-19      0.86763588E-14      0.32506986E-26
    0.251201811381         0.14738131E-06      0.37611181E-07      0.55113646E-20      0.85932840E-14      0.12592192E-26
    0.254341834024         0.15253987E-06      0.36499192E-07      0.82253778E-20      0.85245485E-14      0.19210735E-26
    0.257481856666         0.15783893E-06      0.35442325E-07      0.11000798E-19      0.84608159E-14      0.26261180E-26
    0.260621879308         0.16328153E-06      0.34346707E-07      0.52808565E-20      0.83798036E-14      0.12884071E-26
    0.263761901951         0.16887077E-06      0.33424521E-07     -0.50544782E-21      0.83335521E-14     -0.12602053E-27
    0.266901924593         0.17460981E-06      0.32354118E-07      0.11175008E-19      0.82426913E-14      0.28469990E-26
    0.270041947235         0.18050182E-06      0.31541869E-07     -0.36215580E-21      0.82103245E-14     -0.94268878E-28
    0.273181969877         0.18655005E-06      0.30509590E-07     -0.60626476E-20      0.81133881E-14     -0.16122345E-26
    0.276321992520         0.19275778E-06      0.29781173E-07     -0.42832502E-22      0.80902287E-14     -0.11635698E-28
    0.279462015162         0.19912834E-06      0.28801119E-07     -0.93248412E-20      0.79917557E-14     -0.25874638E-26
    0.282602037804         0.20566511E-06      0.28131760E-07      0.18155435E-20      0.79726881E-14      0.51453453E-27
    0.285742060446         0.21237151E-06      0.27216631E-07      0.18881320E-20      0.78773290E-14      0.54648339E-27
    0.288882083089         0.21925100E-06      0.26584874E-07     -0.24875558E-20      0.78573865E-14     -0.73521836E-27
    0.292022105731         0.22630710E-06      0.25744073E-07     -0.15722843E-20      0.77693064E-14     -0.47449983E-27
    0.295162128373         0.23354337E-06      0.25133093E-07     -0.14223096E-19      0.77441789E-14     -0.43825168E-26
    0.298302151016         0.24096340E-06      0.24371927E-07     -0.85821266E-20      0.76666762E-14     -0.26996792E-26
    0.301442173658         0.24857086E-06      0.23770409E-07     -0.35110732E-20      0.76331781E-14     -0.11274794E-26
    0.304582196300         0.25636942E-06      0.23090272E-07     -0.74347990E-20      0.75685608E-14     -0.24369886E-26
    0.307722218942         0.26436283E-06      0.22494876E-07      0.11617077E-19      0.75257137E-14      0.38865205E-26
    0.310862241585         0.27255487E-06      0.21895324E-07     -0.32883127E-20      0.74758383E-14     -0.11227463E-26
    0.314002264227         0.28094936E-06      0.21306162E-07     -0.57386428E-19      0.74237447E-14     -0.19995257E-25
    0.317142286869         0.28955016E-06      0.20779028E-07     -0.13219308E-19      0.73878389E-14     -0.47000333E-26
    0.320282309511         0.29836118E-06      0.20197495E-07     -0.77560605E-20      0.73270544E-14     -0.28136696E-26
    0.323422332154         0.30738639E-06      0.19730941E-07     -0.99535991E-21      0.73027254E-14     -0.36839804E-27
    0.326562354796         0.31662976E-06      0.19160216E-07     -0.10317805E-19      0.72345005E-14     -0.38957896E-26
    0.329702377438         0.32609534E-06      0.18742274E-07      0.46210706E-20      0.72188385E-14      0.17798674E-26
    0.332842400080         0.33578719E-06      0.18188439E-07     -0.19421875E-20      0.71456782E-14     -0.76302571E-27
    0.335982422723         0.34570944E-06      0.17807939E-07     -0.24211769E-19      0.71356062E-14     -0.97016086E-26
    0.339122445365         0.35586624E-06      0.17278374E-07      0.10956959E-19      0.70608284E-14      0.44775745E-26
    0.342262468007         0.36626178E-06      0.16924246E-07     -0.30515279E-19      0.70528428E-14     -0.12716635E-25
    0.345402490650         0.37690029E-06      0.16425068E-07      0.79835461E-20      0.69796031E-14      0.33924963E-26
    0.348542513292         0.38778604E-06      0.16088190E-07      0.36746538E-20      0.69705355E-14      0.15921185E-26
    0.351682535934         0.39892335E-06      0.15624826E-07     -0.14192855E-19      0.69020226E-14     -0.62694720E-26
    0.354822558576         0.41031655E-06      0.15297534E-07      0.24397383E-20      0.68889301E-14      0.10986860E-26
    0.357962581219         0.42197002E-06      0.14873230E-07      0.94260632E-20      0.68276588E-14      0.43270993E-26
    0.361102603861         0.43388818E-06      0.14550268E-07     -0.35163568E-20      0.68083321E-14     -0.16453666E-26
    0.364242626503         0.44607547E-06      0.14166820E-07      0.12127821E-19      0.67563555E-14      0.57839282E-26
    0.367382649145         0.45853638E-06      0.13844670E-07     -0.29895950E-20      0.67291515E-14     -0.14530818E-26
    0.370522671788         0.47127541E-06      0.13500549E-07     -0.51016274E-20      0.66870407E-14     -0.25269187E-26
    0.373662694430         0.48429711E-06      0.13178102E-07      0.83027940E-20      0.66513155E-14      0.41906263E-26
    0.376802717072         0.49760605E-06      0.12871279E-07     -0.17459987E-20      0.66193583E-14     -0.89792093E-27
    0.379942739715         0.51120685E-06      0.12548934E-07      0.52984580E-20      0.65751836E-14      0.27761987E-26
    0.383082762357         0.52510413E-06      0.12275366E-07      0.14179059E-19      0.65525420E-14      0.75687260E-26
    0.386222784999         0.53930256E-06      0.11955137E-07      0.95928794E-21      0.65008732E-14      0.52163427E-27
    0.389362807641         0.55380682E-06      0.11710329E-07     -0.37876867E-20      0.64862765E-14     -0.20979756E-26
    0.392502830284         0.56862162E-06      0.11395417E-07      0.12254615E-19      0.64288510E-14      0.69135770E-26
    0.395642852926         0.58375171E-06      0.11174117E-07      0.10877155E-20      0.64203779E-14      0.62497505E-27
    0.398782875568         0.59920184E-06      0.10868211E-07     -0.15321832E-20      0.63594161E-14     -0.89654042E-27
    0.401922898210         0.61497679E-06      0.10665039E-07      0.68062754E-20      0.63547864E-14      0.40555339E-26
    0.405062920853         0.63108138E-06      0.10371562E-07     -0.64880705E-21      0.62925925E-14     -0.39364159E-27
    0.408202943495         0.64752043E-06      0.10181331E-07     -0.22255412E-20      0.62893309E-14     -0.13747873E-26
    0.411342966137         0.66429877E-06      0.99036343E-08      0.73943895E-21      0.62284002E-14      0.46503350E-27
    0.414482988779         0.68142128E-06      0.97217881E-08      0.46615887E-20      0.62241159E-14      0.29844580E-26
    0.417623011422         0.69889282E-06      0.94623851E-08     -0.36613498E-20      0.61666503E-14     -0.23861070E-26
    0.420763034064         0.71671828E-06      0.92850111E-08      0.88181634E-21      0.61590805E-14      0.58494036E-27
    0.423903056706         0.73490258E-06      0.90459247E-08      0.72035694E-21      0.61071521E-14      0.48633275E-27
    0.427043079349         0.75345064E-06      0.88704122E-08     -0.60733725E-20      0.60946597E-14     -0.41728770E-26
    0.430183101991         0.77236737E-06      0.86516815E-08      0.19851649E-20      0.60491400E-14      0.13880008E-26
    0.433323124633         0.79165771E-06      0.84756341E-08      0.13225184E-20      0.60300418E-14      0.94091384E-27
    0.436463147275         0.81132662E-06      0.82792611E-08     -0.47238250E-20      0.59932482E-14     -0.34195148E-26
    0.439603169918         0.83137904E-06      0.81029873E-08     -0.58751136E-21      0.59676859E-14     -0.43269021E-27
    0.442743192560         0.85181993E-06      0.79269732E-08      0.19578444E-20      0.59391711E-14      0.14668869E-26
    0.445883215202         0.87265424E-06      0.77501517E-08     -0.27480291E-20      0.59068213E-14     -0.20944257E-26
    0.449023237844         0.89388696E-06      0.75931483E-08     -0.22890227E-20      0.58865143E-14     -0.17745426E-26
    0.452163260487         0.91552302E-06      0.74159728E-08      0.10372368E-20      0.58474251E-14      0.81785154E-27
    0.455303283129         0.93756741E-06      0.72747155E-08      0.19231933E-21      0.58336488E-14      0.15422231E-27
    0.458443305771         0.96002506E-06      0.70973317E-08      0.32962248E-21      0.57878142E-14      0.26880435E-27
    0.461583328413         0.98290095E-06      0.69693322E-08      0.83001069E-22      0.57792749E-14      0.68828114E-28
    0.464723351056         0.10062000E-05      0.67946857E-08      0.15598714E-20      0.57290385E-14      0.13152283E-26
    0.467863373698         0.10299272E-05      0.66786490E-08     -0.17415113E-21      0.57253052E-14     -0.14929193E-27
    0.471003396340         0.10540874E-05      0.65095215E-08      0.50313312E-20      0.56731491E-14      0.43848833E-26
    0.474143418983         0.10786856E-05      0.64027551E-08     -0.61928401E-21      0.56725012E-14     -0.54865276E-27
    0.477283441625         0.11037267E-05      0.62404646E-08     -0.18914534E-20      0.56198489E-14     -0.17033479E-26
    0.480423464267         0.11292155E-05      0.61401397E-08      0.29487762E-20      0.56202214E-14      0.26990876E-26
    0.483563486909         0.11551570E-05      0.59864236E-08      0.11235859E-20      0.55690036E-14      0.10452407E-26
    0.486703509552         0.11815559E-05      0.58905747E-08      0.83192320E-21      0.55689077E-14      0.78649432E-27
    0.489843532194         0.12084172E-05      0.57467713E-08      0.49613410E-20      0.55208506E-14      0.47662976E-26
    0.492983554836         0.12357457E-05      0.56528315E-08      0.31355443E-20      0.55180452E-14      0.30607803E-26
    0.496123577478         0.12635461E-05      0.55199748E-08      0.40186761E-20      0.54747066E-14      0.39857197E-26
    0.499263600121         0.12918231E-05      0.54269348E-08      0.60457278E-20      0.54682744E-14      0.60917811E-26
    0.502403622763         0.13205817E-05      0.53052288E-08     -0.54555345E-20      0.54304918E-14     -0.55843463E-26
    0.505543645405         0.13498263E-05      0.52115010E-08      0.35777454E-20      0.54188184E-14      0.37200708E-26
    0.508683668048         0.13795618E-05      0.51011505E-08      0.39992926E-20      0.53874598E-14      0.42237585E-26
