
 # six columns.
 # Omega (column 1); |pulse ft|^2 (2); cross section (Mb) (3); flux (column 5)

  0.0000      0.108475E-10      0.000000E+00     -0.000000E+00      0.561793E-08     -0.423516E-21
  0.0031      0.110936E-10      0.205068E+01     -0.221178E-12      0.564276E-08     -0.608606E-21
  0.0063      0.118306E-10      0.386293E+01     -0.155197E-11      0.566780E-08     -0.227709E-20
  0.0094      0.130543E-10      0.527466E+01     -0.146381E-11      0.569305E-08     -0.157992E-20
  0.0126      0.147574E-10      0.624905E+01     -0.218081E-11      0.571851E-08     -0.199566E-20
  0.0157      0.169301E-10      0.683941E+01     -0.277041E-11      0.574418E-08     -0.232678E-20
  0.0188      0.195599E-10      0.713588E+01     -0.450414E-12      0.577007E-08     -0.364205E-21
  0.0220      0.226312E-10      0.722791E+01     -0.615083E-12      0.579618E-08     -0.493245E-21
  0.0251      0.261262E-10      0.718794E+01     -0.937762E-12      0.582251E-08     -0.759623E-21
  0.0283      0.300242E-10      0.706868E+01     -0.943882E-12      0.584906E-08     -0.781027E-21
  0.0314      0.343021E-10      0.690605E+01     -0.224312E-11      0.587584E-08     -0.190850E-20
  0.0345      0.389344E-10      0.672359E+01     -0.359379E-11      0.590285E-08     -0.315510E-20
  0.0377      0.438933E-10      0.653619E+01      0.281694E-12      0.593009E-08      0.255573E-21
  0.0408      0.491488E-10      0.635301E+01     -0.178498E-11      0.595757E-08     -0.167388E-20
  0.0440      0.546688E-10      0.617950E+01     -0.185096E-11      0.598528E-08     -0.179278E-20
  0.0471      0.604192E-10      0.601873E+01      0.986382E-12      0.601324E-08      0.985482E-21
  0.0502      0.663643E-10      0.587227E+01     -0.786858E-12      0.604144E-08     -0.809525E-21
  0.0534      0.724664E-10      0.574081E+01     -0.878074E-12      0.606988E-08     -0.928407E-21
  0.0565      0.786866E-10      0.562446E+01     -0.780490E-12      0.609858E-08     -0.846283E-21
  0.0597      0.849847E-10      0.552304E+01      0.135295E-11      0.612753E-08      0.150102E-20
  0.0628      0.913192E-10      0.543623E+01     -0.985121E-12      0.615673E-08     -0.111569E-20
  0.0659      0.976478E-10      0.536364E+01     -0.993494E-12      0.618618E-08     -0.114585E-20
  0.0691      0.103927E-09      0.530488E+01     -0.580246E-12      0.621589E-08     -0.679891E-21
  0.0722      0.110114E-09      0.525964E+01     -0.181019E-11      0.624585E-08     -0.214961E-20
  0.0754      0.116165E-09      0.522764E+01     -0.433594E-12      0.627608E-08     -0.520555E-21
  0.0785      0.122035E-09      0.520872E+01     -0.429210E-12      0.630658E-08     -0.519676E-21
  0.0816      0.127680E-09      0.520280E+01     -0.342806E-11      0.633735E-08     -0.417561E-20
  0.0848      0.133058E-09      0.520993E+01     -0.617413E-12      0.636840E-08     -0.754699E-21
  0.0879      0.138126E-09      0.523028E+01     -0.151366E-11      0.639973E-08     -0.185211E-20
  0.0911      0.142842E-09      0.526412E+01     -0.219150E-11      0.643135E-08     -0.267743E-20
  0.0942      0.147165E-09      0.531189E+01     -0.908674E-12      0.646325E-08     -0.110563E-20
  0.0973      0.151056E-09      0.537419E+01     -0.591570E-12      0.649545E-08     -0.714994E-21
  0.1005      0.154479E-09      0.545177E+01     -0.246168E-11      0.652793E-08     -0.294761E-20
  0.1036      0.157398E-09      0.554559E+01     -0.179797E-11      0.656072E-08     -0.212709E-20
  0.1068      0.159780E-09      0.565684E+01     -0.114181E-11      0.659381E-08     -0.133093E-20
  0.1099      0.161596E-09      0.578693E+01     -0.605333E-12      0.662721E-08     -0.693229E-21
  0.1130      0.162819E-09      0.593761E+01     -0.586292E-12      0.666091E-08     -0.657712E-21
  0.1162      0.163425E-09      0.611096E+01     -0.179791E-13      0.669493E-08     -0.196972E-22
  0.1193      0.163395E-09      0.630947E+01     -0.166958E-11      0.672927E-08     -0.178066E-20
  0.1225      0.162713E-09      0.653614E+01     -0.781939E-12      0.676393E-08     -0.809189E-21
  0.1256      0.161368E-09      0.679458E+01     -0.948377E-12      0.679893E-08     -0.948983E-21
  0.1287      0.159354E-09      0.708914E+01     -0.375784E-11      0.683427E-08     -0.362274E-20
  0.1319      0.156669E-09      0.742508E+01     -0.146284E-11      0.686998E-08     -0.135347E-20
  0.1350      0.153319E-09      0.780878E+01     -0.712704E-12      0.690605E-08     -0.630312E-21
  0.1382      0.149313E-09      0.824801E+01     -0.604186E-11      0.694245E-08     -0.508551E-20
  0.1413      0.144668E-09      0.875225E+01     -0.235632E-11      0.697908E-08     -0.187894E-20
  0.1444      0.139407E-09      0.933339E+01     -0.117235E-11      0.701596E-08     -0.881258E-21
  0.1476      0.133562E-09      0.100065E+02     -0.502682E-11      0.705320E-08     -0.354323E-20
  0.1507      0.127171E-09      0.107903E+02     -0.115096E-11      0.709085E-08     -0.756353E-21
  0.1539      0.120279E-09      0.117087E+02     -0.142771E-11      0.712889E-08     -0.869263E-21
  0.1570      0.112941E-09      0.127925E+02     -0.837313E-11      0.716733E-08     -0.469125E-20
  0.1601      0.105220E-09      0.140817E+02     -0.822348E-12      0.720615E-08     -0.420828E-21
  0.1633      0.971899E-10      0.156287E+02     -0.388527E-12      0.724535E-08     -0.180119E-21
  0.1664      0.889316E-10      0.175036E+02     -0.666846E-11      0.728494E-08     -0.277540E-20
  0.1696      0.805378E-10      0.198006E+02     -0.391666E-11      0.732492E-08     -0.144891E-20
  0.1727      0.721113E-10      0.226480E+02     -0.936439E-11      0.736530E-08     -0.304537E-20
  0.1758      0.637661E-10      0.262221E+02     -0.167314E-10      0.740609E-08     -0.472558E-20
  0.1790      0.556275E-10      0.307654E+02      0.373752E-12      0.744727E-08      0.904729E-22
  0.1821      0.478326E-10      0.366101E+02      0.385420E-11      0.748888E-08      0.788407E-21
  0.1853      0.405309E-10      0.441970E+02     -0.136861E-10      0.753089E-08     -0.233203E-20
  0.1884      0.338848E-10      0.540647E+02      0.427750E-11      0.757334E-08      0.599189E-21
  0.1915      0.280700E-10      0.667278E+02      0.211617E-10      0.761621E-08      0.241537E-20
  0.1947      0.232757E-10      0.822567E+02     -0.296244E-10      0.765952E-08     -0.275854E-20
  0.1978      0.197055E-10      0.992908E+02      0.167525E-11      0.770326E-08      0.129971E-21
  0.2010      0.175776E-10      0.113726E+03     -0.374135E-11      0.774746E-08     -0.254875E-21
  0.2041      0.171253E-10      0.119237E+03     -0.549408E-10      0.779211E-08     -0.359038E-20
  0.2072      0.185976E-10      0.112132E+03     -0.182850E-11      0.783722E-08     -0.127799E-21
  0.2104      0.222596E-10      0.956574E+02      0.101884E-11      0.788280E-08      0.839588E-22
  0.2135      0.283927E-10      0.765584E+02     -0.160199E-10      0.792885E-08     -0.165912E-20
  0.2167      0.372956E-10      0.594873E+02     -0.544950E-11      0.797538E-08     -0.730607E-21
  0.2198      0.492843E-10      0.459383E+02     -0.911921E-11      0.802240E-08     -0.159253E-20
  0.2229      0.646929E-10      0.357068E+02     -0.121220E-10      0.806992E-08     -0.273962E-20
  0.2261      0.838739E-10      0.280952E+02     -0.277187E-11      0.811794E-08     -0.800918E-21
  0.2292      0.107199E-09      0.224206E+02     -0.414738E-11      0.816646E-08     -0.151064E-20
  0.2324      0.135058E-09      0.181478E+02     -0.526103E-11      0.821551E-08     -0.238166E-20
  0.2355      0.167863E-09      0.148879E+02     -0.250916E-11      0.826507E-08     -0.139297E-20
  0.2386      0.206044E-09      0.123653E+02     -0.181868E-11      0.831517E-08     -0.122299E-20
  0.2418      0.250053E-09      0.103860E+02     -0.258246E-11      0.836581E-08     -0.208015E-20
  0.2449      0.300363E-09      0.881221E+01     -0.129990E-11      0.841700E-08     -0.124160E-20
  0.2481      0.357470E-09      0.754549E+01     -0.149390E-11      0.846874E-08     -0.167670E-20
  0.2512      0.421889E-09      0.651427E+01     -0.233140E-11      0.852105E-08     -0.304961E-20
  0.2543      0.494160E-09      0.566601E+01     -0.144585E-12      0.857394E-08     -0.218789E-21
  0.2575      0.574847E-09      0.496160E+01     -0.104620E-11      0.862740E-08     -0.181918E-20
  0.2606      0.664536E-09      0.437152E+01     -0.102392E-11      0.868146E-08     -0.203342E-20
  0.2638      0.763836E-09      0.387327E+01      0.286792E-12      0.873612E-08      0.646855E-21
  0.2669      0.873383E-09      0.344946E+01     -0.174126E-12      0.879139E-08     -0.443782E-21
  0.2700      0.993837E-09      0.308655E+01     -0.320034E-12      0.884727E-08     -0.917343E-21
  0.2732      0.112588E-08      0.277384E+01     -0.104173E-12      0.890379E-08     -0.334388E-21
  0.2763      0.127023E-08      0.250285E+01     -0.374857E-13      0.896095E-08     -0.134210E-21
  0.2795      0.142761E-08      0.226676E+01     -0.465390E-12      0.901875E-08     -0.185164E-20
  0.2826      0.159880E-08      0.206006E+01     -0.248551E-12      0.907721E-08     -0.109519E-20
  0.2857      0.178459E-08      0.187827E+01     -0.278930E-12      0.913635E-08     -0.135678E-20
  0.2889      0.198578E-08      0.171769E+01     -0.605421E-12      0.919616E-08     -0.324131E-20
  0.2920      0.220323E-08      0.157528E+01     -0.609877E-13      0.925667E-08     -0.358376E-21
  0.2952      0.243781E-08      0.144852E+01     -0.167746E-12      0.931788E-08     -0.107906E-20
  0.2983      0.269043E-08      0.133529E+01     -0.555749E-12      0.937980E-08     -0.390388E-20
  0.3014      0.296201E-08      0.123381E+01     -0.733085E-13      0.944245E-08     -0.561035E-21
  0.3046      0.325353E-08      0.114258E+01     -0.211155E-12      0.950584E-08     -0.175672E-20
  0.3077      0.356596E-08      0.106033E+01     -0.399409E-12      0.956998E-08     -0.360485E-20
  0.3109      0.390033E-08      0.985963E+00     -0.833355E-13      0.963488E-08     -0.814359E-21
  0.3140      0.425769E-08      0.918549E+00     -0.812829E-13      0.970055E-08     -0.858407E-21
  0.3171      0.463913E-08      0.857288E+00     -0.402394E-12      0.976702E-08     -0.458444E-20
  0.3203      0.504576E-08      0.801487E+00     -0.218322E-12      0.983429E-08     -0.267882E-20
  0.3234      0.547872E-08      0.750546E+00     -0.223307E-12      0.990237E-08     -0.294621E-20
  0.3266      0.593919E-08      0.703942E+00     -0.218636E-12      0.997128E-08     -0.309696E-20
  0.3297      0.642839E-08      0.661220E+00     -0.392193E-14      0.100410E-07     -0.595570E-22
  0.3328      0.694755E-08      0.621980E+00      0.173122E-13      0.101116E-07      0.281448E-21
  0.3360      0.749794E-08      0.585873E+00     -0.167174E-12      0.101831E-07     -0.290568E-20
  0.3391      0.808089E-08      0.552589E+00     -0.470551E-13      0.102555E-07     -0.873296E-21
  0.3423      0.869772E-08      0.521856E+00     -0.383867E-13      0.103288E-07     -0.759765E-21
  0.3454      0.934981E-08      0.493433E+00     -0.171524E-12      0.104030E-07     -0.361623E-20
  0.3485      0.100386E-07      0.467105E+00     -0.607239E-13      0.104781E-07     -0.136216E-20
  0.3517      0.107654E-07      0.442682E+00     -0.827735E-13      0.105542E-07     -0.197345E-20
  0.3548      0.115319E-07      0.419993E+00     -0.198479E-12      0.106313E-07     -0.502409E-20
  0.3580      0.123395E-07      0.398887E+00     -0.489567E-13      0.107093E-07     -0.131439E-20
  0.3611      0.131897E-07      0.379226E+00     -0.454612E-13      0.107884E-07     -0.129330E-20
  0.3642      0.140842E-07      0.360890E+00     -0.123175E-12      0.108684E-07     -0.370949E-20
  0.3674      0.150245E-07      0.343767E+00     -0.439668E-13      0.109496E-07     -0.140042E-20
  0.3705      0.160123E-07      0.327758E+00     -0.604445E-13      0.110317E-07     -0.203445E-20
  0.3737      0.170492E-07      0.312775E+00     -0.136984E-12      0.111150E-07     -0.486796E-20
  0.3768      0.181371E-07      0.298735E+00     -0.181921E-13      0.111994E-07     -0.682010E-21
  0.3799      0.192777E-07      0.285565E+00     -0.353960E-13      0.112848E-07     -0.139876E-20
  0.3831      0.204727E-07      0.273200E+00     -0.110226E-12      0.113715E-07     -0.458796E-20
  0.3862      0.217241E-07      0.261578E+00     -0.747249E-13      0.114593E-07     -0.327357E-20
  0.3894      0.230336E-07      0.250643E+00     -0.845594E-13      0.115482E-07     -0.389602E-20
  0.3925      0.244031E-07      0.240347E+00     -0.873501E-13      0.116384E-07     -0.422979E-20
  0.3956      0.258347E-07      0.230643E+00     -0.545683E-14      0.117298E-07     -0.277519E-21
  0.3988      0.273302E-07      0.221488E+00      0.173254E-13      0.118225E-07      0.924788E-21
  0.4019      0.288918E-07      0.212845E+00     -0.729940E-13      0.119165E-07     -0.408669E-20
  0.4051      0.305214E-07      0.204679E+00      0.400299E-14      0.120118E-07      0.234919E-21
  0.4082      0.322211E-07      0.196956E+00      0.158971E-13      0.121084E-07      0.977314E-21
  0.4113      0.339931E-07      0.189647E+00     -0.673623E-13      0.122063E-07     -0.433567E-20
  0.4145      0.358395E-07      0.182725E+00     -0.179818E-13      0.123057E-07     -0.121099E-20
  0.4176      0.377625E-07      0.176165E+00     -0.593148E-14      0.124064E-07     -0.417726E-21
  0.4208      0.397643E-07      0.169943E+00     -0.470932E-13      0.125087E-07     -0.346630E-20
  0.4239      0.418472E-07      0.164037E+00     -0.235609E-14      0.126123E-07     -0.181153E-21
  0.4270      0.440136E-07      0.158429E+00     -0.135300E-13      0.127175E-07     -0.108609E-20
  0.4302      0.462657E-07      0.153099E+00     -0.409175E-13      0.128242E-07     -0.342742E-20
  0.4333      0.486059E-07      0.148031E+00     -0.109927E-13      0.129325E-07     -0.960357E-21
  0.4365      0.510367E-07      0.143209E+00     -0.252861E-13      0.130424E-07     -0.230287E-20
  0.4396      0.535604E-07      0.138618E+00     -0.511729E-13      0.131539E-07     -0.485596E-20
  0.4427      0.561797E-07      0.134245E+00     -0.195479E-13      0.132671E-07     -0.193188E-20
  0.4459      0.588969E-07      0.130076E+00     -0.244629E-13      0.133820E-07     -0.251670E-20
  0.4490      0.617146E-07      0.126101E+00     -0.408118E-13      0.134987E-07     -0.436875E-20
  0.4522      0.646355E-07      0.122308E+00     -0.135221E-13      0.136171E-07     -0.150547E-20
  0.4553      0.676622E-07      0.118687E+00     -0.223976E-13      0.137373E-07     -0.259238E-20
  0.4584      0.707972E-07      0.115229E+00     -0.291356E-13      0.138594E-07     -0.350435E-20
  0.4616      0.740434E-07      0.111924E+00     -0.195347E-13      0.139834E-07     -0.244060E-20
  0.4647      0.774035E-07      0.108765E+00     -0.911839E-14      0.141093E-07     -0.118287E-20
  0.4679      0.808801E-07      0.105743E+00     -0.353075E-13      0.142372E-07     -0.475381E-20
  0.4710      0.844761E-07      0.102851E+00     -0.947453E-14      0.143672E-07     -0.132349E-20
  0.4741      0.881944E-07      0.100083E+00     -0.226705E-13      0.144992E-07     -0.328432E-20
  0.4773      0.920377E-07      0.974319E-01     -0.365095E-13      0.146333E-07     -0.548338E-20
  0.4804      0.960091E-07      0.948920E-01     -0.151994E-14      0.147697E-07     -0.236574E-21
  0.4836      0.100111E-06      0.924577E-01     -0.118298E-13      0.149082E-07     -0.190748E-20
  0.4867      0.104347E-06      0.901235E-01     -0.213752E-13      0.150490E-07     -0.356928E-20
  0.4898      0.108720E-06      0.878847E-01     -0.269403E-14      0.151922E-07     -0.465703E-21
  0.4930      0.113233E-06      0.857365E-01     -0.402739E-14      0.153377E-07     -0.720474E-21
  0.4961      0.117889E-06      0.836746E-01     -0.657024E-14      0.154857E-07     -0.121596E-20
  0.4993      0.122691E-06      0.816949E-01     -0.293018E-14      0.156362E-07     -0.560828E-21
  0.5024      0.127642E-06      0.797934E-01     -0.914649E-14      0.157892E-07     -0.180987E-20
  0.5055      0.132745E-06      0.779666E-01     -0.268124E-13      0.159449E-07     -0.548338E-20
  0.5087      0.138004E-06      0.762109E-01     -0.152597E-13      0.161032E-07     -0.322435E-20
  0.5118      0.143421E-06      0.745232E-01     -0.114310E-13      0.162644E-07     -0.249478E-20
  0.5150      0.149001E-06      0.729003E-01     -0.274524E-13      0.164283E-07     -0.618648E-20
  0.5181      0.154745E-06      0.713394E-01     -0.108455E-14      0.165952E-07     -0.252290E-21
  0.5212      0.160658E-06      0.698378E-01     -0.575100E-14      0.167650E-07     -0.138056E-20
  0.5244      0.166742E-06      0.683928E-01     -0.161524E-13      0.169379E-07     -0.400025E-20
  0.5275      0.173002E-06      0.670021E-01     -0.111047E-13      0.171139E-07     -0.283640E-20
  0.5307      0.179440E-06      0.656632E-01     -0.854942E-14      0.172931E-07     -0.225159E-20
  0.5338      0.186059E-06      0.643741E-01     -0.250466E-13      0.174757E-07     -0.679942E-20
  0.5369      0.192864E-06      0.631326E-01     -0.165257E-13      0.176616E-07     -0.462311E-20
  0.5401      0.199858E-06      0.619369E-01     -0.118762E-13      0.178510E-07     -0.342287E-20
  0.5432      0.207044E-06      0.607850E-01     -0.171846E-13      0.180440E-07     -0.510122E-20
  0.5464      0.214425E-06      0.596751E-01     -0.468167E-14      0.182406E-07     -0.143102E-20
  0.5495      0.222005E-06      0.586058E-01     -0.361195E-14      0.184410E-07     -0.113655E-20
  0.5526      0.229788E-06      0.575752E-01     -0.111953E-13      0.186453E-07     -0.362553E-20
  0.5558      0.237777E-06      0.565820E-01     -0.602247E-14      0.188536E-07     -0.200674E-20
  0.5589      0.245976E-06      0.556248E-01      0.237950E-14      0.190660E-07      0.815600E-21
  0.5621      0.254388E-06      0.547021E-01     -0.104588E-13      0.192826E-07     -0.368674E-20
  0.5652      0.263016E-06      0.538128E-01     -0.825732E-14      0.195036E-07     -0.299274E-20
  0.5683      0.271865E-06      0.529555E-01     -0.106595E-13      0.197291E-07     -0.397129E-20
  0.5715      0.280938E-06      0.521293E-01     -0.163437E-13      0.199591E-07     -0.625762E-20
  0.5746      0.290239E-06      0.513328E-01     -0.751502E-14      0.201939E-07     -0.295634E-20
  0.5778      0.299771E-06      0.505652E-01     -0.133461E-14      0.204336E-07     -0.539322E-21
  0.5809      0.309538E-06      0.498255E-01     -0.108088E-13      0.206783E-07     -0.448580E-20
  0.5840      0.319544E-06      0.491127E-01     -0.524115E-14      0.209282E-07     -0.223339E-20
  0.5872      0.329792E-06      0.484259E-01     -0.797416E-14      0.211834E-07     -0.348822E-20
  0.5903      0.340287E-06      0.477643E-01     -0.147819E-13      0.214442E-07     -0.663647E-20
  0.5935      0.351031E-06      0.471271E-01     -0.217082E-14      0.217107E-07     -0.100006E-20
  0.5966      0.362028E-06      0.465136E-01     -0.204950E-14      0.219831E-07     -0.968628E-21
  0.5997      0.373283E-06      0.459229E-01     -0.114089E-13      0.222615E-07     -0.553053E-20
  0.6029      0.384799E-06      0.453546E-01     -0.848630E-14      0.225462E-07     -0.421862E-20
  0.6060      0.396579E-06      0.448079E-01     -0.892954E-14      0.228374E-07     -0.455115E-20
  0.6092      0.408628E-06      0.442821E-01     -0.143317E-13      0.231353E-07     -0.748764E-20
  0.6123      0.420949E-06      0.437769E-01     -0.356860E-15      0.234401E-07     -0.191079E-21
  0.6154      0.433545E-06      0.432915E-01     -0.119859E-14      0.237520E-07     -0.657609E-21
  0.6186      0.446422E-06      0.428255E-01     -0.688727E-14      0.240714E-07     -0.387121E-20
  0.6217      0.459582E-06      0.423785E-01     -0.656741E-14      0.243985E-07     -0.378104E-20
  0.6249      0.473029E-06      0.419499E-01     -0.118831E-14      0.247335E-07     -0.700622E-21
  0.6280      0.486767E-06      0.415394E-01     -0.997929E-14      0.250767E-07     -0.602436E-20
