
 # Omega; pulse ft; projected flux at t=    1000.0500000000001     
    0.000000000000         0.10847490E-10      0.00000000E+00     -0.00000000E+00      0.11154316E-14     -0.30292259E-27
    0.003140022642         0.11093634E-10      0.80995457E-06      0.45858879E-19      0.11143568E-14      0.63093850E-28
    0.006280045285         0.11830642E-10      0.14871489E-05      0.76395081E-19      0.10909945E-14      0.56044561E-28
    0.009420067927         0.13054251E-10      0.19889831E-05     -0.12053033E-17      0.10733752E-14     -0.65045433E-27
    0.012560090569         0.14757372E-10      0.23678081E-05     -0.54030564E-18      0.10833912E-14     -0.24721699E-27
    0.015700113211         0.16930121E-10      0.24230376E-05     -0.78754149E-18      0.10175130E-14     -0.33071453E-27
    0.018840135854         0.19559852E-10      0.25272079E-05      0.18011790E-18      0.10217510E-14      0.72821722E-28
    0.021980158496         0.22631207E-10      0.24892440E-05      0.72746778E-18      0.99808357E-15      0.29168440E-27
    0.025120181138         0.26126176E-10      0.21879825E-05      0.17045945E-17      0.88617495E-15      0.69039350E-27
    0.028260203780         0.30024165E-10      0.21233094E-05     -0.10804804E-17      0.87847919E-15     -0.44702837E-27
    0.031400226423         0.34302079E-10      0.20975630E-05     -0.13547140E-17      0.89232944E-15     -0.57631220E-27
    0.034540249065         0.38934408E-10      0.20585646E-05      0.14126811E-17      0.90363938E-15      0.62011863E-27
    0.037680271707         0.43893332E-10      0.22027323E-05     -0.61146712E-18      0.99923765E-15     -0.27738322E-27
    0.040820294349         0.49148832E-10      0.23481733E-05     -0.25435805E-18      0.11010062E-14     -0.11926283E-27
    0.043960316992         0.54668813E-10      0.25192935E-05      0.37456192E-18      0.12200571E-14      0.18139487E-27
    0.047100339634         0.60419233E-10      0.27765498E-05     -0.96104353E-18      0.13870087E-14     -0.48008349E-27
    0.050240362276         0.66364250E-10      0.30533475E-05     -0.30668499E-18      0.15706529E-14     -0.15775986E-27
    0.053380384919         0.72466374E-10      0.36606239E-05      0.21561976E-17      0.19352295E-14      0.11398978E-26
    0.056520407561         0.78686628E-10      0.41103087E-05      0.18970403E-18      0.22283974E-14      0.10284774E-27
    0.059660430203         0.84984724E-10      0.50290357E-05      0.13702832E-17      0.27897273E-14      0.76012911E-27
    0.062800452845         0.91319245E-10      0.54690975E-05      0.29624874E-18      0.30969754E-14      0.16775620E-27
    0.065940475488         0.97647837E-10      0.61603445E-05      0.12961240E-18      0.35525328E-14      0.74744571E-28
    0.069080498130         0.10392742E-09      0.63567779E-05      0.65325817E-18      0.37242108E-14      0.38272080E-27
    0.072220520772         0.11011438E-09      0.65882801E-05      0.54248429E-18      0.39118123E-14      0.32210177E-27
    0.075360543414         0.11616481E-09      0.66526033E-05     -0.40775834E-18      0.39934177E-14     -0.24476875E-27
    0.078500566057         0.12203475E-09      0.66922130E-05      0.75484299E-18      0.40513805E-14      0.45697233E-27
    0.081640588699         0.12768041E-09      0.68361411E-05      0.12335003E-17      0.41634340E-14      0.75124210E-27
    0.084780611341         0.13305840E-09      0.69783060E-05      0.36406380E-18      0.42649928E-14      0.22250808E-27
    0.087920633984         0.13812604E-09      0.73273179E-05      0.71969572E-18      0.44828308E-14      0.44030764E-27
    0.091060656626         0.14284161E-09      0.76951670E-05      0.18862214E-17      0.47007218E-14      0.11522300E-26
    0.094200679268         0.14716459E-09      0.84063720E-05     -0.14794164E-17      0.51142323E-14     -0.90004099E-27
    0.097340701910         0.15105600E-09      0.89339158E-05     -0.20918590E-18      0.53989327E-14     -0.12641496E-27
    0.100480724553         0.15447866E-09      0.95757365E-05      0.14768940E-17      0.57329807E-14      0.88421447E-27
    0.103620747195         0.15739751E-09      0.95280241E-05      0.38757855E-19      0.56360718E-14      0.22926270E-28
    0.106760769837         0.15977989E-09      0.10215491E-04      0.52085476E-18      0.59537723E-14      0.30356354E-27
    0.109900792479         0.16159592E-09      0.98573694E-05      0.24875733E-17      0.56443396E-14      0.14243870E-26
    0.113040815122         0.16281876E-09      0.90767330E-05      0.81193206E-18      0.50912130E-14      0.45541926E-27
    0.116180837764         0.16342499E-09      0.79970921E-05      0.11827756E-17      0.43806505E-14      0.64790132E-27
    0.119320860406         0.16339494E-09      0.73963682E-05      0.13779661E-17      0.39442396E-14      0.73482393E-27
    0.122460883048         0.16271302E-09      0.73013622E-05     -0.30148761E-18      0.37779077E-14     -0.15599724E-27
    0.125600905691         0.16136811E-09      0.73612195E-05      0.98120890E-18      0.36829621E-14      0.49091800E-27
    0.128740928333         0.15935390E-09      0.79871960E-05      0.88783359E-19      0.38500197E-14      0.42795704E-28
    0.131880950975         0.15666928E-09      0.92319741E-05      0.87519549E-18      0.42708950E-14      0.40488286E-27
    0.135020973618         0.15331870E-09      0.11130767E-04      0.28398341E-18      0.49219988E-14      0.12557680E-27
    0.138160996260         0.14931255E-09      0.13809617E-04      0.30831875E-17      0.58118585E-14      0.12975776E-26
    0.141301018902         0.14466758E-09      0.14106549E-04     -0.54052127E-18      0.56243100E-14     -0.21550694E-27
    0.144441041544         0.13940727E-09      0.12090231E-04      0.11426970E-17      0.45441428E-14      0.42948546E-27
    0.147581064187         0.13356225E-09      0.10437534E-04      0.22846390E-17      0.36785235E-14      0.80518047E-27
    0.150721086829         0.12717068E-09      0.87681340E-05     -0.26625419E-17      0.28809964E-14     -0.87484674E-27
    0.153861109471         0.12027870E-09      0.83368776E-05     -0.66410210E-18      0.25379662E-14     -0.20217026E-27
    0.157001132113         0.11294082E-09      0.79583772E-05      0.20335784E-17      0.22294370E-14      0.56968083E-27
    0.160141154756         0.10522036E-09      0.81612643E-05      0.49550453E-18      0.20882226E-14      0.12678474E-27
    0.163281177398         0.97189861E-10      0.84136263E-05      0.39602058E-17      0.19502514E-14      0.91796292E-27
    0.166421200040         0.88931555E-10      0.90113293E-05      0.92375827E-17      0.18752477E-14      0.19223308E-26
    0.169561222683         0.80537758E-10      0.97497315E-05      0.49579011E-18      0.18033839E-14      0.91705080E-28
    0.172701245325         0.72111337E-10      0.10792975E-04      0.15069756E-18      0.17549784E-14      0.24503992E-28
    0.175841267967         0.63766150E-10      0.12122088E-04      0.54185144E-17      0.17118644E-14      0.76519508E-27
    0.178981290609         0.55627495E-10      0.13859579E-04     -0.36464634E-17      0.16774687E-14     -0.44134302E-27
    0.182121313252         0.47832561E-10      0.16106457E-04      0.10742557E-17      0.16473482E-14      0.10987353E-27
    0.185261335894         0.40530887E-10      0.19047017E-04      0.31724561E-17      0.16227470E-14      0.27028347E-27
    0.188401358536         0.33884816E-10      0.22819242E-04     -0.63780654E-17      0.15982505E-14     -0.44671714E-27
    0.191541381178         0.28069961E-10      0.27710136E-04     -0.19425473E-17      0.15813951E-14     -0.11085961E-27
    0.194681403821         0.23275664E-10      0.33483732E-04     -0.47711525E-17      0.15589565E-14     -0.22213830E-27
    0.197821426463         0.19705465E-10      0.39916583E-04     -0.11235614E-17      0.15484218E-14     -0.43584565E-28
    0.200961449105         0.17577570E-10      0.44824363E-04     -0.84510977E-17      0.15268021E-14     -0.28786027E-27
    0.204101471747         0.17125315E-10      0.46552210E-04      0.47153669E-17      0.15210913E-14      0.15407440E-27
    0.207241494390         0.18597645E-10      0.42931004E-04     -0.86293810E-17      0.15002887E-14     -0.30156673E-27
    0.210381517032         0.22259579E-10      0.36351724E-04      0.48462250E-18      0.14978106E-14      0.19968042E-28
    0.213521539674         0.28392684E-10      0.28550898E-04      0.75884219E-18      0.14784515E-14      0.39295134E-28
    0.216661562317         0.37295552E-10      0.22040622E-04      0.12472243E-16      0.14774798E-14      0.83606930E-27
    0.219801584959         0.49284270E-10      0.16724694E-04      0.75440249E-17      0.14603543E-14      0.65872351E-27
    0.222941607601         0.64692893E-10      0.12914788E-04      0.11285960E-16      0.14594032E-14      0.12753416E-26
    0.226081630243         0.83873922E-10      0.10003612E-04      0.54935701E-17      0.14452436E-14      0.79366803E-27
    0.229221652886         0.10719877E-09      0.79242059E-05      0.18038215E-17      0.14431533E-14      0.32851126E-27
    0.232361675528         0.13505825E-09      0.63282138E-05      0.34220890E-17      0.14323868E-14      0.77458745E-27
    0.235501698170         0.16786301E-09      0.51461249E-05      0.29541215E-17      0.14284460E-14      0.81999626E-27
    0.238641720812         0.20604406E-09      0.42267025E-05      0.13559542E-17      0.14211436E-14      0.45591230E-27
    0.241781743455         0.25005319E-09      0.35136222E-05      0.34901059E-17      0.14150980E-14      0.14056269E-26
    0.244921766097         0.30036346E-09      0.29544310E-05      0.20375503E-17      0.14109646E-14      0.97308458E-27
    0.248061788739         0.35746965E-09      0.25000650E-05      0.57876097E-18      0.14029854E-14      0.32478883E-27
    0.251201811381         0.42188874E-09      0.21427400E-05      0.89078234E-18      0.14014164E-14      0.58259843E-27
    0.254341834024         0.49416037E-09      0.18397886E-05      0.12242362E-17      0.13920043E-14      0.92627061E-27
    0.257481856666         0.57484728E-09      0.16012774E-05      0.10484362E-17      0.13921787E-14      0.91152878E-27
    0.260621879308         0.66453577E-09      0.13918468E-05      0.14056675E-17      0.13820427E-14      0.13957661E-26
    0.263761901951         0.76383615E-09      0.12263922E-05      0.21190577E-18      0.13830569E-14      0.23897555E-27
    0.266901924593         0.87338321E-09      0.10774392E-05      0.34274014E-18      0.13729934E-14      0.43675777E-27
    0.270041947235         0.99383660E-09      0.95867759E-06      0.10156107E-17      0.13739751E-14      0.14555716E-26
    0.273181969877         0.11258814E-08      0.85032784E-06      0.31186664E-18      0.13647388E-14      0.50053224E-27
    0.276321992520         0.12702283E-08      0.76246551E-06      0.40994523E-18      0.13649259E-14      0.73386251E-27
    0.279462015162         0.14276143E-08      0.68220457E-06      0.51006524E-18      0.13571419E-14      0.10146970E-26
    0.282602037804         0.15988030E-08      0.61546548E-06      0.54776770E-18      0.13559570E-14      0.12068093E-26
    0.285742060446         0.17845852E-08      0.55507827E-06      0.38609890E-18      0.13500190E-14      0.93904030E-27
    0.288882083089         0.19857789E-08      0.50324053E-06      0.21319088E-18      0.13471267E-14      0.57069156E-27
    0.292022105731         0.22032301E-08      0.45715689E-06      0.39653133E-18      0.13431729E-14      0.11650489E-26
    0.295162128373         0.24378129E-08      0.41614619E-06      0.45124428E-18      0.13384687E-14      0.14513562E-26
    0.298302151016         0.26904304E-08      0.38048964E-06      0.37954131E-18      0.13363825E-14      0.13330517E-26
    0.301442173658         0.29620145E-08      0.34760224E-06      0.17045187E-18      0.13301122E-14      0.65224006E-27
    0.304582196300         0.32535265E-08      0.31971548E-06      0.16121701E-18      0.13299522E-14      0.67063038E-27
    0.307722218942         0.35659575E-08      0.29305597E-06      0.82012129E-19      0.13224840E-14      0.37009902E-27
    0.310862241585         0.39003290E-08      0.27086975E-06     -0.89444655E-19      0.13234767E-14     -0.43702894E-27
    0.314002264227         0.42576927E-08      0.24920289E-06      0.15986210E-18      0.13158826E-14      0.84413047E-27
    0.317142286869         0.46391314E-08      0.23138669E-06      0.19803452E-18      0.13180850E-14      0.11280957E-26
    0.320282309511         0.50457590E-08      0.21363762E-06      0.93090243E-19      0.13106714E-14      0.57111064E-27
    0.323422332154         0.54787210E-08      0.19906139E-06      0.14937013E-18      0.13131634E-14      0.98536123E-27
    0.326562354796         0.59391947E-08      0.18442318E-06      0.22533349E-18      0.13061694E-14      0.15959149E-26
    0.329702377438         0.64283897E-08      0.17230298E-06      0.10806456E-18      0.13082642E-14      0.82051395E-27
    0.332842400080         0.69475481E-08      0.16019013E-06      0.23617149E-18      0.13021206E-14      0.19197423E-26
    0.335982422723         0.74979446E-08      0.14996805E-06      0.70266089E-19      0.13033077E-14      0.61065230E-27
    0.339122445365         0.80808871E-08      0.13991642E-06      0.17157621E-18      0.12983559E-14      0.15921432E-26
    0.342262468007         0.86977170E-08      0.13120108E-06      0.88394802E-19      0.12983924E-14      0.87477279E-27
    0.345402490650         0.93498090E-08      0.12284438E-06     -0.56177163E-19      0.12949563E-14     -0.59218802E-27
    0.348542513292         0.10038572E-07      0.11533654E-06     -0.18649345E-19      0.12936167E-14     -0.20917140E-27
    0.351682535934         0.10765449E-07      0.10836168E-06      0.39622519E-19      0.12917534E-14      0.47233047E-27
    0.354822558576         0.11531917E-07      0.10184827E-06      0.15261946E-18      0.12890402E-14      0.19316245E-26
    0.357962581219         0.12339487E-07      0.96000476E-07      0.88103359E-19      0.12887106E-14      0.11826997E-26
    0.361102603861         0.13189707E-07      0.90317440E-07      0.35324024E-19      0.12846911E-14      0.50245509E-27
    0.364242626503         0.14084158E-07      0.85377865E-07      0.60063663E-19      0.12856062E-14      0.90442903E-27
    0.367382649145         0.15024457E-07      0.80410318E-07     -0.16284090E-20      0.12806029E-14     -0.25933802E-28
    0.370522671788         0.16012256E-07      0.76215698E-07      0.21357366E-20      0.12826398E-14      0.35942475E-28
    0.373662694430         0.17049243E-07      0.71863174E-07      0.36277807E-19      0.12768924E-14      0.64459797E-27
    0.376802717072         0.18137141E-07      0.68260827E-07      0.51579925E-20      0.12795253E-14      0.96684765E-28
    0.379942739715         0.19277708E-07      0.64444222E-07      0.57780885E-19      0.12733383E-14      0.11416789E-26
    0.383082762357         0.20472742E-07      0.61316438E-07      0.58157847E-19      0.12760946E-14      0.12103591E-26
    0.386222784999         0.21724071E-07      0.57972562E-07      0.46771277E-19      0.12698381E-14      0.10244838E-26
    0.389362807641         0.23033564E-07      0.55230581E-07      0.50861486E-19      0.12723566E-14      0.11717050E-26
    0.392502830284         0.24403125E-07      0.52308651E-07      0.22658614E-19      0.12664811E-14      0.54860346E-27
    0.395642852926         0.25834693E-07      0.49881885E-07      0.25147679E-19      0.12684267E-14      0.63947037E-27
    0.398782875568         0.27330244E-07      0.47332754E-07      0.34667507E-19      0.12632559E-14      0.92523523E-27
    0.401922898210         0.28891791E-07      0.45165272E-07      0.10817727E-19      0.12643255E-14      0.30282398E-27
    0.405062920853         0.30521384E-07      0.42945715E-07     -0.85541975E-20      0.12601554E-14     -0.25100568E-27
    0.408202943495         0.32221107E-07      0.40995252E-07      0.11526058E-19      0.12601448E-14      0.35429715E-27
    0.411342966137         0.33993084E-07      0.39062947E-07     -0.50312345E-20      0.12571122E-14     -0.16191370E-27
    0.414482988779         0.35839473E-07      0.37296946E-07      0.30587322E-20      0.12558874E-14      0.10299565E-27
    0.417623011422         0.37762468E-07      0.35614306E-07      0.19365805E-19      0.12540734E-14      0.68192095E-27
    0.420763034064         0.39764301E-07      0.34009965E-07      0.80997251E-20      0.12516546E-14      0.29809081E-27
    0.423903056706         0.41847240E-07      0.32540784E-07      0.75462346E-20      0.12509813E-14      0.29010360E-27
    0.427043079349         0.44013589E-07      0.31079825E-07      0.35332714E-19      0.12474301E-14      0.14181254E-26
    0.430183101991         0.46265688E-07      0.29798928E-07      0.24156254E-19      0.12480410E-14      0.10117141E-26
    0.433323124633         0.48605914E-07      0.28472119E-07      0.30756098E-19      0.12437113E-14      0.13434794E-26
    0.436463147275         0.51036678E-07      0.27336866E-07      0.32290474E-19      0.12448186E-14      0.14703874E-26
    0.439603169918         0.53560430E-07      0.26126512E-07      0.42417754E-19      0.12396161E-14      0.20125814E-26
    0.442743192560         0.56179653E-07      0.25122723E-07      0.33967108E-19      0.12414133E-14      0.16784495E-26
    0.445883215202         0.58896866E-07      0.24026392E-07      0.36703395E-19      0.12358967E-14      0.18879907E-26
    0.449023237844         0.61714624E-07      0.23131176E-07      0.27024293E-19      0.12380538E-14      0.14464258E-26
    0.452163260487         0.64635518E-07      0.22140979E-07      0.28771653E-19      0.12325238E-14      0.16016342E-26
    0.455303283129         0.67662171E-07      0.21334182E-07      0.32416597E-19      0.12346495E-14      0.18760098E-26
    0.458443305771         0.70797244E-07      0.20440345E-07      0.20875494E-19      0.12292536E-14      0.12554228E-26
    0.461583328413         0.74043431E-07      0.19705865E-07      0.19578446E-19      0.12309898E-14      0.12230302E-26
    0.464723351056         0.77403460E-07      0.18902816E-07      0.24276504E-19      0.12260690E-14      0.15746157E-26
    0.467863373698         0.80880094E-07      0.18230225E-07      0.23271312E-19      0.12272617E-14      0.15666285E-26
    0.471003396340         0.84476127E-07      0.17511332E-07      0.14821945E-19      0.12230710E-14      0.10352320E-26
    0.474143418983         0.88194391E-07      0.16891410E-07      0.16789022E-19      0.12235443E-14      0.12161277E-26
    0.477283441625         0.92037747E-07      0.16250786E-07      0.11790995E-19      0.12203560E-14      0.88544706E-27
    0.480423464267         0.96009090E-07      0.15677090E-07      0.11415011E-19      0.12200458E-14      0.88835599E-27
    0.483563486909         0.10011135E-06      0.15106514E-07      0.16669481E-19      0.12179140E-14      0.13439232E-26
    0.486703509552         0.10434748E-06      0.14572017E-07      0.26135584E-19      0.12166332E-14      0.21820879E-26
    0.489843532194         0.10872047E-06      0.14064655E-07      0.12055512E-19      0.12156417E-14      0.10419866E-26
    0.492983554836         0.11323336E-06      0.13568013E-07      0.16140489E-19      0.12136144E-14      0.14437141E-26
    0.496123577478         0.11788918E-06      0.13115297E-07      0.11929656E-19      0.12136256E-14      0.11039122E-26
    0.499263600121         0.12269102E-06      0.12651064E-07      0.15770242E-19      0.12106887E-14      0.15091895E-26
    0.502403622763         0.12764201E-06      0.12246913E-07      0.17247700E-19      0.12116859E-14      0.17064540E-26
    0.505543645405         0.13274526E-06      0.11814851E-07      0.12670868E-19      0.12081231E-14      0.12956547E-26
    0.508683668048         0.13800397E-06      0.11452143E-07      0.75484608E-20      0.12099101E-14      0.79748907E-27
