
 # Omega; pulse ft; projected flux at t=    1000.0500000000001     
    0.000000000000         0.18717486E-09      0.00000000E+00      0.00000000E+00      0.95815434E-15      0.39443045E-29
    0.003140022642         0.20186436E-09      0.39510133E-07     -0.32692591E-21      0.98914033E-15     -0.81846245E-29
    0.006280045285         0.24594737E-09      0.65491520E-07     -0.13723478E-20      0.99881954E-15     -0.20929851E-28
    0.009420067927         0.31946741E-09      0.73909113E-07      0.43235533E-21      0.97609720E-15      0.57099971E-29
    0.012560090569         0.42249703E-09      0.72319038E-07     -0.65654859E-21      0.94734042E-15     -0.86004328E-29
    0.015700113211         0.55513782E-09      0.65380220E-07     -0.15592540E-20      0.90025793E-15     -0.21470267E-28
    0.018840135854         0.71752051E-09      0.58146251E-07      0.57480205E-21      0.86237181E-15      0.85249363E-29
    0.021980158496         0.90980495E-09      0.50789435E-07      0.21028734E-22      0.81867852E-15      0.33896367E-30
    0.025120181138         0.11321802E-08      0.45034358E-07     -0.12374026E-20      0.79042253E-15     -0.21718327E-28
    0.028260203780         0.13848647E-08      0.39958872E-07      0.15235187E-21      0.76254909E-15      0.29073838E-29
    0.031400226423         0.16681061E-08      0.36325591E-07     -0.22529027E-21      0.75149503E-15     -0.46607505E-29
    0.034540249065         0.19821816E-08      0.33253437E-07     -0.12180843E-20      0.74315097E-15     -0.27221864E-28
    0.037680271707         0.23273981E-08      0.31269909E-07      0.35998765E-22      0.75215233E-15      0.86589810E-30
    0.040820294349         0.27040919E-08      0.29618643E-07     -0.63249714E-21      0.76406979E-15     -0.16316478E-28
    0.043960316992         0.31126296E-08      0.28771634E-07     -0.83470643E-21      0.79332966E-15     -0.23015633E-28
    0.047100339634         0.35534072E-08      0.27979895E-07      0.24795020E-21      0.82203358E-15      0.72846374E-29
    0.050240362276         0.40268513E-08      0.27604623E-07     -0.13475899E-21      0.86162281E-15     -0.42062310E-29
    0.053380384919         0.45334185E-08      0.26798374E-07      0.11497647E-21      0.88628846E-15      0.38025561E-29
    0.056520407561         0.50735959E-08      0.25593872E-07      0.36141918E-23      0.89468288E-15      0.12634100E-30
    0.059660430203         0.56479014E-08      0.23417861E-07      0.62272095E-22      0.86331739E-15      0.22957085E-29
    0.062800452845         0.62568834E-08      0.20179573E-07     -0.62028842E-22      0.78294240E-15     -0.24066421E-29
    0.065940475488         0.69011217E-08      0.16603711E-07      0.34175018E-22      0.67669866E-15      0.13928325E-29
    0.069080498130         0.75812269E-08      0.12745454E-07     -0.12344049E-21      0.54470566E-15     -0.52755073E-29
    0.072220520772         0.82978416E-08      0.97046050E-08     -0.19380166E-21      0.43421511E-15     -0.86713070E-29
    0.075360543414         0.90516395E-08      0.71068454E-08      0.19032781E-21      0.33241655E-15      0.89024186E-29
    0.078500566057         0.98433265E-08      0.53497364E-08     -0.71498796E-22      0.26123059E-15     -0.34913258E-29
    0.081640588699         0.10673641E-07      0.39913912E-08      0.15010085E-22      0.20321385E-15      0.76420900E-30
    0.084780611341         0.11543353E-07      0.31007755E-08     -0.10498820E-21      0.16441002E-15     -0.55667079E-29
    0.087920633984         0.12453265E-07      0.24400924E-08     -0.20191272E-21      0.13459262E-15     -0.11137268E-28
    0.091060656626         0.13404215E-07      0.20021723E-08     -0.18686946E-21      0.11477164E-15     -0.10712022E-28
    0.094200679268         0.14397070E-07      0.17032463E-08      0.34280049E-21      0.10137248E-15      0.20402531E-28
    0.097340701910         0.15432734E-07      0.15158686E-08     -0.49004354E-21      0.93590657E-16     -0.30255589E-28
    0.100480724553         0.16512144E-07      0.14586836E-08      0.29144192E-22      0.93347852E-16      0.18650706E-29
    0.103620747195         0.17636269E-07      0.15006057E-08      0.66530008E-22      0.99460153E-16      0.44096092E-29
    0.106760769837         0.18806114E-07      0.17677430E-08     -0.48368813E-21      0.12126320E-15     -0.33179921E-28
    0.109900792479         0.20022721E-07      0.22463510E-08      0.72988457E-21      0.15937581E-15      0.51784404E-28
    0.113040815122         0.21287162E-07      0.31361354E-08     -0.22846243E-21      0.22998517E-15     -0.16754050E-28
    0.116180837764         0.22600547E-07      0.44746770E-08     -0.88819162E-21      0.33897579E-15     -0.67284289E-28
    0.119320860406         0.23964023E-07      0.60814242E-08      0.28517612E-21      0.47563214E-15      0.22303809E-28
    0.122460883048         0.25378770E-07      0.78300715E-08     -0.43856458E-21      0.63191906E-15     -0.35393970E-28
    0.125600905691         0.26846007E-07      0.87707236E-08     -0.96573616E-21      0.73003703E-15     -0.80383694E-28
    0.128740928333         0.28366986E-07      0.95465716E-08      0.32399938E-21      0.81915586E-15      0.27801184E-28
    0.131880950975         0.29943001E-07      0.99939834E-08      0.56278617E-21      0.88363807E-15      0.49759867E-28
    0.135020973618         0.31575378E-07      0.10585493E-07     -0.11355665E-21      0.96400868E-15     -0.10341473E-28
    0.138160996260         0.33265483E-07      0.10168961E-07      0.17944121E-21      0.95347102E-15      0.16824924E-28
    0.141301018902         0.35014721E-07      0.75375361E-08     -0.10218391E-22      0.72737324E-15     -0.98607613E-30
    0.144441041544         0.36824533E-07      0.46220680E-08     -0.29870803E-21      0.45888675E-15     -0.29656240E-28
    0.147581064187         0.38696400E-07      0.24434735E-08      0.21194377E-21      0.24949974E-15      0.21641290E-28
    0.150721086829         0.40631842E-07      0.14010768E-08     -0.14896405E-21      0.14708791E-15     -0.15638551E-28
    0.153861109471         0.42632417E-07      0.88868257E-09     -0.93298780E-22      0.95891541E-16     -0.10067221E-28
    0.157001132113         0.44699723E-07      0.61786125E-09     -0.13461554E-21      0.68503940E-16     -0.14925187E-28
    0.160141154756         0.46835399E-07      0.47961663E-09      0.19050264E-21      0.54624571E-16      0.21696756E-28
    0.163281177398         0.49041122E-07      0.38791151E-09     -0.34710772E-23      0.45371118E-16     -0.40598603E-30
    0.166421200040         0.51318613E-07      0.33841633E-09      0.21656827E-21      0.40638729E-16      0.26006602E-28
    0.169561222683         0.53669630E-07      0.29814050E-09     -0.27927859E-22      0.36749004E-16     -0.34424072E-29
    0.172701245325         0.56095974E-07      0.27524054E-09      0.44188479E-22      0.34815383E-16      0.55894339E-29
    0.175841267967         0.58599489E-07      0.25346214E-09      0.13992397E-21      0.32893392E-16      0.18158823E-28
    0.178981290609         0.61182058E-07      0.24030101E-09      0.46279492E-22      0.31988552E-16      0.61606647E-29
    0.182121313252         0.63845608E-07      0.22650670E-09      0.95874047E-23      0.30922446E-16      0.13088620E-29
    0.185261335894         0.66592107E-07      0.21756425E-09      0.14380403E-21      0.30454259E-16      0.20129435E-28
    0.188401358536         0.69423567E-07      0.20775782E-09     -0.40239785E-22      0.29812803E-16     -0.57743232E-29
    0.191541381178         0.72342043E-07      0.20093365E-09      0.90116530E-23      0.29553122E-16      0.13254250E-29
    0.194681403821         0.75349631E-07      0.19337169E-09      0.20768773E-21      0.29145540E-16      0.31303295E-28
    0.197821426463         0.78448474E-07      0.18776064E-09     -0.81456613E-22      0.28996013E-16     -0.12579404E-28
    0.200961449105         0.81640757E-07      0.18159079E-09     -0.10049658E-21      0.28728347E-16     -0.15898937E-28
    0.204101471747         0.84928709E-07      0.17675839E-09      0.64720125E-22      0.28642502E-16      0.10487459E-28
    0.207241494390         0.88314602E-07      0.17152438E-09      0.42048882E-22      0.28464542E-16      0.69780294E-29
    0.210381517032         0.91800755E-07      0.16724035E-09     -0.86128552E-22      0.28418574E-16     -0.14635527E-28
    0.213521539674         0.95389531E-07      0.16267688E-09      0.10063335E-21      0.28301367E-16      0.17507474E-28
    0.216661562317         0.99083337E-07      0.15880867E-09      0.43696339E-22      0.28282351E-16      0.77819125E-29
    0.219801584959         0.10288463E-06      0.15475146E-09     -0.10151313E-21      0.28208302E-16     -0.18503950E-28
    0.222941607601         0.10679590E-06      0.15121564E-09      0.90953739E-22      0.28208674E-16      0.16967058E-28
    0.226081630243         0.11081969E-06      0.14755631E-09      0.33983191E-22      0.28166441E-16      0.64869172E-29
    0.229221652886         0.11495860E-06      0.14429695E-09     -0.59210910E-22      0.28181591E-16     -0.11564054E-28
    0.232361675528         0.11921526E-06      0.14096127E-09      0.19188216E-22      0.28163698E-16      0.38337561E-29
    0.235501698170         0.12359235E-06      0.13793856E-09      0.11611855E-22      0.28190694E-16      0.23731309E-29
    0.238641720812         0.12809259E-06      0.13487298E-09     -0.20620557E-22      0.28191951E-16     -0.43102312E-29
    0.241781743455         0.13271877E-06      0.13205699E-09      0.70906139E-23      0.28228823E-16      0.15157069E-29
    0.244921766097         0.13747370E-06      0.12922169E-09      0.38294414E-22      0.28245559E-16      0.83704767E-29
    0.248061788739         0.14236024E-06      0.12658896E-09      0.30385851E-22      0.28290929E-16      0.67908290E-29
    0.251201811381         0.14738131E-06      0.12395357E-09     -0.12040600E-22      0.28320521E-16     -0.27509983E-29
    0.254341834024         0.15253987E-06      0.12148537E-09      0.18514304E-22      0.28373448E-16      0.43240979E-29
    0.257481856666         0.15783893E-06      0.11902579E-09      0.95979970E-22      0.28413918E-16      0.22912403E-28
    0.260621879308         0.16328153E-06      0.11670653E-09      0.15734126E-22      0.28473698E-16      0.38387636E-29
    0.263761901951         0.16887077E-06      0.11440355E-09     -0.40600452E-23      0.28523609E-16     -0.10122688E-29
    0.266901924593         0.17460981E-06      0.11221984E-09      0.61254237E-22      0.28589669E-16      0.15605425E-28
    0.270041947235         0.18050182E-06      0.11005790E-09      0.38059980E-23      0.28647986E-16      0.99069836E-30
    0.273181969877         0.18655005E-06      0.10799816E-09      0.16990361E-22      0.28719855E-16      0.45182316E-29
    0.276321992520         0.19275778E-06      0.10596411E-09      0.16226667E-22      0.28785766E-16      0.44080685E-29
    0.279462015162         0.19912834E-06      0.10401885E-09     -0.92867503E-23      0.28863228E-16     -0.25768943E-29
    0.282602037804         0.20566511E-06      0.10210053E-09      0.10777941E-22      0.28935826E-16      0.30545249E-29
    0.285742060446         0.21237151E-06      0.10026006E-09     -0.25312578E-23      0.29018340E-16     -0.73262375E-30
    0.288882083089         0.21925100E-06      0.98450021E-10     -0.20442743E-22      0.29097745E-16     -0.60420274E-29
    0.292022105731         0.22630710E-06      0.96707763E-10     -0.14233714E-22      0.29185446E-16     -0.42955941E-29
    0.295162128373         0.23354337E-06      0.94996250E-10     -0.10073219E-22      0.29270889E-16     -0.31038287E-29
    0.298302151016         0.24096340E-06      0.93344812E-10     -0.15648910E-22      0.29363474E-16     -0.49226769E-29
    0.301442173658         0.24857086E-06      0.91725853E-10      0.73942231E-22      0.29455100E-16      0.23744405E-28
    0.304582196300         0.25636942E-06      0.90163879E-10     -0.17772679E-22      0.29554039E-16     -0.58255529E-29
    0.307722218942         0.26436283E-06      0.88627829E-10     -0.11324653E-22      0.29650649E-16     -0.37886894E-29
    0.310862241585         0.27255487E-06      0.87138223E-10     -0.25811782E-23      0.29752072E-16     -0.88130554E-30
    0.314002264227         0.28094936E-06      0.85681841E-10     -0.60202478E-22      0.29854279E-16     -0.20976459E-28
    0.317142286869         0.28955016E-06      0.84269176E-10     -0.12575802E-21      0.29961320E-16     -0.44712390E-28
    0.320282309511         0.29836118E-06      0.82886977E-10     -0.24113247E-22      0.30068947E-16     -0.87475738E-29
    0.323422332154         0.30738639E-06      0.81544387E-10      0.17234300E-22      0.30180834E-16      0.63786800E-29
    0.326562354796         0.31662976E-06      0.80231435E-10     -0.84245696E-22      0.30293728E-16     -0.31809429E-28
    0.329702377438         0.32609534E-06      0.78954654E-10     -0.71774202E-22      0.30410446E-16     -0.27644798E-28
    0.332842400080         0.33578719E-06      0.77706858E-10     -0.57483387E-22      0.30528634E-16     -0.22583455E-28
    0.335982422723         0.34570944E-06      0.76492244E-10      0.72384942E-23      0.30650293E-16      0.29004505E-29
    0.339122445365         0.35586624E-06      0.75305478E-10     -0.79749711E-22      0.30773675E-16     -0.32589816E-28
    0.342262468007         0.36626178E-06      0.74149068E-10     -0.83477743E-22      0.30900148E-16     -0.34787687E-28
    0.345402490650         0.37690029E-06      0.73019954E-10     -0.87003501E-22      0.31028809E-16     -0.36970922E-28
    0.348542513292         0.38778604E-06      0.71919012E-10      0.92683889E-22      0.31160375E-16      0.40157180E-28
    0.351682535934         0.39892335E-06      0.70844190E-10      0.19108691E-22      0.31294314E-16      0.84409658E-29
    0.354822558576         0.41031655E-06      0.69795545E-10      0.41504646E-22      0.31430990E-16      0.18690765E-28
    0.357962581219         0.42197002E-06      0.68771997E-10      0.31062784E-23      0.31570259E-16      0.14259585E-29
    0.361102603861         0.43388818E-06      0.67773096E-10      0.51482380E-23      0.31712251E-16      0.24089532E-29
    0.364242626503         0.44607547E-06      0.66798226E-10     -0.44179184E-23      0.31857012E-16     -0.21069674E-29
    0.367382649145         0.45853638E-06      0.65846077E-10     -0.58349319E-22      0.32004246E-16     -0.28360474E-28
    0.370522671788         0.47127541E-06      0.64917005E-10     -0.25476035E-22      0.32154444E-16     -0.12618693E-28
    0.373662694430         0.48429711E-06      0.64009706E-10     -0.28870356E-22      0.32307288E-16     -0.14571586E-28
    0.376802717072         0.49760605E-06      0.63124215E-10      0.16530220E-22      0.32463113E-16      0.85010548E-29
    0.379942739715         0.51120685E-06      0.62259379E-10      0.67309320E-23      0.32621644E-16      0.35267629E-29
    0.383082762357         0.52510413E-06      0.61415288E-10     -0.15800102E-22      0.32783239E-16     -0.84340324E-29
    0.386222784999         0.53930256E-06      0.60590848E-10     -0.65735705E-24      0.32947629E-16     -0.35745260E-30
    0.389362807641         0.55380682E-06      0.59786088E-10      0.19393736E-22      0.33115134E-16      0.10742067E-28
    0.392502830284         0.56862162E-06      0.59000118E-10     -0.31768771E-22      0.33285570E-16     -0.17922704E-28
    0.395642852926         0.58375171E-06      0.58232788E-10      0.10625573E-22      0.33459155E-16      0.61051979E-29
    0.398782875568         0.59920184E-06      0.57483482E-10      0.13214332E-22      0.33635838E-16      0.77322235E-29
    0.401922898210         0.61497679E-06      0.56751799E-10     -0.22655331E-22      0.33815682E-16     -0.13499228E-28
    0.405062920853         0.63108138E-06      0.56037450E-10     -0.21204670E-23      0.33998815E-16     -0.12865212E-29
    0.408202943495         0.64752043E-06      0.55339779E-10     -0.10417010E-22      0.34185135E-16     -0.64349171E-29
    0.411342966137         0.66429877E-06      0.54658809E-10      0.91993787E-24      0.34374950E-16      0.57854936E-30
    0.414482988779         0.68142128E-06      0.53993617E-10      0.78358001E-23      0.34567975E-16      0.50166623E-29
    0.417623011422         0.69889282E-06      0.53344511E-10      0.51515629E-23      0.34764696E-16      0.33572811E-29
    0.420763034064         0.71671828E-06      0.52710358E-10      0.15062845E-22      0.34964668E-16      0.99917246E-29
    0.423903056706         0.73490258E-06      0.52091715E-10      0.17965106E-22      0.35168547E-16      0.12128736E-28
    0.427043079349         0.75345064E-06      0.51487268E-10     -0.59178534E-23      0.35375738E-16     -0.40660233E-29
    0.430183101991         0.77236737E-06      0.50897764E-10      0.46386271E-23      0.35587036E-16      0.32432660E-29
    0.433323124633         0.79165771E-06      0.50321869E-10      0.13675893E-22      0.35801802E-16      0.97297981E-29
    0.436463147275         0.81132662E-06      0.49760203E-10      0.27201361E-23      0.36020757E-16      0.19690708E-29
    0.439603169918         0.83137904E-06      0.49211592E-10      0.15614975E-22      0.36243340E-16      0.11500113E-28
    0.442743192560         0.85181993E-06      0.48676642E-10      0.83531820E-23      0.36470277E-16      0.62585019E-29
    0.445883215202         0.87265424E-06      0.48154310E-10      0.14371277E-22      0.36701076E-16      0.10953149E-28
    0.449023237844         0.89388696E-06      0.47644945E-10      0.25987773E-22      0.36936280E-16      0.20146768E-28
    0.452163260487         0.91552302E-06      0.47147841E-10      0.29797189E-22      0.37175632E-16      0.23494805E-28
    0.455303283129         0.93756741E-06      0.46663068E-10      0.13036352E-22      0.37419463E-16      0.10453948E-28
    0.458443305771         0.96002506E-06      0.46190248E-10      0.52637118E-23      0.37667758E-16      0.42925127E-29
    0.461583328413         0.98290095E-06      0.45729109E-10      0.15233832E-22      0.37920576E-16      0.12632560E-28
    0.464723351056         0.10062000E-05      0.45279664E-10     -0.26240527E-23      0.38178210E-16     -0.22125083E-29
    0.467863373698         0.10299272E-05      0.44841284E-10      0.57639395E-23      0.38440415E-16      0.49411659E-29
    0.471003396340         0.10540874E-05      0.44414384E-10      0.26765861E-23      0.38707826E-16      0.23326863E-29
    0.474143418983         0.10786856E-05      0.43997942E-10     -0.59824794E-24      0.38979841E-16     -0.53001592E-30
    0.477283441625         0.11037267E-05      0.43592766E-10      0.50129154E-24      0.39257455E-16      0.45143798E-30
    0.480423464267         0.11292155E-05      0.43197532E-10      0.14745497E-23      0.39539767E-16      0.13496917E-29
    0.483563486909         0.11551570E-05      0.42813325E-10      0.35377055E-23      0.39828046E-16      0.32910291E-29
    0.486703509552         0.11815559E-05      0.42438609E-10      0.13270966E-22      0.40121162E-16      0.12546278E-28
    0.489843532194         0.12084172E-05      0.42074659E-10      0.12318736E-22      0.40420593E-16      0.11834454E-28
    0.492983554836         0.12357457E-05      0.41719845E-10      0.69353968E-23      0.40725076E-16      0.67700289E-29
    0.496123577478         0.12635461E-05      0.41375499E-10      0.22306473E-22      0.41036187E-16      0.22123542E-28
    0.499263600121         0.12918231E-05      0.41040010E-10     -0.74956290E-23      0.41352632E-16     -0.75527269E-29
    0.502403622763         0.13205817E-05      0.40714633E-10     -0.13968295E-22      0.41675956E-16     -0.14298104E-28
    0.505543645405         0.13498263E-05      0.40397938E-10      0.36229935E-23      0.42004999E-16      0.37671190E-29
    0.508683668048         0.13795618E-05      0.40090979E-10     -0.91762495E-24      0.42341142E-16     -0.96912795E-30
