
 # Omega; pulse ft; projected flux at t=    1000.0500000000001     
    0.000000000000         0.18717486E-09      0.00000000E+00      0.00000000E+00      0.15978777E-10      0.49630837E-23
    0.003140022642         0.20186436E-09      0.64149420E-03      0.93744956E-16      0.16059875E-10      0.23469148E-23
    0.006280045285         0.24594737E-09      0.10582117E-02     -0.14880303E-15      0.16138922E-10     -0.22694140E-23
    0.009420067927         0.31946741E-09      0.12281531E-02      0.35554737E-15      0.16219878E-10      0.46956157E-23
    0.012560090569         0.42249703E-09      0.12444729E-02      0.20236620E-15      0.16301924E-10      0.26508882E-23
    0.015700113211         0.55513782E-09      0.11897868E-02     -0.13409192E-15      0.16382859E-10     -0.18463889E-23
    0.018840135854         0.71752051E-09      0.11103453E-02      0.44255198E-15      0.16467622E-10      0.65635247E-23
    0.021980158496         0.90980495E-09      0.10266607E-02      0.17798824E-15      0.16548817E-10      0.28690051E-23
    0.025120181138         0.11321802E-08      0.94784552E-03     -0.20953754E-15      0.16636153E-10     -0.36777074E-23
    0.028260203780         0.13848647E-08      0.87605645E-03      0.31744145E-15      0.16718091E-10      0.60578459E-23
    0.031400226423         0.16681061E-08      0.81244271E-03      0.52618187E-16      0.16807618E-10      0.10885523E-23
    0.034540249065         0.19821816E-08      0.75580198E-03     -0.26141669E-15      0.16890735E-10     -0.58421650E-23
    0.037680271707         0.23273981E-08      0.70601522E-03      0.15346022E-15      0.16982173E-10      0.36912632E-23
    0.040820294349         0.27040919E-08      0.66160001E-03      0.10492784E-15      0.17067243E-10      0.27068153E-23
    0.043960316992         0.31126296E-08      0.62233904E-03     -0.16387193E-15      0.17159958E-10     -0.45184943E-23
    0.047100339634         0.35534072E-08      0.58705926E-03      0.17011281E-15      0.17247471E-10      0.49978188E-23
    0.050240362276         0.40268513E-08      0.55558817E-03     -0.41569821E-18      0.17341568E-10     -0.12975184E-25
    0.053380384919         0.45334185E-08      0.52708070E-03     -0.72642863E-16      0.17431861E-10     -0.24024790E-23
    0.056520407561         0.50735959E-08      0.50140622E-03      0.15692531E-15      0.17527616E-10      0.54856251E-23
    0.059660430203         0.56479014E-08      0.47796401E-03     -0.22393812E-16      0.17620510E-10     -0.82556503E-24
    0.062800452845         0.62568834E-08      0.45668576E-03     -0.59899393E-16      0.17718840E-10     -0.23240221E-23
    0.065940475488         0.69011217E-08      0.43708480E-03      0.14398210E-15      0.17813771E-10      0.58681154E-23
    0.069080498130         0.75812269E-08      0.41922233E-03      0.54677004E-16      0.17916410E-10      0.23367448E-23
    0.072220520772         0.82978416E-08      0.40256679E-03     -0.10873696E-15      0.18012127E-10     -0.48652397E-23
    0.075360543414         0.90516395E-08      0.38745155E-03     -0.16223092E-16      0.18122711E-10     -0.75882108E-24
    0.078500566057         0.98433265E-08      0.37304216E-03      0.48879807E-16      0.18215855E-10      0.23868280E-23
    0.081640588699         0.10673641E-07      0.36028218E-03     -0.44585848E-16      0.18343060E-10     -0.22700009E-23
    0.084780611341         0.11543353E-07      0.34747723E-03      0.12688850E-16      0.18424017E-10      0.67279107E-24
    0.087920633984         0.12453265E-07      0.33702007E-03     -0.56298528E-16      0.18589630E-10     -0.31053604E-23
    0.091060656626         0.13404215E-07      0.32502374E-03     -0.76250867E-16      0.18631517E-10     -0.43709710E-23
    0.094200679268         0.14397070E-07      0.31727682E-03     -0.57462296E-16      0.18883434E-10     -0.34199960E-23
    0.097340701910         0.15432734E-07      0.30496534E-03      0.42283137E-16      0.18828748E-10      0.26105869E-23
    0.100480724553         0.16512144E-07      0.29949873E-03     -0.42832459E-16      0.19166298E-10     -0.27410455E-23
    0.103620747195         0.17636269E-07      0.28810755E-03      0.34174004E-16      0.19095770E-10      0.22650532E-23
    0.106760769837         0.18806114E-07      0.28050690E-03      0.28047015E-16      0.19242145E-10      0.19239623E-23
    0.109900792479         0.20022721E-07      0.27307062E-03      0.54536982E-17      0.19374021E-10      0.38693312E-24
    0.113040815122         0.21287162E-07      0.26384263E-03     -0.74903875E-18      0.19348620E-10     -0.54929963E-25
    0.116180837764         0.22600547E-07      0.25801107E-03      0.34973101E-16      0.19545435E-10      0.26493610E-23
    0.119320860406         0.23964023E-07      0.24993296E-03     -0.67868143E-16      0.19547419E-10     -0.53080115E-23
    0.122460883048         0.25378770E-07      0.24438814E-03      0.43235266E-16      0.19723131E-10      0.34892643E-23
    0.125600905691         0.26846007E-07      0.23751824E-03      0.55296076E-16      0.19769989E-10      0.46026058E-23
    0.128740928333         0.28366986E-07      0.23221141E-03     -0.61328504E-16      0.19925199E-10     -0.52623712E-23
    0.131880950975         0.29943001E-07      0.22621470E-03     -0.47270590E-16      0.20001226E-10     -0.41795239E-23
    0.135020973618         0.31575378E-07      0.22120128E-03     -0.14436155E-17      0.20144546E-10     -0.13146840E-24
    0.138160996260         0.33265483E-07      0.21583765E-03     -0.60227279E-16      0.20237559E-10     -0.56470829E-23
    0.141301018902         0.35014721E-07      0.21113846E-03      0.60835560E-17      0.20374890E-10      0.58706397E-24
    0.144441041544         0.36824533E-07      0.20627039E-03      0.36994085E-16      0.20478874E-10      0.36728354E-23
    0.147581064187         0.38696400E-07      0.20187780E-03     -0.84000262E-16      0.20613466E-10     -0.85771521E-23
    0.150721086829         0.40631842E-07      0.19741658E-03     -0.64192098E-17      0.20725197E-10     -0.67390178E-24
    0.153861109471         0.42632417E-07      0.19331207E-03     -0.24745938E-16      0.20858958E-10     -0.26701616E-23
    0.157001132113         0.44699723E-07      0.18919583E-03     -0.20482137E-16      0.20976651E-10     -0.22709097E-23
    0.160141154756         0.46835399E-07      0.18535726E-03      0.17398192E-16      0.21110738E-10      0.19815176E-23
    0.163281177398         0.49041122E-07      0.18153984E-03      0.17447367E-16      0.21233362E-10      0.20406885E-23
    0.166421200040         0.51318613E-07      0.17794516E-03     -0.34387645E-16      0.21368546E-10     -0.41294407E-23
    0.169561222683         0.53669630E-07      0.17439042E-03      0.34258617E-17      0.21495483E-10      0.42227409E-24
    0.172701245325         0.56095974E-07      0.17101878E-03     -0.94739082E-17      0.21632294E-10     -0.11983618E-23
    0.175841267967         0.58599489E-07      0.16769746E-03     -0.22613627E-16      0.21763165E-10     -0.29347140E-23
    0.178981290609         0.61182058E-07      0.16452979E-03      0.10910662E-16      0.21901988E-10      0.14524128E-23
    0.182121313252         0.63845608E-07      0.16141781E-03      0.26035161E-16      0.22036582E-10      0.35542917E-23
    0.185261335894         0.66592107E-07      0.15843680E-03     -0.89419341E-17      0.22177704E-10     -0.12516761E-23
    0.188401358536         0.69423567E-07      0.15551384E-03      0.60973841E-16      0.22315904E-10      0.87496160E-23
    0.191541381178         0.72342043E-07      0.15270403E-03      0.20107099E-16      0.22459557E-10      0.29573322E-23
    0.194681403821         0.75349631E-07      0.14995267E-03     -0.51450834E-17      0.22601300E-10     -0.77548182E-24
    0.197821426463         0.78448474E-07      0.14730028E-03      0.18482970E-16      0.22747689E-10      0.28543386E-23
    0.200961449105         0.81640757E-07      0.14470551E-03     -0.67246448E-17      0.22892957E-10     -0.10638641E-23
    0.204101471747         0.84928709E-07      0.14219819E-03     -0.22141097E-16      0.23042255E-10     -0.35878151E-23
    0.207241494390         0.88314602E-07      0.13974697E-03      0.68293555E-16      0.23191067E-10      0.11333344E-22
    0.210381517032         0.91800755E-07      0.13737367E-03      0.59441278E-16      0.23343433E-10      0.10100651E-22
    0.213521539674         0.95389531E-07      0.13505454E-03      0.36660507E-16      0.23495828E-10      0.63779341E-23
    0.216661562317         0.99083337E-07      0.13280540E-03      0.25818083E-16      0.23651409E-10      0.45979610E-23
    0.219801584959         0.10288463E-06      0.13060823E-03      0.79923470E-17      0.23807443E-10      0.14568557E-23
    0.222941607601         0.10679590E-06      0.12847437E-03     -0.13887158E-16      0.23966382E-10     -0.25905940E-23
    0.226081630243         0.11081969E-06      0.12639021E-03      0.18423186E-16      0.24126129E-10      0.35167293E-23
    0.229221652886         0.11495860E-06      0.12436365E-03     -0.31827362E-17      0.24288564E-10     -0.62159715E-24
    0.232361675528         0.11921526E-06      0.12238449E-03     -0.24031966E-16      0.24452107E-10     -0.48015250E-23
    0.235501698170         0.12359235E-06      0.12045803E-03      0.53181921E-17      0.24618173E-10      0.10868862E-23
    0.238641720812         0.12809259E-06      0.11857671E-03      0.68383413E-17      0.24785609E-10      0.14293907E-23
    0.241781743455         0.13271877E-06      0.11674383E-03     -0.30788844E-16      0.24955444E-10     -0.65814981E-23
    0.244921766097         0.13747370E-06      0.11495390E-03     -0.13355919E-16      0.25126875E-10     -0.29193660E-23
    0.248061788739         0.14236024E-06      0.11320868E-03     -0.34066723E-17      0.25300617E-10     -0.76134544E-24
    0.251201811381         0.14738131E-06      0.11150432E-03     -0.40777379E-16      0.25476156E-10     -0.93166871E-23
    0.254341834024         0.15253987E-06      0.10984140E-03      0.38374221E-17      0.25653947E-10      0.89624696E-24
    0.257481856666         0.15783893E-06      0.10821733E-03      0.19144098E-16      0.25833714E-10      0.45700921E-23
    0.260621879308         0.16328153E-06      0.10663180E-03     -0.25408174E-16      0.26015697E-10     -0.61990078E-23
    0.263761901951         0.16887077E-06      0.10508321E-03      0.17320657E-16      0.26199821E-10      0.43184644E-23
    0.266901924593         0.17460981E-06      0.10357059E-03     -0.18865916E-17      0.26386144E-10     -0.48063717E-24
    0.270041947235         0.18050182E-06      0.10209312E-03     -0.19433032E-16      0.26574761E-10     -0.50584033E-23
    0.273181969877         0.18655005E-06      0.10064929E-03      0.28543067E-16      0.26765577E-10      0.75904323E-23
    0.276321992520         0.19275778E-06      0.99238918E-04      0.41897912E-17      0.26958829E-10      0.11381811E-23
    0.279462015162         0.19912834E-06      0.97860116E-04     -0.77932019E-17      0.27154297E-10     -0.21624634E-23
    0.282602037804         0.20566511E-06      0.96513161E-04      0.30925893E-17      0.27352336E-10      0.87645602E-24
    0.285742060446         0.21237151E-06      0.95195904E-04      0.49539786E-17      0.27552619E-10      0.14338336E-23
    0.288882083089         0.21925100E-06      0.93908984E-04     -0.40518334E-16      0.27755602E-10     -0.11975540E-22
    0.292022105731         0.22630710E-06      0.92650061E-04      0.14772561E-16      0.27960871E-10      0.44582127E-23
    0.295162128373         0.23354337E-06      0.91420053E-04      0.16393035E-16      0.28168967E-10      0.50511332E-23
    0.298302151016         0.24096340E-06      0.90216495E-04     -0.24207874E-16      0.28379400E-10     -0.76150700E-23
    0.301442173658         0.24857086E-06      0.89040511E-04      0.95012037E-17      0.28592780E-10      0.30510363E-23
    0.304582196300         0.25636942E-06      0.87889567E-04     -0.26689755E-17      0.28808562E-10     -0.87484043E-24
    0.307722218942         0.26436283E-06      0.86764932E-04     -0.39972884E-16      0.29027412E-10     -0.13373023E-22
    0.310862241585         0.27255487E-06      0.85664046E-04     -0.46418476E-17      0.29248736E-10     -0.15848910E-23
    0.314002264227         0.28094936E-06      0.84588275E-04      0.52812449E-17      0.29473246E-10      0.18401537E-23
    0.317142286869         0.28955016E-06      0.83535070E-04     -0.26566488E-16      0.29700314E-10     -0.94455302E-23
    0.320282309511         0.29836118E-06      0.82505853E-04     -0.12367284E-16      0.29930686E-10     -0.44864855E-23
    0.323422332154         0.30738639E-06      0.81498113E-04     -0.12353205E-16      0.30163708E-10     -0.45721116E-23
    0.326562354796         0.31662976E-06      0.80513299E-04     -0.18047988E-16      0.30400154E-10     -0.68145465E-23
    0.329702377438         0.32609534E-06      0.79548958E-04      0.56982956E-17      0.30639350E-10      0.21947751E-23
    0.332842400080         0.33578719E-06      0.78606538E-04      0.29526149E-17      0.30882091E-10      0.11599916E-23
    0.335982422723         0.34570944E-06      0.77683664E-04     -0.12678409E-16      0.31127692E-10     -0.50802137E-23
    0.339122445365         0.35586624E-06      0.76781763E-04      0.54360105E-18      0.31376961E-10      0.22214323E-24
    0.342262468007         0.36626178E-06      0.75898549E-04     -0.23648596E-17      0.31629209E-10     -0.98550815E-24
    0.345402490650         0.37690029E-06      0.75035411E-04     -0.19306322E-16      0.31885249E-10     -0.82039515E-23
    0.348542513292         0.38778604E-06      0.74190166E-04     -0.11044765E-16      0.32144398E-10     -0.47853691E-23
    0.351682535934         0.39892335E-06      0.73364147E-04      0.40505400E-17      0.32407466E-10      0.17892628E-23
    0.354822558576         0.41031655E-06      0.72555282E-04     -0.21444682E-16      0.32673781E-10     -0.96571721E-23
    0.357962581219         0.42197002E-06      0.71764843E-04      0.66339963E-17      0.32944146E-10      0.30453817E-23
    0.361102603861         0.43388818E-06      0.70990870E-04      0.13033996E-17      0.33217905E-10      0.60988414E-24
    0.364242626503         0.44607547E-06      0.70234566E-04     -0.21956636E-16      0.33495851E-10     -0.10471428E-22
    0.367382649145         0.45853638E-06      0.69494086E-04      0.43942438E-17      0.33777348E-10      0.21358062E-23
    0.370522671788         0.47127541E-06      0.68770561E-04     -0.15607372E-17      0.34063173E-10     -0.77305844E-24
    0.373662694430         0.48429711E-06      0.68062260E-04     -0.24951222E-17      0.34352713E-10     -0.12593502E-23
    0.376802717072         0.49760605E-06      0.67370241E-04     -0.73668030E-18      0.34646732E-10     -0.37885518E-24
    0.379942739715         0.51120685E-06      0.66692882E-04     -0.16665756E-17      0.34944638E-10     -0.87322485E-24
    0.383082762357         0.52510413E-06      0.66031181E-04     -0.21759740E-16      0.35247185E-10     -0.11615264E-22
    0.386222784999         0.53930256E-06      0.65383595E-04      0.33157169E-17      0.35553792E-10      0.18029952E-23
    0.389362807641         0.55380682E-06      0.64751075E-04      0.22502975E-17      0.35865208E-10      0.12464255E-23
    0.392502830284         0.56862162E-06      0.64132209E-04     -0.10063036E-16      0.36180896E-10     -0.56771732E-23
    0.395642852926         0.58375171E-06      0.63527799E-04      0.48615863E-17      0.36501540E-10      0.27933502E-23
    0.398782875568         0.59920184E-06      0.62936597E-04      0.59431182E-17      0.36826669E-10      0.34775513E-23
    0.401922898210         0.61497679E-06      0.62359325E-04     -0.10609666E-16      0.37156939E-10     -0.63217925E-23
    0.405062920853         0.63108138E-06      0.61794839E-04      0.84997832E-17      0.37491915E-10      0.51569541E-23
    0.408202943495         0.64752043E-06      0.61243768E-04     -0.14750597E-17      0.37832217E-10     -0.91119114E-24
    0.411342966137         0.66429877E-06      0.60705079E-04     -0.41847503E-17      0.38177452E-10     -0.26317914E-23
    0.414482988779         0.68142128E-06      0.60179340E-04      0.86757042E-17      0.38528220E-10      0.55543886E-23
    0.417623011422         0.69889282E-06      0.59665607E-04      0.37185442E-18      0.38884164E-10      0.24233807E-24
    0.420763034064         0.71671828E-06      0.59164371E-04     -0.14301546E-16      0.39245846E-10     -0.94867277E-23
    0.423903056706         0.73490258E-06      0.58674807E-04      0.14166623E-16      0.39612973E-10      0.95642758E-23
    0.427043079349         0.75345064E-06      0.58197322E-04      0.58949355E-17      0.39986064E-10      0.40502769E-23
    0.430183101991         0.77236737E-06      0.57731123E-04     -0.74172396E-18      0.40364829E-10     -0.51860347E-24
    0.433323124633         0.79165771E-06      0.57276704E-04      0.68442444E-17      0.40749862E-10      0.48693796E-23
    0.436463147275         0.81132662E-06      0.56833231E-04     -0.81037484E-17      0.41140829E-10     -0.58661969E-23
    0.439603169918         0.83137904E-06      0.56401171E-04     -0.86364448E-17      0.41538319E-10     -0.63605665E-23
    0.442743192560         0.85181993E-06      0.55979730E-04      0.50673372E-18      0.41942010E-10      0.37966298E-24
    0.445883215202         0.87265424E-06      0.55569377E-04     -0.69740115E-18      0.42352510E-10     -0.53152817E-24
    0.449023237844         0.89388696E-06      0.55169492E-04     -0.88298337E-17      0.42769612E-10     -0.68452427E-23
    0.452163260487         0.91552302E-06      0.54780273E-04     -0.19342199E-17      0.43193732E-10     -0.15251143E-23
    0.455303283129         0.93756741E-06      0.54401248E-04     -0.26190843E-18      0.43624768E-10     -0.21002633E-24
    0.458443305771         0.96002506E-06      0.54032684E-04     -0.75599561E-17      0.44063199E-10     -0.61650805E-23
    0.461583328413         0.98290095E-06      0.53674042E-04      0.20067138E-18      0.44508861E-10      0.16640547E-24
    0.464723351056         0.10062000E-05      0.53325605E-04     -0.94080477E-18      0.44962263E-10     -0.79325328E-24
    0.467863373698         0.10299272E-05      0.52986882E-04     -0.11006094E-16      0.45423268E-10     -0.94350289E-23
    0.471003396340         0.10540874E-05      0.52658124E-04     -0.10844540E-17      0.45892373E-10     -0.94511847E-24
    0.474143418983         0.10786856E-05      0.52338883E-04      0.72031056E-18      0.46369472E-10      0.63815692E-24
    0.477283441625         0.11037267E-05      0.52029395E-04     -0.52887148E-17      0.46855060E-10     -0.47627509E-23
    0.480423464267         0.11292155E-05      0.51729246E-04     -0.14879310E-17      0.47349055E-10     -0.13619400E-23
    0.483563486909         0.11551570E-05      0.51438659E-04     -0.16342179E-17      0.47851955E-10     -0.15202675E-23
    0.486703509552         0.11815559E-05      0.51157251E-04      0.18627069E-18      0.48363704E-10      0.17609900E-24
    0.489843532194         0.12084172E-05      0.50885235E-04      0.22097527E-17      0.48884802E-10      0.21228815E-23
    0.492983554836         0.12357457E-05      0.50622258E-04      0.48294365E-17      0.49415219E-10      0.47142833E-23
    0.496123577478         0.12635461E-05      0.50368523E-04      0.28050446E-17      0.49955461E-10      0.27820410E-23
    0.499263600121         0.12918231E-05      0.50123707E-04     -0.30945108E-18      0.50505524E-10     -0.31180832E-24
    0.502403622763         0.13205817E-05      0.49888004E-04      0.96119751E-18      0.51065921E-10      0.98389256E-24
    0.505543645405         0.13498263E-05      0.49661120E-04     -0.87757309E-17      0.51636677E-10     -0.91248361E-23
    0.508683668048         0.13795618E-05      0.49443242E-04     -0.72845692E-17      0.52218314E-10     -0.76934259E-23
