
 # Omega; pulse ft; projected flux at t=    1000.0500000000001     
    0.000000000000         0.18717486E-09      0.00000000E+00      0.00000000E+00      0.37350403E-15      0.25243549E-28
    0.003140022642         0.20186436E-09      0.16362227E-07     -0.83071968E-22      0.40963008E-15     -0.20797155E-29
    0.006280045285         0.24594737E-09      0.30050239E-07     -0.17434502E-20      0.45830004E-15     -0.26589581E-28
    0.009420067927         0.31946741E-09      0.38080707E-07      0.26817755E-20      0.50292136E-15      0.35417466E-28
    0.012560090569         0.42249703E-09      0.43292950E-07      0.10369281E-20      0.56711431E-15      0.13583199E-28
    0.015700113211         0.55513782E-09      0.45078214E-07      0.14216234E-21      0.62070791E-15      0.19575152E-29
    0.018840135854         0.71752051E-09      0.47341973E-07      0.19744601E-20      0.70213268E-15      0.29283380E-28
    0.021980158496         0.90980495E-09      0.47340164E-07      0.23386820E-20      0.76307949E-15      0.37697382E-28
    0.025120181138         0.11321802E-08      0.48946006E-07     -0.42838569E-21      0.85907799E-15     -0.75188305E-29
    0.028260203780         0.13848647E-08      0.48268785E-07      0.13077878E-20      0.92113007E-15      0.24956971E-28
    0.031400226423         0.16681061E-08      0.49288804E-07      0.11938522E-20      0.10196748E-14      0.24698126E-28
    0.034540249065         0.19821816E-08      0.47890556E-07     -0.50176690E-21      0.10702627E-14     -0.11213535E-28
    0.037680271707         0.23273981E-08      0.47768771E-07      0.58763821E-21      0.11490085E-14      0.14134785E-28
    0.040820294349         0.27040919E-08      0.45531497E-07      0.40709165E-21      0.11745724E-14      0.10501711E-28
    0.043960316992         0.31126296E-08      0.43999047E-07      0.38354699E-21      0.12132001E-14      0.10575667E-28
    0.047100339634         0.35534072E-08      0.41202408E-07      0.37737936E-21      0.12105036E-14      0.11087194E-28
    0.050240362276         0.40268513E-08      0.38697780E-07      0.15373385E-20      0.12078734E-14      0.47984930E-28
    0.053380384919         0.45334185E-08      0.35910210E-07      0.80818955E-21      0.11876394E-14      0.26728826E-28
    0.056520407561         0.50735959E-08      0.33220565E-07      0.55535142E-21      0.11612886E-14      0.19413374E-28
    0.059660430203         0.56479014E-08      0.30907817E-07      0.81329863E-21      0.11394404E-14      0.29982877E-28
    0.062800452845         0.62568834E-08      0.28623602E-07      0.14184829E-21      0.11105602E-14      0.55035374E-29
    0.065940475488         0.69011217E-08      0.26994558E-07      0.75910880E-21      0.11001866E-14      0.30938139E-28
    0.069080498130         0.75812269E-08      0.25378061E-07      0.32302185E-21      0.10845886E-14      0.13805066E-28
    0.072220520772         0.82978416E-08      0.24489245E-07     -0.32727274E-21      0.10957272E-14     -0.14643231E-28
    0.075360543414         0.90516395E-08      0.23620980E-07      0.12998157E-20      0.11048509E-14      0.60797756E-28
    0.078500566057         0.98433265E-08      0.23526603E-07     -0.12192028E-21      0.11488170E-14     -0.59534346E-29
    0.081640588699         0.10673641E-07      0.23448961E-07     -0.24355073E-21      0.11938578E-14     -0.12399907E-28
    0.084780611341         0.11543353E-07      0.24302119E-07      0.19992217E-21      0.12885525E-14      0.10600318E-28
    0.087920633984         0.12453265E-07      0.25051173E-07      0.10055832E-21      0.13817931E-14      0.55466782E-29
    0.091060656626         0.13404215E-07      0.27040317E-07     -0.45950669E-21      0.15500472E-14     -0.26340559E-28
    0.094200679268         0.14397070E-07      0.28105003E-07      0.57200721E-21      0.16727316E-14      0.34044278E-28
    0.097340701910         0.15432734E-07      0.30197115E-07     -0.19205454E-21      0.18643884E-14     -0.11857565E-28
    0.100480724553         0.16512144E-07      0.28667765E-07     -0.93222894E-22      0.18345818E-14     -0.59657606E-29
    0.103620747195         0.17636269E-07      0.26297265E-07      0.94862214E-21      0.17429828E-14      0.62874679E-28
    0.106760769837         0.18806114E-07      0.20717785E-07      0.37410306E-21      0.14211936E-14      0.25662631E-28
    0.109900792479         0.20022721E-07      0.15015589E-07     -0.78699841E-22      0.10653374E-14     -0.55836561E-29
    0.113040815122         0.21287162E-07      0.10887748E-07      0.46877447E-21      0.79844145E-15      0.34377079E-28
    0.116180837764         0.22600547E-07      0.73787494E-08      0.21738017E-21      0.55897161E-15      0.16467471E-28
    0.119320860406         0.23964023E-07      0.56157446E-08     -0.41909621E-21      0.43921103E-15     -0.32777787E-28
    0.122460883048         0.25378770E-07      0.40335930E-08     -0.15147011E-21      0.32552759E-15     -0.12224263E-28
    0.125600905691         0.26846007E-07      0.33250784E-08      0.50811657E-21      0.27676512E-15      0.42293422E-28
    0.128740928333         0.28366986E-07      0.25980453E-08      0.13890818E-21      0.22292862E-15      0.11919195E-28
    0.131880950975         0.29943001E-07      0.22878786E-08      0.13740305E-21      0.20228737E-15      0.12148766E-28
    0.135020973618         0.31575378E-07      0.19218743E-08      0.43135284E-21      0.17502288E-15      0.39282808E-28
    0.138160996260         0.33265483E-07      0.17687808E-08      0.18318779E-21      0.16584598E-15      0.17176214E-28
    0.141301018902         0.35014721E-07      0.15656378E-08     -0.20101492E-22      0.15108426E-15     -0.19397966E-29
    0.144441041544         0.36824533E-07      0.14797361E-08      0.13187972E-21      0.14691070E-15      0.13093242E-28
    0.147581064187         0.38696400E-07      0.13562717E-08      0.69621855E-22      0.13848706E-15      0.71089926E-29
    0.150721086829         0.40631842E-07      0.13015699E-08      0.21870565E-21      0.13664147E-15      0.22960166E-28
    0.153861109471         0.42632417E-07      0.12201762E-08      0.18041477E-21      0.13166071E-15      0.19467300E-28
    0.157001132113         0.44699723E-07      0.11811687E-08     -0.32242693E-21      0.13095935E-15     -0.35748341E-28
    0.160141154756         0.46835399E-07      0.11235909E-08      0.24247759E-21      0.12796819E-15      0.27616295E-28
    0.163281177398         0.49041122E-07      0.10931470E-08      0.26208938E-21      0.12785726E-15      0.30654642E-28
    0.166421200040         0.51318613E-07      0.10498699E-08      0.23337294E-21      0.12607364E-15      0.28024592E-28
    0.169561222683         0.53669630E-07      0.10245105E-08      0.63311896E-22      0.12628187E-15      0.78038681E-29
    0.172701245325         0.56095974E-07      0.99030094E-09      0.16199093E-21      0.12526391E-15      0.20490354E-28
    0.175841267967         0.58599489E-07      0.96822169E-09     -0.22096727E-21      0.12565228E-15     -0.28676326E-28
    0.178981290609         0.61182058E-07      0.94005428E-09      0.62315565E-22      0.12513878E-15      0.82953655E-29
    0.182121313252         0.63845608E-07      0.92026525E-09      0.13803831E-21      0.12563360E-15      0.18844839E-28
    0.185261335894         0.66592107E-07      0.89631584E-09     -0.74198358E-22      0.12546471E-15     -0.10386155E-28
    0.188401358536         0.69423567E-07      0.87824579E-09      0.19126984E-21      0.12602640E-15      0.27446813E-28
    0.191541381178         0.72342043E-07      0.85736621E-09      0.83658309E-22      0.12610057E-15      0.12304381E-28
    0.194681403821         0.75349631E-07      0.84067341E-09      0.83567811E-22      0.12670872E-15      0.12595582E-28
    0.197821426463         0.78448474E-07      0.82211594E-09     -0.97364822E-22      0.12695996E-15     -0.15036120E-28
    0.200961449105         0.81640757E-07      0.80657370E-09     -0.94750577E-22      0.12760300E-15     -0.14989898E-28
    0.204101471747         0.84928709E-07      0.78982746E-09     -0.44336863E-22      0.12798620E-15     -0.71844891E-29
    0.207241494390         0.88314602E-07      0.77527653E-09      0.29629189E-21      0.12865746E-15      0.49169762E-28
    0.210381517032         0.91800755E-07      0.75999296E-09      0.19965793E-21      0.12914297E-15      0.33927182E-28
    0.213521539674         0.95389531E-07      0.74632169E-09      0.47912207E-23      0.12983974E-15      0.83354248E-30
    0.216661562317         0.99083337E-07      0.73224545E-09      0.21524821E-21      0.13040612E-15      0.38333710E-28
    0.219801584959         0.10288463E-06      0.71936664E-09     -0.97846835E-22      0.13112711E-15     -0.17835652E-28
    0.222941607601         0.10679590E-06      0.70631078E-09     -0.17308239E-21      0.13175946E-15     -0.32287830E-28
    0.226081630243         0.11081969E-06      0.69415220E-09      0.14824186E-21      0.13250397E-15      0.28297303E-28
    0.229221652886         0.11495860E-06      0.68197669E-09     -0.13569085E-22      0.13319193E-15     -0.26500796E-29
    0.232361675528         0.11921526E-06      0.67048082E-09     -0.19648980E-22      0.13396034E-15     -0.39258156E-29
    0.235501698170         0.12359235E-06      0.65907408E-09      0.55667547E-22      0.13469588E-15      0.11376853E-28
    0.238641720812         0.12809259E-06      0.64818632E-09      0.14226157E-22      0.13548776E-15      0.29736358E-29
    0.241781743455         0.13271877E-06      0.63746345E-09      0.17586885E-23      0.13626574E-15      0.37594153E-30
    0.244921766097         0.13747370E-06      0.62714276E-09      0.13907299E-21      0.13708224E-15      0.30398878E-28
    0.248061788739         0.14236024E-06      0.61703447E-09      0.13236718E-21      0.13789890E-15      0.29582284E-28
    0.251201811381         0.14738131E-06      0.60724127E-09      0.13747391E-21      0.13874057E-15      0.31409606E-28
    0.254341834024         0.15253987E-06      0.59768789E-09      0.23683004E-22      0.13959266E-15      0.55312708E-29
    0.257481856666         0.15783893E-06      0.58838774E-09      0.12575306E-21      0.14046032E-15      0.30019855E-28
    0.260621879308         0.16328153E-06      0.57934284E-09      0.16969996E-21      0.14134628E-15      0.41402872E-28
    0.263761901951         0.16887077E-06      0.57050189E-09      0.69953899E-22      0.14224010E-15      0.17441222E-28
    0.266901924593         0.17460981E-06      0.56192459E-09      0.17808089E-21      0.14315862E-15      0.45368747E-28
    0.270041947235         0.18050182E-06      0.55351535E-09      0.91343951E-22      0.14407962E-15      0.23776761E-28
    0.273181969877         0.18655005E-06      0.54536891E-09      0.97127508E-22      0.14502947E-15      0.25829032E-28
    0.276321992520         0.19275778E-06      0.53736714E-09      0.15350960E-21      0.14597891E-15      0.41701776E-28
    0.279462015162         0.19912834E-06      0.52962610E-09     -0.28029606E-22      0.14696104E-15     -0.77776755E-29
    0.282602037804         0.20566511E-06      0.52200082E-09      0.86865038E-22      0.14793777E-15      0.24618007E-28
    0.285742060446         0.21237151E-06      0.51463329E-09      0.86589777E-22      0.14895068E-15      0.25061741E-28
    0.288882083089         0.21925100E-06      0.50737351E-09     -0.52661633E-22      0.14995857E-15     -0.15564595E-28
    0.292022105731         0.22630710E-06      0.50035768E-09      0.86014929E-22      0.15100300E-15      0.25958454E-28
    0.295162128373         0.23354337E-06      0.49343895E-09      0.97896992E-22      0.15204176E-15      0.30164685E-28
    0.298302151016         0.24096340E-06      0.48675873E-09     -0.32884751E-22      0.15311968E-15     -0.10344555E-28
    0.301442173658         0.24857086E-06      0.48016299E-09      0.20968291E-21      0.15419043E-15      0.67333592E-28
    0.304582196300         0.25636942E-06      0.47380182E-09      0.70855689E-22      0.15530341E-15      0.23225174E-28
    0.307722218942         0.26436283E-06      0.46750090E-09     -0.77223174E-22      0.15640353E-15     -0.25835195E-28
    0.310862241585         0.27255487E-06      0.46140728E-09      0.16193734E-21      0.15754077E-15      0.55291138E-28
    0.314002264227         0.28094936E-06      0.45540161E-09      0.71378926E-22      0.15867641E-15      0.24870689E-28
    0.317142286869         0.28955016E-06      0.44959711E-09     -0.12815011E-21      0.15985113E-15     -0.45562880E-28
    0.320282309511         0.29836118E-06      0.44386588E-09      0.16115422E-21      0.16102143E-15      0.58461989E-28
    0.323422332154         0.30738639E-06      0.43832757E-09      0.13446084E-21      0.16223179E-15      0.49766030E-28
    0.326562354796         0.31662976E-06      0.43285840E-09     -0.12493116E-21      0.16343836E-15     -0.47171417E-28
    0.329702377438         0.32609534E-06      0.42757110E-09      0.17610631E-21      0.16468476E-15      0.67829712E-28
    0.332842400080         0.33578719E-06      0.42235019E-09      0.60567862E-22      0.16592840E-15      0.23795250E-28
    0.335982422723         0.34570944E-06      0.41730248E-09      0.16780233E-22      0.16721229E-15      0.67238066E-29
    0.339122445365         0.35586624E-06      0.41231850E-09      0.98450475E-22      0.16849446E-15      0.40231906E-28
    0.342262468007         0.36626178E-06      0.40749748E-09     -0.80924810E-22      0.16981646E-15     -0.33723804E-28
    0.345402490650         0.37690029E-06      0.40273882E-09     -0.64829764E-23      0.17113823E-15     -0.27548502E-29
    0.348542513292         0.38778604E-06      0.39813529E-09      0.80523874E-22      0.17250021E-15      0.34888606E-28
    0.351682535934         0.39892335E-06      0.39359359E-09      0.51175087E-22      0.17386382E-15      0.22605795E-28
    0.354822558576         0.41031655E-06      0.38919728E-09     -0.99028150E-22      0.17526700E-15     -0.44595293E-28
    0.357962581219         0.42197002E-06      0.38486160E-09      0.88499568E-22      0.17667337E-15      0.40626337E-28
    0.361102603861         0.43388818E-06      0.38066463E-09      0.86520691E-22      0.17811983E-15      0.40484588E-28
    0.364242626503         0.44607547E-06      0.37652648E-09      0.30613671E-22      0.17957077E-15      0.14600090E-28
    0.367382649145         0.45853638E-06      0.37252001E-09      0.35123075E-22      0.18106200E-15      0.17071443E-28
    0.370522671788         0.47127541E-06      0.36857119E-09      0.12131445E-22      0.18255928E-15      0.60089014E-29
    0.373662694430         0.48429711E-06      0.36474652E-09     -0.13880971E-21      0.18409663E-15     -0.70060709E-28
    0.376802717072         0.49760605E-06      0.36098075E-09      0.39954149E-22      0.18564284E-15      0.20547361E-28
    0.379942739715         0.51120685E-06      0.35733143E-09      0.35933591E-22      0.18722864E-15      0.18827891E-28
    0.383082762357         0.52510413E-06      0.35373950E-09     -0.77932546E-23      0.18882476E-15     -0.41600087E-29
    0.386222784999         0.53930256E-06      0.35025909E-09      0.66529067E-23      0.19046122E-15      0.36176668E-29
    0.389362807641         0.55380682E-06      0.34683498E-09      0.64679166E-22      0.19210969E-15      0.35825378E-28
    0.392502830284         0.56862162E-06      0.34351670E-09     -0.63742370E-22      0.19379875E-15     -0.35960964E-28
    0.395642852926         0.58375171E-06      0.34025431E-09      0.33948204E-22      0.19550191E-15      0.19505818E-28
    0.398782875568         0.59920184E-06      0.33709262E-09      0.84776057E-22      0.19724610E-15      0.49605792E-28
    0.401922898210         0.61497679E-06      0.33398592E-09     -0.21824002E-22      0.19900624E-15     -0.13003879E-28
    0.405062920853         0.63108138E-06      0.33097509E-09      0.80410142E-22      0.20080787E-15      0.48786117E-28
    0.408202943495         0.64752043E-06      0.32801867E-09      0.52487862E-22      0.20262753E-15      0.32423416E-28
    0.411342966137         0.66429877E-06      0.32515380E-09     -0.17119909E-22      0.20448937E-15     -0.10766719E-28
    0.414482988779         0.68142128E-06      0.32234246E-09      0.51683551E-22      0.20637117E-15      0.33089017E-28
    0.417623011422         0.69889282E-06      0.31961879E-09      0.39510288E-22      0.20829604E-15      0.25748913E-28
    0.420763034064         0.71671828E-06      0.31694790E-09     -0.45980582E-22      0.21024289E-15     -0.30500567E-28
    0.423903056706         0.73490258E-06      0.31436106E-09      0.89113499E-22      0.21223378E-15      0.60162970E-28
    0.427043079349         0.75345064E-06      0.31182608E-09      0.10500994E-21      0.21424865E-15      0.72149958E-28
    0.430183101991         0.77236737E-06      0.30937175E-09      0.55443163E-23      0.21630859E-15      0.38765118E-29
    0.433323124633         0.79165771E-06      0.30696853E-09      0.59467938E-22      0.21839464E-15      0.42308829E-28
    0.436463147275         0.81132662E-06      0.30464325E-09      0.11689349E-22      0.22052724E-15      0.84617658E-29
    0.439603169918         0.83137904E-06      0.30236817E-09     -0.74459835E-22      0.22268803E-15     -0.54838159E-28
    0.442743192560         0.85181993E-06      0.30016790E-09      0.17767477E-23      0.22489650E-15      0.13312028E-29
    0.445883215202         0.87265424E-06      0.29801761E-09      0.59029581E-23      0.22713578E-15      0.44989724E-29
    0.449023237844         0.89388696E-06      0.29594008E-09     -0.29708261E-22      0.22942467E-15     -0.23031041E-28
    0.452163260487         0.91552302E-06      0.29391079E-09      0.26309224E-22      0.23174590E-15      0.20744577E-28
    0.455303283129         0.93756741E-06      0.29195244E-09     -0.73549232E-23      0.23411884E-15     -0.58979679E-29
    0.458443305771         0.96002506E-06      0.29004164E-09     -0.38474597E-22      0.23652652E-15     -0.31375710E-28
    0.461583328413         0.98290095E-06      0.28819999E-09      0.33332718E-22      0.23898803E-15      0.27640947E-28
    0.464723351056         0.10062000E-05      0.28640509E-09      0.22425052E-22      0.24148663E-15      0.18908010E-28
    0.467863373698         0.10299272E-05      0.28467760E-09      0.21531648E-22      0.24404130E-15      0.18458113E-28
    0.471003396340         0.10540874E-05      0.28299625E-09      0.10409339E-22      0.24663563E-15      0.90719004E-29
    0.474143418983         0.10786856E-05      0.28138100E-09      0.17084848E-22      0.24928863E-15      0.15136269E-28
    0.477283441625         0.11037267E-05      0.27981104E-09      0.47590189E-22      0.25198377E-15      0.42857334E-28
    0.480423464267         0.11292155E-05      0.27830571E-09      0.24804754E-22      0.25474008E-15      0.22704403E-28
    0.483563486909         0.11551570E-05      0.27684533E-09      0.26062422E-22      0.25754152E-15      0.24245147E-28
    0.486703509552         0.11815559E-05      0.27544877E-09      0.29413533E-22      0.26040733E-15      0.27807347E-28
    0.489843532194         0.12084172E-05      0.27409667E-09      0.52989331E-22      0.26332121E-15      0.50906180E-28
    0.492983554836         0.12357457E-05      0.27280739E-09      0.53147173E-22      0.26630256E-15      0.51879930E-28
    0.496123577478         0.12635461E-05      0.27156216E-09      0.64376367E-22      0.26933514E-15      0.63848430E-28
    0.499263600121         0.12918231E-05      0.27037885E-09      0.14410201E-22      0.27243846E-15      0.14519971E-28
    0.502403622763         0.13205817E-05      0.26923956E-09      0.27936591E-23      0.27559664E-15      0.28596208E-29
    0.505543645405         0.13498263E-05      0.26816173E-09     -0.41727402E-23      0.27882941E-15     -0.43387350E-29
    0.508683668048         0.13795618E-05      0.26712776E-09      0.37136822E-22      0.28212069E-15      0.39221178E-28
