
 # Omega; pulse ft; projected flux at t=    1000.0500000000001     
    0.000000000000         0.10847490E-10      0.00000000E+00     -0.00000000E+00      0.28057929E-08     -0.21175854E-21
    0.003140022642         0.11093634E-10      0.20483663E+01      0.19254699E-13      0.28181962E-08      0.26491120E-22
    0.006280045285         0.11830642E-10      0.38585674E+01     -0.29595502E-12      0.28307022E-08     -0.21711698E-21
    0.009420067927         0.13054251E-10      0.52687089E+01      0.13164293E-11      0.28433129E-08      0.71042462E-21
    0.012560090569         0.14757372E-10      0.62419996E+01      0.63749868E-12      0.28560286E-08      0.29168769E-21
    0.015700113211         0.16930121E-10      0.68316914E+01      0.11220793E-11      0.28688515E-08      0.47119792E-21
    0.018840135854         0.19559852E-10      0.71278240E+01     -0.15251530E-11      0.28817815E-08     -0.61661983E-21
    0.021980158496         0.22631207E-10      0.72197535E+01      0.13495018E-11      0.28948216E-08      0.54109425E-21
    0.025120181138         0.26126176E-10      0.71798340E+01     -0.29834999E-11      0.29079707E-08     -0.12083748E-20
    0.028260203780         0.30024165E-10      0.70607041E+01      0.44583551E-12      0.29212331E-08      0.18445603E-21
    0.031400226423         0.34302079E-10      0.68982618E+01      0.85028732E-12      0.29346065E-08      0.36172282E-21
    0.034540249065         0.38934408E-10      0.67160056E+01     -0.20543851E-12      0.29480965E-08     -0.90180475E-22
    0.037680271707         0.43893332E-10      0.65288084E+01     -0.80744273E-12      0.29616995E-08     -0.36628472E-21
    0.040820294349         0.49148832E-10      0.63458391E+01     -0.13257988E-11      0.29754227E-08     -0.62163753E-21
    0.043960316992         0.54668813E-10      0.61725184E+01     -0.23873911E-11      0.29892605E-08     -0.11561786E-20
    0.047100339634         0.60419233E-10      0.60119290E+01     -0.36897403E-12      0.30032228E-08     -0.18431875E-21
    0.050240362276         0.66364250E-10      0.58656312E+01      0.34495061E-12      0.30173016E-08      0.17744382E-21
    0.053380384919         0.72466374E-10      0.57343130E+01     -0.41345353E-12      0.30315083E-08     -0.21857681E-21
    0.056520407561         0.78686628E-10      0.56180840E+01     -0.19161137E-12      0.30458353E-08     -0.10388180E-21
    0.059660430203         0.84984724E-10      0.55167771E+01     -0.37773005E-12      0.30602892E-08     -0.20953596E-21
    0.062800452845         0.91319245E-10      0.54300634E+01     -0.32571692E-12      0.30748716E-08     -0.18444309E-21
    0.065940475488         0.97647837E-10      0.53575425E+01      0.28572635E-12      0.30895749E-08      0.16477199E-21
    0.069080498130         0.10392742E-09      0.52988627E+01      0.12181150E-12      0.31044158E-08      0.71365037E-22
    0.072220520772         0.11011438E-09      0.52536606E+01     -0.13551835E-12      0.31193777E-08     -0.80464454E-22
    0.075360543414         0.11616481E-09      0.52217069E+01      0.28216928E-12      0.31344807E-08      0.16938028E-21
    0.078500566057         0.12203475E-09      0.52028040E+01     -0.14705122E-11      0.31497113E-08     -0.89022933E-21
    0.081640588699         0.12768041E-09      0.51969018E+01     -0.70615806E-12      0.31650835E-08     -0.43007341E-21
    0.084780611341         0.13305840E-09      0.52040251E+01     -0.12906882E-11      0.31805899E-08     -0.78884130E-21
    0.087920633984         0.13812604E-09      0.52243463E+01     -0.34626692E-12      0.31962391E-08     -0.21184505E-21
    0.091060656626         0.14284161E-09      0.52581475E+01     -0.17210036E-11      0.32120276E-08     -0.10513039E-20
    0.094200679268         0.14716459E-09      0.53058689E+01     -0.12771124E-11      0.32279616E-08     -0.77696412E-21
    0.097340701910         0.15105600E-09      0.53680921E+01      0.18999943E-12      0.32440387E-08      0.11482022E-21
    0.100480724553         0.15447866E-09      0.54455858E+01     -0.15231867E-11      0.32602649E-08     -0.91192982E-21
    0.103620747195         0.15739751E-09      0.55392971E+01     -0.38880690E-12      0.32766370E-08     -0.22998930E-21
    0.106760769837         0.15977989E-09      0.56504158E+01      0.45948872E-12      0.32931641E-08      0.26779831E-21
    0.109900792479         0.16159592E-09      0.57803570E+01     -0.13389225E-11      0.33098382E-08     -0.76666840E-21
    0.113040815122         0.16281876E-09      0.59308692E+01      0.68539129E-12      0.33266725E-08      0.38444152E-21
    0.116180837764         0.16342499E-09      0.61040091E+01      0.27964846E-12      0.33436567E-08      0.15318595E-21
    0.119320860406         0.16339494E-09      0.63022945E+01     -0.22067225E-13      0.33608061E-08     -0.11767724E-22
    0.122460883048         0.16271302E-09      0.65286945E+01     -0.17626508E-11      0.33781101E-08     -0.91203970E-21
    0.125600905691         0.16136811E-09      0.67868358E+01      0.73691450E-13      0.33955867E-08      0.36869273E-22
    0.128740928333         0.15935390E-09      0.70810197E+01     -0.23354419E-12      0.34132210E-08     -0.11257389E-21
    0.131880950975         0.15666928E-09      0.74165456E+01      0.38512049E-12      0.34310417E-08      0.17816441E-21
    0.135020973618         0.15331870E-09      0.77997367E+01     -0.15301689E-11      0.34490252E-08     -0.67663707E-21
    0.138160996260         0.14931255E-09      0.82383773E+01      0.10067386E-11      0.34671695E-08      0.42369184E-21
    0.141301018902         0.14466758E-09      0.87421216E+01      0.44803816E-12      0.34855018E-08      0.17863373E-21
    0.144441041544         0.13940727E-09      0.93226181E+01      0.12619699E-12      0.35039287E-08      0.47431445E-22
    0.147581064187         0.13356225E-09      0.99950313E+01     -0.43556922E-11      0.35225713E-08     -0.15350864E-20
    0.150721086829         0.12717068E-09      0.10778014E+02     -0.33055803E-11      0.35413942E-08     -0.10861336E-20
    0.153861109471         0.12027870E-09      0.11695452E+02     -0.43509773E-11      0.35604052E-08     -0.13245527E-20
    0.157001132113         0.11294082E-09      0.12778061E+02     -0.28635768E-11      0.35796094E-08     -0.80219421E-21
    0.160141154756         0.10522036E-09      0.14065731E+02      0.49929170E-13      0.35989985E-08      0.12775376E-22
    0.163281177398         0.97189861E-10      0.15611014E+02      0.72487022E-12      0.36185826E-08      0.16802258E-21
    0.166421200040         0.88931555E-10      0.17483784E+02     -0.18549806E-11      0.36383562E-08     -0.38601942E-21
    0.169561222683         0.80537758E-10      0.19778215E+02     -0.49121436E-11      0.36583280E-08     -0.90858715E-21
    0.172701245325         0.72111337E-10      0.22622446E+02     -0.40444529E-11      0.36784951E-08     -0.65764330E-21
    0.175841267967         0.63766150E-10      0.26192473E+02     -0.94687561E-11      0.36988646E-08     -0.13371646E-20
    0.178981290609         0.55627495E-10      0.30730711E+02      0.41223136E-11      0.37194354E-08      0.49893668E-21
    0.182121313252         0.47832561E-10      0.36568824E+02     -0.37715341E-11      0.37402136E-08     -0.38574779E-21
    0.185261335894         0.40530887E-10      0.44147128E+02     -0.90407080E-11      0.37611990E-08     -0.77024041E-21
    0.188401358536         0.33884816E-10      0.54003694E+02      0.83421533E-11      0.37823970E-08      0.58428106E-21
    0.191541381178         0.28069961E-10      0.66652573E+02     -0.51243170E-12      0.38038085E-08     -0.29244064E-22
    0.194681403821         0.23275664E-10      0.82163902E+02      0.27511632E-11      0.38254383E-08      0.12809037E-21
    0.197821426463         0.19705465E-10      0.99178782E+02     -0.62535680E-11      0.38472878E-08     -0.24258491E-21
    0.200961449105         0.17577570E-10      0.11359800E+03     -0.14014566E-10      0.38693616E-08     -0.47736246E-21
    0.204101471747         0.17125315E-10      0.11910228E+03     -0.12424750E-10      0.38916615E-08     -0.40597812E-21
    0.207241494390         0.18597645E-10      0.11200524E+03      0.25539665E-10      0.39141919E-08      0.89252210E-21
    0.210381517032         0.22259579E-10      0.95549532E+02      0.23986252E-12      0.39369551E-08      0.98831252E-23
    0.213521539674         0.28392684E-10      0.76472094E+02      0.35956423E-11      0.39599553E-08      0.18619319E-21
    0.216661562317         0.37295552E-10      0.59420169E+02      0.32478696E-11      0.39831953E-08      0.21771898E-21
    0.219801584959         0.49284270E-10      0.45886454E+02     -0.46633015E-11      0.40066790E-08     -0.40718667E-21
    0.222941607601         0.64692893E-10      0.35666557E+02     -0.54872415E-11      0.40304095E-08     -0.62007192E-21
    0.226081630243         0.83873922E-10      0.28063472E+02      0.27969718E-11      0.40543910E-08      0.40408460E-21
    0.229221652886         0.10719877E-09      0.22395318E+02     -0.31654838E-12      0.40786265E-08     -0.57649668E-22
    0.232361675528         0.13505825E-09      0.18127383E+02      0.26113738E-12      0.41031204E-08      0.59108263E-22
    0.235501698170         0.16786301E-09      0.14871101E+02     -0.45003638E-11      0.41278760E-08     -0.12491976E-20
    0.238641720812         0.20604406E-09      0.12351365E+02     -0.20199050E-11      0.41528977E-08     -0.67915237E-21
    0.241781743455         0.25005319E-09      0.10374248E+02     -0.39025547E-11      0.41781889E-08     -0.15717391E-20
    0.244921766097         0.30036346E-09      0.88022776E+01      0.69167154E-12      0.42037542E-08      0.33032555E-21
    0.248061788739         0.35746965E-09      0.75369768E+01     -0.11547418E-13      0.42295973E-08     -0.64801748E-23
    0.251201811381         0.42188874E-09      0.65069224E+01     -0.80167448E-12      0.42557229E-08     -0.52431921E-21
    0.254341834024         0.49416037E-09      0.56596251E+01     -0.90123864E-12      0.42821347E-08     -0.68188708E-21
    0.257481856666         0.57484728E-09      0.49560050E+01     -0.13712148E-11      0.43088377E-08     -0.11921582E-20
    0.260621879308         0.66453577E-09      0.43665938E+01     -0.15580995E-11      0.43358358E-08     -0.15471244E-20
    0.263761901951         0.76383615E-09      0.38689032E+01     -0.30303507E-12      0.43631340E-08     -0.34174611E-21
    0.266901924593         0.87338321E-09      0.34455751E+01      0.34867068E-13      0.43907367E-08      0.44431513E-22
    0.270041947235         0.99383660E-09      0.30830686E+01     -0.18282983E-12      0.44186489E-08     -0.26203141E-21
    0.273181969877         0.11258814E-08      0.27707146E+01     -0.23813745E-12      0.44468751E-08     -0.38220014E-21
    0.276321992520         0.12702283E-08      0.25000287E+01     -0.15588185E-12      0.44754206E-08     -0.27905154E-21
    0.279462015162         0.14276143E-08      0.22642048E+01     -0.18479414E-12      0.45042901E-08     -0.36761974E-21
    0.282602037804         0.15988030E-08      0.20577393E+01      0.18575685E-13      0.45334892E-08      0.40924847E-22
    0.285742060446         0.17845852E-08      0.18761475E+01     -0.24912233E-12      0.45630227E-08     -0.60589634E-21
    0.288882083089         0.19857789E-08      0.17157492E+01     -0.50603205E-13      0.45928964E-08     -0.13545993E-21
    0.292022105731         0.22032301E-08      0.15735048E+01      0.28606597E-12      0.46231154E-08      0.84049061E-21
    0.295162128373         0.24378129E-08      0.14468874E+01     -0.19518624E-12      0.46536855E-08     -0.62778580E-21
    0.298302151016         0.26904304E-08      0.13337847E+01     -0.18663157E-12      0.46846125E-08     -0.65550051E-21
    0.301442173658         0.29620145E-08      0.12324209E+01     -0.30064236E-12      0.47159021E-08     -0.11504185E-20
    0.304582196300         0.32535265E-08      0.11412955E+01     -0.26350569E-12      0.47475603E-08     -0.10961308E-20
    0.307722218942         0.35659575E-08      0.10591344E+01     -0.41980093E-12      0.47795932E-08     -0.18944504E-20
    0.310862241585         0.39003290E-08      0.98485084E+00     -0.15034527E-12      0.48120072E-08     -0.73459094E-21
    0.314002264227         0.42576927E-08      0.91751364E+00      0.24575648E-13      0.48448084E-08      0.12976843E-21
    0.317142286869         0.46391314E-08      0.85632188E+00     -0.15210351E-12      0.48780034E-08     -0.86645156E-21
    0.320282309511         0.50457590E-08      0.80058382E+00     -0.24047084E-12      0.49115990E-08     -0.14752938E-20
    0.323422332154         0.54787210E-08      0.74969986E+00     -0.49946016E-13      0.49456018E-08     -0.32948267E-21
    0.326562354796         0.59391947E-08      0.70314842E+00     -0.24014384E-12      0.49800189E-08     -0.17008086E-20
    0.329702377438         0.64283897E-08      0.66047430E+00      0.63814933E-13      0.50148573E-08      0.48453481E-21
    0.332842400080         0.69475481E-08      0.62127892E+00      0.32929729E-13      0.50501244E-08      0.26767241E-21
    0.335982422723         0.74979446E-08      0.58521226E+00     -0.30864313E-13      0.50858275E-08     -0.26822844E-21
    0.339122445365         0.80808871E-08      0.55196603E+00     -0.59336139E-13      0.51219743E-08     -0.55061030E-21
    0.342262468007         0.86977170E-08      0.52126793E+00     -0.27097013E-13      0.51585726E-08     -0.26815751E-21
    0.345402490650         0.93498090E-08      0.49287684E+00     -0.12701629E-12      0.51956302E-08     -0.13389342E-20
    0.348542513292         0.10038572E-07      0.46657870E+00      0.95133277E-14      0.52331554E-08      0.10670166E-21
    0.351682535934         0.10765449E-07      0.44218299E+00     -0.78014370E-13      0.52711565E-08     -0.92999044E-21
    0.354822558576         0.11531917E-07      0.41951977E+00     -0.99052380E-13      0.53096420E-08     -0.12536541E-20
    0.357962581219         0.12339487E-07      0.39843711E+00     -0.24110264E-13      0.53486207E-08     -0.32365625E-21
    0.361102603861         0.13189707E-07      0.37879887E+00     -0.16889043E-14      0.53881014E-08     -0.24023270E-22
    0.364242626503         0.14084158E-07      0.36048288E+00     -0.17506233E-12      0.54280934E-08     -0.26360605E-20
    0.367382649145         0.15024457E-07      0.34337916E+00     -0.40370500E-13      0.54686060E-08     -0.64293464E-21
    0.370522671788         0.16012256E-07      0.32738866E+00     -0.11730543E-12      0.55096489E-08     -0.19741420E-20
    0.373662694430         0.17049243E-07      0.31242189E+00     -0.87226742E-13      0.55512317E-08     -0.15498781E-20
    0.376802717072         0.18137141E-07      0.29839793E+00     -0.24558454E-13      0.55933648E-08     -0.46033964E-21
    0.379942739715         0.19277708E-07      0.28524344E+00     -0.40778630E-13      0.56360582E-08     -0.80573538E-21
    0.383082762357         0.20472742E-07      0.27289188E+00     -0.81585545E-13      0.56793228E-08     -0.16979275E-20
    0.386222784999         0.21724071E-07      0.26128273E+00     -0.35609735E-13      0.57231691E-08     -0.78000000E-21
    0.389362807641         0.23033564E-07      0.25036093E+00     -0.28534390E-13      0.57676085E-08     -0.65735174E-21
    0.392502830284         0.24403125E-07      0.24007622E+00     -0.72154481E-13      0.58126523E-08     -0.17469823E-20
    0.395642852926         0.25834693E-07      0.23038277E+00      0.16047950E-13      0.58583121E-08      0.40807697E-21
    0.398782875568         0.27330244E-07      0.22123862E+00     -0.44545694E-13      0.59046000E-08     -0.11888725E-20
    0.401922898210         0.28891791E-07      0.21260537E+00     -0.27331954E-13      0.59515282E-08     -0.76511187E-21
    0.405062920853         0.30521384E-07      0.20444783E+00      0.22628464E-13      0.59991094E-08      0.66398666E-21
    0.408202943495         0.32221107E-07      0.19673367E+00     -0.28883759E-13      0.60473565E-08     -0.88785202E-21
    0.411342966137         0.33993084E-07      0.18943319E+00     -0.58212077E-14      0.60962827E-08     -0.18733638E-21
    0.414482988779         0.35839473E-07      0.18251904E+00     -0.31207552E-14      0.61459018E-08     -0.10508413E-21
    0.417623011422         0.37762468E-07      0.17596605E+00     -0.17894700E-13      0.61962276E-08     -0.63011949E-21
    0.420763034064         0.39764301E-07      0.16975098E+00     -0.18699253E-13      0.62472746E-08     -0.68818083E-21
    0.423903056706         0.41847240E-07      0.16385238E+00      0.19786486E-13      0.62990575E-08      0.76066157E-21
    0.427043079349         0.44013589E-07      0.15825044E+00     -0.14709592E-13      0.63515914E-08     -0.59038901E-21
    0.430183101991         0.46265688E-07      0.15292679E+00     -0.43388519E-14      0.64048919E-08     -0.18172013E-21
    0.433323124633         0.48605914E-07      0.14786447E+00      0.23163555E-14      0.64589750E-08      0.10118241E-21
    0.436463147275         0.51036678E-07      0.14304770E+00     -0.22315970E-13      0.65138573E-08     -0.10161858E-20
    0.439603169918         0.53560430E-07      0.13846187E+00     -0.30618244E-13      0.65695553E-08     -0.14527339E-20
    0.442743192560         0.56179653E-07      0.13409340E+00      0.31843430E-14      0.66260867E-08      0.15735101E-21
    0.445883215202         0.58896866E-07      0.12992967E+00     -0.26574371E-13      0.66834692E-08     -0.13669625E-20
    0.449023237844         0.61714624E-07      0.12595894E+00     -0.17016558E-13      0.67417213E-08     -0.91078008E-21
    0.452163260487         0.64635518E-07      0.12217024E+00     -0.15289573E-13      0.68008617E-08     -0.85112600E-21
    0.455303283129         0.67662171E-07      0.11855340E+00     -0.23377365E-13      0.68609100E-08     -0.13528923E-20
    0.458443305771         0.70797244E-07      0.11509890E+00     -0.37181609E-13      0.69218860E-08     -0.22360497E-20
    0.461583328413         0.74043431E-07      0.11179786E+00     -0.12805088E-15      0.69838105E-08     -0.79991073E-23
    0.464723351056         0.77403460E-07      0.10864197E+00     -0.14226829E-13      0.70467044E-08     -0.92277652E-21
    0.467863373698         0.80880094E-07      0.10562348E+00     -0.91203183E-14      0.71105899E-08     -0.61398129E-21
    0.471003396340         0.84476127E-07      0.10273514E+00     -0.10310236E-13      0.71754892E-08     -0.72011378E-21
    0.474143418983         0.88194391E-07      0.99970136E-01     -0.26335203E-13      0.72414255E-08     -0.19076138E-20
    0.477283441625         0.92037747E-07      0.97322106E-01     -0.20507134E-13      0.73084226E-08     -0.15399872E-20
    0.480423464267         0.96009090E-07      0.94785078E-01     -0.10831857E-13      0.73765052E-08     -0.84297287E-21
    0.483563486909         0.10011135E-06      0.92353446E-01     -0.40291030E-14      0.74456986E-08     -0.32483343E-21
    0.486703509552         0.10434748E-06      0.90021950E-01     -0.10779695E-13      0.75160289E-08     -0.90000826E-21
    0.489843532194         0.10872047E-06      0.87785648E-01     -0.74218196E-14      0.75875230E-08     -0.64148557E-21
    0.492983554836         0.11323336E-06      0.85639892E-01     -0.28232731E-14      0.76602087E-08     -0.25253256E-21
    0.496123577478         0.11788918E-06      0.83580313E-01     -0.11946407E-14      0.77341148E-08     -0.11054623E-21
    0.499263600121         0.12269102E-06      0.81602797E-01     -0.63097546E-15      0.78092707E-08     -0.60383447E-22
    0.502403622763         0.12764201E-06      0.79703473E-01     -0.11310800E-13      0.78857071E-08     -0.11190686E-20
    0.505543645405         0.13274526E-06      0.77878689E-01     -0.51714493E-14      0.79634555E-08     -0.52880456E-21
    0.508683668048         0.13800397E-06      0.76125008E-01     -0.86894677E-14      0.80425485E-08     -0.91803557E-21
