 
 # Omega; pulse ft; proj flux t=    500.050000000000     
    0.000000000000         0.16626861E-13      0.00000000E+00      0.00000000E+00      0.00000000E+00      0.00000000E+00      0.00000000E+00      0.00000000E+00
    0.006280045285         0.55619039E-10      0.75561782E+02      0.89092050E-08      0.41476831E-07      0.48903769E-17      0.26047638E-09      0.30711788E-19
    0.012560090569         0.22310564E-09      0.29776516E+02      0.10449843E-07      0.32781917E-07      0.11504566E-16      0.46634830E-09      0.10296098E-18
    0.018840135854         0.50451792E-09      0.79344790E+01      0.79986174E-08      0.13169026E-07      0.13275478E-16      0.54905038E-09      0.18633159E-18
    0.025120181138         0.90326950E-09      0.46572028E+01      0.60222268E-08      0.10379165E-07      0.13421293E-16      0.61423201E-09      0.27061791E-18
    0.031400226423         0.14241628E-08      0.27031594E+01      0.48218843E-08      0.75987330E-08      0.13554588E-16      0.66195239E-09      0.35574134E-18
    0.037680271707         0.20734119E-08      0.19140898E+01      0.39883793E-08      0.65279459E-08      0.13602248E-16      0.70294819E-09      0.44116407E-18
    0.043960316992         0.28586714E-08      0.13550110E+01      0.33845057E-08      0.54612106E-08      0.13640847E-16      0.73724484E-09      0.52682921E-18
    0.050240362276         0.37890711E-08      0.10481140E+01      0.29205266E-08      0.48992679E-08      0.13651609E-16      0.76801246E-09      0.61256193E-18
    0.056520407561         0.48752551E-08      0.81175545E+00      0.25553977E-08      0.43397024E-08      0.13661338E-16      0.79526599E-09      0.69835575E-18
    0.062800452845         0.61294263E-08      0.66219180E+00      0.22607080E-08      0.40057471E-08      0.13675531E-16      0.82042226E-09      0.78423871E-18
    0.069080498130         0.75653939E-08      0.54121325E+00      0.20155280E-08      0.36735604E-08      0.13680677E-16      0.84349239E-09      0.87015398E-18
    0.075360543414         0.91986243E-08      0.45787972E+00      0.18099512E-08      0.34639606E-08      0.13692678E-16      0.86524622E-09      0.95614462E-18
    0.081640588699         0.11046294E-07      0.38814546E+00      0.16333981E-08      0.32549751E-08      0.13697623E-16      0.88568761E-09      0.10421663E-17
    0.087920633984         0.13127346E-07      0.33410876E+00      0.14802718E-08      0.30918374E-08      0.13698413E-16      0.90510449E-09      0.11281930E-17
    0.094200679268         0.15462541E-07      0.28796853E+00      0.13472351E-08      0.29296418E-08      0.13706069E-16      0.92350277E-09      0.12142677E-17
    0.100480724553         0.18074516E-07      0.25251787E+00      0.12295105E-08      0.28152613E-08      0.13707518E-16      0.94118274E-09      0.13003515E-17
    0.106760769837         0.20987836E-07      0.22171159E+00      0.11250762E-08      0.27013884E-08      0.13708204E-16      0.95814758E-09      0.13864397E-17
    0.113040815122         0.24229044E-07      0.19688321E+00      0.10318316E-08      0.26154858E-08      0.13707318E-16      0.97457295E-09      0.14725223E-17
    0.119320860406         0.27826708E-07      0.17504998E+00      0.94842968E-09      0.25301729E-08      0.13708605E-16      0.99046255E-09      0.15586129E-17
    0.125600905691         0.31811467E-07      0.15707737E+00      0.87328169E-09      0.24657397E-08      0.13708437E-16      0.10059475E-08      0.16447025E-17
    0.131880950975         0.36216061E-07      0.14112303E+00      0.80553176E-09      0.24019265E-08      0.13710222E-16      0.10210317E-08      0.17308033E-17
    0.138160996260         0.41075368E-07      0.12778358E+00      0.74410385E-09      0.23545816E-08      0.13711098E-16      0.10358186E-08      0.18169097E-17
    0.144441041544         0.46426423E-07      0.11584445E+00      0.68816615E-09      0.23077700E-08      0.13709152E-16      0.10503115E-08      0.19030037E-17
    0.150721086829         0.52308432E-07      0.10567944E+00      0.63759349E-09      0.22731645E-08      0.13714634E-16      0.10645871E-08      0.19891323E-17
    0.157001132113         0.58762774E-07      0.96523513E-01      0.59122299E-09      0.22391093E-08      0.13714927E-16      0.10786488E-08      0.20752626E-17
    0.163281177398         0.65832996E-07      0.88650495E-01      0.54881588E-09      0.22152938E-08      0.13714401E-16      0.10925609E-08      0.21613897E-17
    0.169561222683         0.73564796E-07      0.81520029E-01      0.51002845E-09      0.21920502E-08      0.13714519E-16      0.11063271E-08      0.22475175E-17
    0.175841267967         0.82005985E-07      0.75345114E-01      0.47447099E-09      0.21778227E-08      0.13714408E-16      0.11200039E-08      0.23336446E-17
    0.182121313252         0.91206450E-07      0.69725697E-01      0.44182497E-09      0.21642146E-08      0.13713797E-16      0.11335953E-08      0.24197679E-17
    0.188401358536         0.10121809E-06      0.64829497E-01      0.41195075E-09      0.21586858E-08      0.13717093E-16      0.11471519E-08      0.25059118E-17
    0.194681403821         0.11209474E-06      0.60355590E-01      0.38439698E-09      0.21538773E-08      0.13717767E-16      0.11606784E-08      0.25920600E-17
    0.200961449105         0.12389210E-06      0.56443646E-01      0.35897939E-09      0.21566943E-08      0.13716492E-16      0.11742225E-08      0.26782002E-17
    0.207241494390         0.13666760E-06      0.52856394E-01      0.33558225E-09      0.21603745E-08      0.13716095E-16      0.11877898E-08      0.27643379E-17
    0.213521539674         0.15048030E-06      0.49719313E-01      0.31401244E-09      0.21717296E-08      0.13716000E-16      0.12014283E-08      0.28504750E-17
    0.219801584959         0.16539075E-06      0.46833410E-01      0.29408449E-09      0.21841319E-08      0.13714981E-16      0.12151448E-08      0.29366057E-17
    0.226081630243         0.18146085E-06      0.44320224E-01      0.27574964E-09      0.22047649E-08      0.13717511E-16      0.12289908E-08      0.30227523E-17
    0.232361675528         0.19875365E-06      0.42001628E-01      0.25874138E-09      0.22266882E-08      0.13717001E-16      0.12429745E-08      0.31088957E-17
    0.238641720812         0.21733318E-06      0.40003119E-01      0.24301000E-09      0.22579597E-08      0.13716600E-16      0.12571546E-08      0.31950366E-17
    0.244921766097         0.23726424E-06      0.38154583E-01      0.22846060E-09      0.22908376E-08      0.13716992E-16      0.12715412E-08      0.32811799E-17
    0.251201811381         0.25861222E-06      0.36593163E-01      0.21498156E-09      0.23349033E-08      0.13717348E-16      0.12862045E-08      0.33673255E-17
    0.257481856666         0.28144279E-06      0.35145565E-01      0.20247010E-09      0.23809853E-08      0.13716619E-16      0.13011571E-08      0.34534664E-17
    0.263761901951         0.30582173E-06      0.33969761E-01      0.19089276E-09      0.24411330E-08      0.13717925E-16      0.13164876E-08      0.35396156E-17
    0.270041947235         0.33181462E-06      0.32877323E-01      0.18013643E-09      0.25038218E-08      0.13718560E-16      0.13322117E-08      0.36257688E-17
    0.276321992520         0.35948656E-06      0.32058085E-01      0.17013014E-09      0.25849221E-08      0.13718011E-16      0.13484451E-08      0.37119185E-17
    0.282602037804         0.38890192E-06      0.31295360E-01      0.16084607E-09      0.26692388E-08      0.13718857E-16      0.13652081E-08      0.37980736E-17
    0.288882083089         0.42012400E-06      0.30825472E-01      0.15219488E-09      0.27784930E-08      0.13718278E-16      0.13826571E-08      0.38842250E-17
    0.295162128373         0.45321473E-06      0.30387178E-01      0.14415392E-09      0.28918544E-08      0.13718686E-16      0.14008181E-08      0.39703790E-17
    0.301442173658         0.48823435E-06      0.30293250E-01      0.13665930E-09      0.30409751E-08      0.13718486E-16      0.14199156E-08      0.40565317E-17
    0.307722218942         0.52524111E-06      0.30204968E-01      0.12968007E-09      0.31953682E-08      0.13718789E-16      0.14399826E-08      0.41426863E-17
    0.314002264227         0.56429086E-06      0.30560829E-01      0.12316031E-09      0.34039097E-08      0.13717776E-16      0.14613593E-08      0.42288345E-17
    0.320282309511         0.60543679E-06      0.30891015E-01      0.11708590E-09      0.36191844E-08      0.13717758E-16      0.14840880E-08      0.43149827E-17
    0.326562354796         0.64872905E-06      0.31807122E-01      0.11141542E-09      0.39161948E-08      0.13717823E-16      0.15086818E-08      0.44011312E-17
    0.332842400080         0.69421440E-06      0.32661437E-01      0.10611423E-09      0.42221430E-08      0.13717383E-16      0.15351971E-08      0.44872770E-17
    0.339122445365         0.74193587E-06      0.34437352E-01      0.10118276E-09      0.46696277E-08      0.13720155E-16      0.15645226E-08      0.45734402E-17
    0.345402490650         0.79193243E-06      0.36092322E-01      0.96551648E-10      0.51288519E-08      0.13720345E-16      0.15967320E-08      0.46596046E-17
    0.351682535934         0.84423861E-06      0.39272151E-01      0.92210327E-10      0.58430792E-08      0.13719448E-16      0.16334268E-08      0.47457634E-17
    0.357962581219         0.89888421E-06      0.42237345E-01      0.88142968E-10      0.65736323E-08      0.13718179E-16      0.16747095E-08      0.48319141E-17
    0.364242626503         0.95589395E-06      0.48130989E-01      0.84338263E-10      0.78286415E-08      0.13717857E-16      0.17238737E-08      0.49180629E-17
    0.370522671788         0.10152872E-05      0.53638834E-01      0.80774748E-10      0.91095330E-08      0.13718050E-16      0.17810820E-08      0.50042129E-17
    0.376802717072         0.10770774E-05      0.65973736E-01      0.77430828E-10      0.11688174E-07      0.13717958E-16      0.18544843E-08      0.50903623E-17
    0.383082762357         0.11412724E-05      0.77618667E-01      0.74297013E-10      0.14331959E-07      0.13718630E-16      0.19444896E-08      0.51765159E-17
    0.389362807641         0.12078734E-05      0.11216154E+00      0.71350514E-10      0.21565204E-07      0.13718503E-16      0.20799201E-08      0.52626687E-17
    0.395642852926         0.12768751E-05      0.14640330E+00      0.68579484E-10      0.29284557E-07      0.13717722E-16      0.22638284E-08      0.53488166E-17
    0.401922898210         0.13482657E-05      0.38814970E+00      0.65978528E-10      0.80700210E-07      0.13717597E-16      0.27706294E-08      0.54349638E-17
    0.408202943495         0.14220259E-05      0.13135608E+01      0.63492606E-10      0.28361176E-06      0.13708730E-16      0.45517241E-08      0.55210552E-17
    0.414482988779         0.14981296E-05      0.19607084E+01      0.61177368E-10      0.43923645E-06      0.13704909E-16      0.73101489E-08      0.56071227E-17
    0.420763034064         0.15765431E-05      0.12822754E+01      0.59037148E-10      0.29777776E-06      0.13709964E-16      0.91802067E-08      0.56932219E-17
    0.427043079349         0.16572251E-05      0.34280797E+00      0.57038035E-10      0.82452416E-07      0.13718829E-16      0.96980116E-08      0.57793767E-17
    0.433323124633         0.17401266E-05      0.41251521E-01      0.55119468E-10      0.10267190E-07      0.13718817E-16      0.97624900E-08      0.58655315E-17
    0.439603169918         0.18251908E-05      0.41244543E-01      0.53310723E-10      0.10613451E-07      0.13718439E-16      0.98291430E-08      0.59516839E-17
    0.445883215202         0.19123531E-05      0.61467825E-01      0.51609602E-10      0.16339452E-07      0.13718927E-16      0.99317555E-08      0.60378394E-17
    0.452163260487         0.20015409E-05      0.12987509E+00      0.50003694E-10      0.35631796E-07      0.13718731E-16      0.10155525E-07      0.61239937E-17
    0.458443305771         0.20926735E-05      0.22721791E+00      0.48482015E-10      0.64283732E-07      0.13716370E-16      0.10559230E-07      0.62101331E-17
    0.464723351056         0.21856626E-05      0.47011371E+00      0.47047770E-10      0.13703586E-06      0.13714196E-16      0.11419821E-07      0.62962589E-17
    0.471003396340         0.22804117E-05      0.90677454E+00      0.45712696E-10      0.27210167E-06      0.13717303E-16      0.13128632E-07      0.63824041E-17
    0.477283441625         0.23768165E-05      0.36280973E+01      0.44431118E-10      0.11198011E-05      0.13713528E-16      0.20161033E-07      0.64685257E-17
    0.483563486909         0.24747652E-05      0.13881642E+02      0.42821484E-10      0.44031553E-05      0.13582662E-16      0.47813048E-07      0.65538254E-17
    0.489843532194         0.25741382E-05      0.25700285E+02      0.41384954E-10      0.83705714E-05      0.13479061E-16      0.10038062E-06      0.66384746E-17
    0.496123577478         0.26748086E-05      0.24549641E+02      0.40413822E-10      0.82033392E-05      0.13504405E-16      0.15189796E-06      0.67232828E-17
    0.502403622763         0.27766424E-05      0.15650951E+02      0.39683013E-10      0.53610593E-05      0.13592975E-16      0.18556565E-06      0.68086473E-17
    0.508683668048         0.28794986E-05      0.11873316E+02      0.38515799E-10      0.41656595E-05      0.13512965E-16      0.21172618E-06      0.68935094E-17
    0.514963713332         0.29832293E-05      0.12315924E+02      0.37980764E-10      0.44220095E-05      0.13636923E-16      0.23949660E-06      0.69791499E-17
    0.521243758617         0.30876806E-05      0.14108528E+02      0.37142712E-10      0.51798346E-05      0.13636653E-16      0.27202620E-06      0.70647887E-17
    0.527523803901         0.31926924E-05      0.15967928E+02      0.36356699E-10      0.59897162E-05      0.13637731E-16      0.30964189E-06      0.71504342E-17
    0.533803849186         0.32980988E-05      0.16751387E+02      0.35640488E-10      0.64146862E-05      0.13647977E-16      0.34992641E-06      0.72361441E-17
    0.540083894470         0.34037289E-05      0.16714188E+02      0.34982483E-10      0.65286244E-05      0.13664289E-16      0.39092646E-06      0.73219565E-17
    0.546363939755         0.35094067E-05      0.16263709E+02      0.33445181E-10      0.64746149E-05      0.13314593E-16      0.43158734E-06      0.74055727E-17
    0.552643985039         0.36149520E-05      0.15928133E+02      0.32882790E-10      0.64575031E-05      0.13331175E-16      0.47214075E-06      0.74892931E-17
    0.558924030324         0.37201804E-05      0.15759425E+02      0.32352371E-10      0.65012111E-05      0.13346273E-16      0.51296865E-06      0.75731083E-17
    0.565204075608         0.38249044E-05      0.15738800E+02      0.31847457E-10      0.66013020E-05      0.13357732E-16      0.55442513E-06      0.76569955E-17
    0.571484120893         0.39289333E-05      0.15772313E+02      0.31371798E-10      0.67206077E-05      0.13367573E-16      0.59663085E-06      0.77409445E-17
    0.577764166177         0.40320740E-05      0.15790348E+02      0.30934529E-10      0.68298671E-05      0.13380245E-16      0.63952272E-06      0.78249730E-17
    0.584044211462         0.41341318E-05      0.15763347E+02      0.31420654E-10      0.69155976E-05      0.13784674E-16      0.68295299E-06      0.79115414E-17
    0.590324256747         0.42349105E-05      0.15693567E+02      0.31042771E-10      0.69777910E-05      0.13802469E-16      0.72677383E-06      0.79982215E-17
    0.596604302031         0.43342134E-05      0.15608461E+02      0.30697028E-10      0.70279176E-05      0.13821746E-16      0.77090947E-06      0.80850227E-17
    0.602884347316         0.44318436E-05      0.15515448E+02      0.29494411E-10      0.70689909E-05      0.13437944E-16      0.81530305E-06      0.81694136E-17
    0.609164392600         0.45276046E-05      0.15424731E+02      0.29207614E-10      0.71054937E-05      0.13454660E-16      0.85992588E-06      0.82539095E-17
    0.615444437885         0.46213012E-05      0.15328560E+02      0.28947803E-10      0.71337759E-05      0.13472051E-16      0.90472631E-06      0.83385146E-17
    0.621724483169         0.47127398E-05      0.15227715E+02      0.28714251E-10      0.71540657E-05      0.13490115E-16      0.94965417E-06      0.84232331E-17
    0.628004528454         0.48017293E-05      0.15114287E+02      0.28503176E-10      0.71625097E-05      0.13507371E-16      0.99463505E-06      0.85080600E-17
    0.634284573738         0.48880813E-05      0.14991295E+02      0.28319718E-10      0.71603803E-05      0.13526514E-16      0.10396026E-05      0.85930071E-17
    0.640564619023         0.49716111E-05      0.14853553E+02      0.28157985E-10      0.71450822E-05      0.13544983E-16      0.10844740E-05      0.86780702E-17
    0.646844664307         0.50521382E-05      0.14706167E+02      0.28018702E-10      0.71189737E-05      0.13563317E-16      0.11291815E-05      0.87632485E-17
    0.653124709592         0.51294867E-05      0.14546448E+02      0.27078145E-10      0.70807200E-05      0.13180727E-16      0.11736487E-05      0.88460240E-17
    0.659404754876         0.52034861E-05      0.14379877E+02      0.26995207E-10      0.70329925E-05      0.13202971E-16      0.12178162E-05      0.89289393E-17
    0.665684800161         0.52739718E-05      0.14205750E+02      0.26932833E-10      0.69755104E-05      0.13224945E-16      0.12616228E-05      0.90119925E-17
    0.671964845445         0.53407857E-05      0.14028700E+02      0.27690240E-10      0.69106470E-05      0.13640428E-16      0.13050219E-05      0.90976550E-17
    0.678244890730         0.54037765E-05      0.13848531E+02      0.27660086E-10      0.68384431E-05      0.13658627E-16      0.13479677E-05      0.91834318E-17
    0.684524936015         0.54628005E-05      0.13668367E+02      0.27650003E-10      0.67606019E-05      0.13676152E-16      0.13904246E-05      0.92693187E-17
    0.690804981299         0.55177220E-05      0.13487315E+02      0.27662419E-10      0.66768641E-05      0.13694217E-16      0.14323556E-05      0.93553190E-17
    0.697085026584         0.55684138E-05      0.13307243E+02      0.27692458E-10      0.65883476E-05      0.13710394E-16      0.14737307E-05      0.94414209E-17
    0.703365071868         0.56147573E-05      0.13126519E+02      0.26999604E-10      0.64944509E-05      0.13358271E-16      0.15145161E-05      0.95253114E-17
    0.709645117153         0.56566434E-05      0.12946482E+02      0.27083440E-10      0.63960529E-05      0.13380245E-16      0.15546836E-05      0.96093400E-17
    0.715925162437         0.56939728E-05      0.12765313E+02      0.27188565E-10      0.62924811E-05      0.13402219E-16      0.15942007E-05      0.96935065E-17
    0.722205207722         0.57266558E-05      0.12584277E+02      0.27314145E-10      0.61845969E-05      0.13423654E-16      0.16330402E-05      0.97778077E-17
    0.728485253006         0.57546134E-05      0.12401810E+02      0.27461035E-10      0.60718793E-05      0.13444819E-16      0.16711719E-05      0.98622417E-17
    0.734765298291         0.57777770E-05      0.12219153E+02      0.27623791E-10      0.59551943E-05      0.13462884E-16      0.17085708E-05      0.99467893E-17
    0.741045343575         0.57960889E-05      0.12035175E+02      0.27812752E-10      0.58342539E-05      0.13482701E-16      0.17452102E-05      0.10031461E-16
    0.747325388860         0.58095025E-05      0.11851008E+02      0.28024823E-10      0.57098826E-05      0.13502518E-16      0.17810685E-05      0.10116258E-16
    0.753605434144         0.58179822E-05      0.11665897E+02      0.27595362E-10      0.55819915E-05      0.13204049E-16      0.18161237E-05      0.10199180E-16
    0.759885479429         0.58215039E-05      0.11480878E+02      0.28515727E-10      0.54513593E-05      0.13539860E-16      0.18503585E-05      0.10284211E-16
    0.766165524714         0.58200549E-05      0.11295140E+02      0.28796348E-10      0.53178830E-05      0.13557655E-16      0.18837550E-05      0.10369353E-16
