 #KVL flux sum: time, flux integral, flux
 
    0.000000000000         0.75533270E-13     -0.33112358E-19      0.15106654E-12     -0.66224715E-19
    1.000000000000         0.15169404E-12     -0.22872039E-19      0.15232154E-12      0.20480636E-19
    2.000000000000         0.23106236E-12     -0.58051052E-19      0.15873663E-12     -0.70358024E-19
    3.000000000000         0.40292956E-12     -0.62018395E-19      0.34373441E-12     -0.79346864E-20
    4.000000000000         0.37244288E-11     -0.50374096E-19      0.66429985E-11      0.23288597E-19
    5.000000000000         0.78398552E-10     -0.45951266E-19      0.14934825E-09      0.88456603E-20
    6.000000000000         0.92936329E-09     -0.34300458E-19      0.17019295E-08      0.23301616E-19
    7.000000000000         0.68890200E-08     -0.25159133E-19      0.11919313E-07      0.18282651E-19
    8.000000000000         0.35634957E-07     -0.29061491E-19      0.57491874E-07     -0.78047169E-20
    9.000000000000         0.13811187E-06     -0.13786198E-19      0.20495382E-06      0.30550586E-19
   10.000000000000         0.42026913E-06     -0.27979529E-19      0.56431452E-06     -0.28386661E-19
   11.000000000000         0.10355016E-05     -0.30235071E-19      0.12304650E-05     -0.45110836E-20
   12.000000000000         0.21123267E-05     -0.12556678E-20      0.21536501E-05      0.57958806E-19
   13.000000000000         0.36126898E-05     -0.27424635E-20      0.30007262E-05     -0.29735913E-20
   14.000000000000         0.52150608E-05     -0.19456123E-19      0.32047421E-05     -0.33427319E-19
   15.000000000000         0.66302284E-05     -0.22982609E-19      0.28303352E-05     -0.70529729E-20
   16.000000000000         0.77554813E-05     -0.51748717E-20      0.22505057E-05      0.35615475E-19
   17.000000000000         0.86071700E-05     -0.19553159E-19      0.17033775E-05     -0.28756575E-19
   18.000000000000         0.92414049E-05     -0.16853705E-19      0.12684698E-05      0.53989095E-20
   19.000000000000         0.97148872E-05     -0.23696792E-19      0.94696457E-06     -0.13686175E-19
   20.000000000000         0.10072192E-04     -0.60757767E-19      0.71461063E-06     -0.74121949E-19
   21.000000000000         0.10344904E-04     -0.47715835E-19      0.54542334E-06      0.26083864E-19
   22.000000000000         0.10555047E-04     -0.40303764E-19      0.42028521E-06      0.14824140E-19
   23.000000000000         0.10718913E-04     -0.41831281E-19      0.32773296E-06     -0.30550332E-20
   24.000000000000         0.10849031E-04     -0.44421759E-19      0.26023628E-06     -0.51809566E-20
   25.000000000000         0.10954488E-04     -0.43294754E-19      0.21091272E-06      0.22540097E-20
   26.000000000000         0.11041472E-04     -0.44807662E-19      0.17396845E-06     -0.30258158E-20
   27.000000000000         0.11114684E-04     -0.33757801E-19      0.14642497E-06      0.22099722E-19
   28.000000000000         0.11177904E-04     -0.13766822E-19      0.12643834E-06      0.39981959E-19
   29.000000000000         0.11233334E-04     -0.45619478E-20      0.11086015E-06      0.18409748E-19
   30.000000000000         0.11281494E-04     -0.99830211E-20      0.96320779E-07     -0.10842146E-19
   31.000000000000         0.11322605E-04     -0.44210662E-19      0.82222363E-07     -0.68455283E-19
   32.000000000000         0.11357976E-04     -0.38015711E-19      0.70741619E-07      0.12389903E-19
   33.000000000000         0.11389508E-04     -0.19450337E-19      0.63063504E-07      0.37130747E-19
   34.000000000000         0.11418246E-04     -0.50692438E-19      0.57475594E-07     -0.62484201E-19
   35.000000000000         0.11444123E-04     -0.22207822E-19      0.51755051E-07      0.56969232E-19
   36.000000000000         0.11466840E-04     -0.15207358E-19      0.45432889E-07      0.14000928E-19
   37.000000000000         0.11486349E-04     -0.19589828E-19      0.39019073E-07     -0.87649408E-20
   38.000000000000         0.11502642E-04     -0.25354753E-19      0.32585367E-07     -0.11529850E-19
   39.000000000000         0.11515905E-04     -0.22354963E-19      0.26525954E-07      0.59995804E-20
   40.000000000000         0.11527034E-04      0.16677301E-20      0.22258946E-07      0.48045386E-19
   41.000000000000         0.11537402E-04      0.80392184E-20      0.20735393E-07      0.12742977E-19
   42.000000000000         0.11547966E-04      0.43091715E-20      0.21128617E-07     -0.74600938E-20
   43.000000000000         0.11558794E-04      0.38375770E-19      0.21654599E-07      0.68133198E-19
   44.000000000000         0.11569478E-04      0.61365218E-19      0.21368159E-07      0.45978896E-19
   45.000000000000         0.11579760E-04      0.10111117E-18      0.20563924E-07      0.79491906E-19
   46.000000000000         0.11589550E-04      0.11352651E-18      0.19581715E-07      0.24830681E-19
   47.000000000000         0.11598659E-04      0.12135158E-18      0.18217149E-07      0.15650127E-19
   48.000000000000         0.11606815E-04      0.12365826E-18      0.16311271E-07      0.46133775E-20
   49.000000000000         0.11613923E-04      0.12938744E-18      0.14217273E-07      0.11458358E-19
   50.000000000000         0.11620088E-04      0.13732852E-18      0.12330046E-07      0.15882157E-19
   51.000000000000         0.11625442E-04      0.13525993E-18      0.10708161E-07     -0.41371771E-20
   52.000000000000         0.11630137E-04      0.12836503E-18      0.93898466E-08     -0.13789797E-19
   53.000000000000         0.11634413E-04      0.12907110E-18      0.85518181E-08      0.14121327E-20
   54.000000000000         0.11638494E-04      0.16327092E-18      0.81617199E-08      0.68399633E-19
   55.000000000000         0.11642454E-04      0.14540517E-18      0.79193416E-08     -0.35731495E-19
   56.000000000000         0.11646281E-04      0.16330134E-18      0.76536208E-08      0.35792341E-19
   57.000000000000         0.11649997E-04      0.16767660E-18      0.74336661E-08      0.87505258E-20
   58.000000000000         0.11653645E-04      0.14209340E-18      0.72948859E-08     -0.51166412E-19
   59.000000000000         0.11657207E-04      0.14956272E-18      0.71241102E-08      0.14938638E-19
   60.000000000000         0.11660614E-04      0.14808536E-18      0.68145820E-08     -0.29547037E-20
   61.000000000000         0.11663741E-04      0.13859695E-18      0.62539588E-08     -0.18976838E-19
   62.000000000000         0.11666407E-04      0.12786246E-18      0.53310596E-08     -0.21468979E-19
   63.000000000000         0.11668547E-04      0.97490628E-19      0.42808847E-08     -0.60743658E-19
   64.000000000000         0.11670376E-04      0.10231915E-18      0.36568129E-08      0.96570476E-20
   65.000000000000         0.11672188E-04      0.91813382E-19      0.36253201E-08     -0.21011538E-19
   66.000000000000         0.11674072E-04      0.10984651E-18      0.37684047E-08      0.36066253E-19
   67.000000000000         0.11675929E-04      0.69117564E-19      0.37130983E-08     -0.81457890E-19
   68.000000000000         0.11677807E-04      0.66961746E-19      0.37555491E-08     -0.43116346E-20
   69.000000000000         0.11680047E-04      0.61784112E-19      0.44801841E-08     -0.10355269E-19
   70.000000000000         0.11682931E-04      0.53124219E-19      0.57691912E-08     -0.17319786E-19
   71.000000000000         0.11686267E-04      0.48153301E-19      0.66712845E-08     -0.99418367E-20
   72.000000000000         0.11689515E-04      0.72161357E-19      0.64948966E-08      0.48016113E-19
   73.000000000000         0.11692315E-04      0.76509736E-19      0.56017795E-08      0.86967586E-20
   74.000000000000         0.11694670E-04      0.55540908E-19      0.47097665E-08     -0.41937657E-19
   75.000000000000         0.11696645E-04      0.48899681E-19      0.39495553E-08     -0.13282455E-19
   76.000000000000         0.11698267E-04      0.68015747E-19      0.32445109E-08      0.38232133E-19
   77.000000000000         0.11699714E-04      0.70619501E-19      0.28941353E-08      0.52075073E-20
   78.000000000000         0.11701279E-04      0.66367515E-19      0.31282262E-08     -0.85039723E-20
   79.000000000000         0.11703044E-04      0.57627189E-19      0.35310496E-08     -0.17480651E-19
   80.000000000000         0.11704823E-04      0.78778103E-19      0.35573174E-08      0.42301828E-19
   81.000000000000         0.11706527E-04      0.94422544E-19      0.34090526E-08      0.31288883E-19
   82.000000000000         0.11708318E-04      0.10114600E-18      0.35813283E-08      0.13446917E-19
   83.000000000000         0.11710240E-04      0.10596694E-18      0.38433688E-08      0.96418796E-20
   84.000000000000         0.11712000E-04      0.11659633E-18      0.35204669E-08      0.21258780E-19
   85.000000000000         0.11713315E-04      0.12189779E-18      0.26303264E-08      0.10602909E-19
   86.000000000000         0.11714308E-04      0.14333062E-18      0.19859789E-08      0.42865663E-19
   87.000000000000         0.11715351E-04      0.13579687E-18      0.20850750E-08     -0.15067499E-19
   88.000000000000         0.11716617E-04      0.13516273E-18      0.25323164E-08     -0.12682883E-20
   89.000000000000         0.11717965E-04      0.12016785E-18      0.26958703E-08     -0.29989741E-19
   90.000000000000         0.11719172E-04      0.11202116E-18      0.24152703E-08     -0.16293381E-19
   91.000000000000         0.11720165E-04      0.10454226E-18      0.19855212E-08     -0.14957810E-19
   92.000000000000         0.11721007E-04      0.83978152E-19      0.16838791E-08     -0.41128214E-19
   93.000000000000         0.11721793E-04      0.78090584E-19      0.15711771E-08     -0.11775136E-19
   94.000000000000         0.11722609E-04      0.70704998E-19      0.16337119E-08     -0.14771173E-19
   95.000000000000         0.11723553E-04      0.66238840E-19      0.18876211E-08     -0.89323150E-20
   96.000000000000         0.11724717E-04      0.53179328E-19      0.23266226E-08     -0.26119025E-19
   97.000000000000         0.11726088E-04      0.40698159E-19      0.27426559E-08     -0.24962338E-19
   98.000000000000         0.11727476E-04      0.54535477E-19      0.27755086E-08      0.27674637E-19
   99.000000000000         0.11728672E-04      0.52469448E-19      0.23926556E-08     -0.41320592E-20
  100.000000000000         0.11729681E-04      0.43808492E-19      0.20190305E-08     -0.17321912E-19
  101.000000000000         0.11730645E-04      0.27805207E-19      0.19270752E-08     -0.32006570E-19
  102.000000000000         0.11731593E-04      0.44877787E-19      0.18970378E-08      0.34145160E-19
  103.000000000000         0.11732514E-04      0.26644925E-19      0.18401498E-08     -0.36465726E-19
  104.000000000000         0.11733628E-04     -0.99079971E-20      0.22292966E-08     -0.73105843E-19
  105.000000000000         0.11735263E-04     -0.22783074E-19      0.32695943E-08     -0.25750154E-19
  106.000000000000         0.11737364E-04     -0.18773302E-19      0.42018367E-08      0.80195430E-20
  107.000000000000         0.11739429E-04     -0.51751773E-20      0.41311323E-08      0.27196250E-19
  108.000000000000         0.11741043E-04     -0.75020322E-20      0.32269017E-08     -0.46537098E-20
  109.000000000000         0.11742282E-04     -0.52770968E-20      0.24776471E-08      0.44498708E-20
  110.000000000000         0.11743494E-04      0.66481137E-20      0.24235108E-08      0.23850421E-19
  111.000000000000         0.11744876E-04      0.98175955E-20      0.27659335E-08      0.63389636E-20
  112.000000000000         0.11746389E-04     -0.46684023E-20      0.30241124E-08     -0.28971996E-19
  113.000000000000         0.11747870E-04      0.13119617E-19      0.29625142E-08      0.35576038E-19
  114.000000000000         0.11749163E-04      0.17889898E-19      0.25873066E-08      0.95405623E-20
  115.000000000000         0.11750196E-04      0.16177992E-19      0.20658104E-08     -0.34238107E-20
  116.000000000000         0.11751019E-04      0.81511217E-20      0.16447579E-08     -0.16053741E-19
  117.000000000000         0.11751770E-04      0.79775997E-20      0.15021889E-08     -0.34704405E-21
  118.000000000000         0.11752577E-04      0.78783210E-20      0.16133524E-08     -0.19855734E-21
  119.000000000000         0.11753452E-04     -0.18111323E-19      0.17506576E-08     -0.51979287E-19
  120.000000000000         0.11754287E-04     -0.13167676E-19      0.16708272E-08      0.98872943E-20
  121.000000000000         0.11755019E-04      0.13205183E-19      0.14639602E-08      0.52745718E-19
  122.000000000000         0.11755775E-04      0.21080467E-19      0.15115933E-08      0.15750566E-19
  123.000000000000         0.11756737E-04      0.79651317E-20      0.19239005E-08     -0.26230670E-19
  124.000000000000         0.11757890E-04     -0.56492492E-21      0.23070067E-08     -0.17060113E-19
  125.000000000000         0.11759022E-04     -0.14990115E-19      0.22639510E-08     -0.28850379E-19
  126.000000000000         0.11760004E-04      0.71595294E-21      0.19627151E-08      0.31412135E-19
  127.000000000000         0.11760958E-04      0.46419496E-20      0.19083674E-08      0.78519933E-20
  128.000000000000         0.11762057E-04      0.92446756E-20      0.21980570E-08      0.92054521E-20
  129.000000000000         0.11763286E-04      0.22541386E-19      0.24571702E-08      0.26593421E-19
  130.000000000000         0.11764495E-04      0.30673090E-19      0.24197227E-08      0.16263408E-19
  131.000000000000         0.11765593E-04      0.27229826E-19      0.21956267E-08     -0.68865280E-20
  132.000000000000         0.11766590E-04      0.27233346E-19      0.19937897E-08      0.70400622E-23
  133.000000000000         0.11767530E-04      0.12740296E-19      0.18801488E-08     -0.28986101E-19
  134.000000000000         0.11768459E-04      0.23939494E-19      0.18568853E-08      0.22398397E-19
  135.000000000000         0.11769441E-04      0.29505030E-19      0.19645375E-08      0.11131071E-19
  136.000000000000         0.11770544E-04      0.63284573E-20      0.22064026E-08     -0.46353145E-19
  137.000000000000         0.11771794E-04     -0.18336739E-19      0.24996300E-08     -0.49330393E-19
  138.000000000000         0.11773145E-04     -0.29779629E-19      0.27025546E-08     -0.22885780E-19
  139.000000000000         0.11774481E-04     -0.42522145E-19      0.26719089E-08     -0.25485032E-19
  140.000000000000         0.11775667E-04     -0.18214383E-19      0.23715806E-08      0.48615524E-19
  141.000000000000         0.11776649E-04     -0.27685673E-20      0.19640803E-08      0.30891631E-19
  142.000000000000         0.11777495E-04     -0.56715964E-21      0.16922374E-08      0.44028153E-20
  143.000000000000         0.11778311E-04      0.10674192E-19      0.16324434E-08      0.22482703E-19
  144.000000000000         0.11779155E-04      0.23403908E-19      0.16865786E-08      0.25459432E-19
  145.000000000000         0.11780049E-04      0.37926260E-19      0.17891724E-08      0.29044704E-19
  146.000000000000         0.11781009E-04      0.58370845E-19      0.19190278E-08      0.40889171E-19
  147.000000000000         0.11781988E-04      0.43508453E-19      0.19580052E-08     -0.29724784E-19
  148.000000000000         0.11782892E-04      0.68496563E-19      0.18077986E-08      0.49976220E-19
  149.000000000000         0.11783675E-04      0.57595740E-19      0.15661316E-08     -0.21801647E-19
  150.000000000000         0.11784393E-04      0.70554299E-19      0.14374075E-08      0.25917118E-19
  151.000000000000         0.11785149E-04      0.68718016E-19      0.15101483E-08     -0.36725654E-20
  152.000000000000         0.11785994E-04      0.67445504E-19      0.16905470E-08     -0.25450241E-20
  153.000000000000         0.11786905E-04      0.84948013E-19      0.18218152E-08      0.35005018E-19
  154.000000000000         0.11787816E-04      0.86271626E-19      0.18231477E-08      0.26472271E-20
  155.000000000000         0.11788673E-04      0.86352290E-19      0.17138754E-08      0.16132810E-21
  156.000000000000         0.11789460E-04      0.70317433E-19      0.15738470E-08     -0.32069714E-19
  157.000000000000         0.11790181E-04      0.75062897E-19      0.14423057E-08      0.94909279E-20
  158.000000000000         0.11790834E-04      0.60582217E-19      0.13051586E-08     -0.28961360E-19
  159.000000000000         0.11791455E-04      0.62573751E-19      0.12429070E-08      0.39830678E-20
  160.000000000000         0.11792172E-04      0.92076010E-19      0.14325473E-08      0.59004517E-19
  161.000000000000         0.11793109E-04      0.92149174E-19      0.18752756E-08      0.14632757E-21
  162.000000000000         0.11794227E-04      0.89503335E-19      0.22361625E-08     -0.52916767E-20
  163.000000000000         0.11795347E-04      0.89737679E-19      0.22401726E-08      0.46868832E-21
  164.000000000000         0.11796404E-04      0.80555888E-19      0.21134818E-08     -0.18363582E-19
  165.000000000000         0.11797528E-04      0.75379600E-19      0.22478052E-08     -0.10352576E-19
  166.000000000000         0.11798805E-04      0.46202581E-19      0.25530621E-08     -0.58354039E-19
  167.000000000000         0.11800081E-04      0.49170032E-19      0.25520831E-08      0.59349026E-20
  168.000000000000         0.11801136E-04      0.45259044E-19      0.21098208E-08     -0.78219774E-20
  169.000000000000         0.11801956E-04      0.54245910E-19      0.16408484E-08      0.17973732E-19
  170.000000000000         0.11802699E-04      0.70093756E-19      0.14857130E-08      0.31695693E-19
  171.000000000000         0.11803504E-04      0.91122965E-19      0.16106939E-08      0.42058418E-19
  172.000000000000         0.11804435E-04      0.79535743E-19      0.18617736E-08     -0.23174444E-19
  173.000000000000         0.11805486E-04      0.86344982E-19      0.21018684E-08      0.13618478E-19
  174.000000000000         0.11806548E-04      0.11450007E-18      0.21249867E-08      0.56310178E-19
  175.000000000000         0.11807457E-04      0.10849664E-18      0.18163684E-08     -0.12006856E-19
  176.000000000000         0.11808161E-04      0.12618917E-18      0.14078631E-08      0.35385060E-19
  177.000000000000         0.11808770E-04      0.13543785E-18      0.12193037E-08      0.18497355E-19
  178.000000000000         0.11809387E-04      0.16800064E-18      0.12326878E-08      0.65125574E-19
  179.000000000000         0.11809991E-04      0.15757148E-18      0.12092702E-08     -0.20858311E-19
  180.000000000000         0.11810521E-04      0.16688858E-18      0.10586153E-08      0.18634196E-19
  181.000000000000         0.11810993E-04      0.15148525E-18      0.94545392E-09     -0.30806653E-19
  182.000000000000         0.11811517E-04      0.12375351E-18      0.10474983E-08     -0.55463484E-19
  183.000000000000         0.11812191E-04      0.12897150E-18      0.13487087E-08      0.10435982E-19
  184.000000000000         0.11813028E-04      0.13788059E-18      0.16723227E-08      0.17818183E-19
  185.000000000000         0.11813926E-04      0.15800447E-18      0.17972572E-08      0.40247752E-19
  186.000000000000         0.11814746E-04      0.14013545E-18      0.16403238E-08     -0.35738045E-19
  187.000000000000         0.11815420E-04      0.14845264E-18      0.13472843E-08      0.16634390E-19
  188.000000000000         0.11815997E-04      0.15122602E-18      0.11534183E-08      0.55467581E-20
  189.000000000000         0.11816588E-04      0.16901044E-18      0.11828400E-08      0.35568840E-19
  190.000000000000         0.11817272E-04      0.17862721E-18      0.13674597E-08      0.19233545E-19
  191.000000000000         0.11818024E-04      0.16333722E-18      0.15047333E-08     -0.30579994E-19
  192.000000000000         0.11818736E-04      0.15055501E-18      0.14242077E-08     -0.25564410E-19
  193.000000000000         0.11819290E-04      0.12993926E-18      0.11081894E-08     -0.41231504E-19
  194.000000000000         0.11819653E-04      0.11123850E-18      0.72611761E-09     -0.37401523E-19
