 #KVL flux sum: time, flux integral, flux
 
    0.000000000000         0.00000000E+00      0.00000000E+00      0.00000000E+00      0.00000000E+00
    1.000000000000         0.62754784E-15     -0.17809976E-19      0.12550957E-14     -0.35619953E-19
    2.000000000000         0.44625695E-14     -0.14350643E-20      0.76700433E-14      0.32749824E-19
    3.000000000000         0.10079640E-12      0.18855653E-19      0.19266765E-12      0.40581434E-19
    4.000000000000         0.33467624E-11      0.26317216E-19      0.64919320E-11      0.14923126E-19
    5.000000000000         0.77945351E-10      0.14517231E-19      0.14919718E-09     -0.23599970E-19
    6.000000000000         0.92883456E-09      0.21224820E-19      0.17017784E-08      0.13415178E-19
    7.000000000000         0.68884157E-08      0.38082191E-19      0.11919162E-07      0.33714741E-19
    8.000000000000         0.35634277E-07      0.27180185E-19      0.57491723E-07     -0.21804011E-19
    9.000000000000         0.13811111E-06      0.56278930E-19      0.20495367E-06      0.58197490E-19
   10.000000000000         0.42026830E-06      0.62048381E-19      0.56431437E-06      0.11538902E-19
   11.000000000000         0.10355007E-05      0.47653767E-19      0.12304648E-05     -0.28789227E-19
   12.000000000000         0.21123257E-05      0.67096010E-19      0.21536499E-05      0.38884484E-19
   13.000000000000         0.36126887E-05      0.65611206E-19      0.30007260E-05     -0.29696061E-20
   14.000000000000         0.52150597E-05      0.44605787E-19      0.32047419E-05     -0.42010839E-19
   15.000000000000         0.66302272E-05      0.42590668E-19      0.28303350E-05     -0.40302370E-20
   16.000000000000         0.77554800E-05      0.58294433E-19      0.22505056E-05      0.31407529E-19
   17.000000000000         0.86071686E-05      0.72049238E-19      0.17033773E-05      0.27509611E-19
   18.000000000000         0.92414034E-05      0.49918332E-19      0.12684696E-05     -0.44261813E-19
   19.000000000000         0.97148857E-05      0.55604075E-19      0.94696442E-06      0.11371486E-19
   20.000000000000         0.10072191E-04      0.47484916E-19      0.71461048E-06     -0.16238318E-19
   21.000000000000         0.10344902E-04      0.88047923E-19      0.54542319E-06      0.81126014E-19
   22.000000000000         0.10555045E-04      0.64738536E-19      0.42028506E-06     -0.46618772E-19
   23.000000000000         0.10718911E-04      0.56312753E-19      0.32773281E-06     -0.16851566E-19
   24.000000000000         0.10849029E-04      0.39567818E-19      0.26023613E-06     -0.33489870E-19
   25.000000000000         0.10954486E-04      0.77837684E-19      0.21091257E-06      0.76539732E-19
   26.000000000000         0.11041470E-04      0.78068950E-19      0.17396830E-06      0.46253201E-21
   27.000000000000         0.11114682E-04      0.54673031E-19      0.14642482E-06     -0.46791840E-19
   28.000000000000         0.11177901E-04      0.70769929E-19      0.12643819E-06      0.32193798E-19
   29.000000000000         0.11233331E-04      0.98345419E-19      0.11086000E-06      0.55150979E-19
   30.000000000000         0.11281492E-04      0.10372968E-18      0.96320628E-07      0.10768519E-19
   31.000000000000         0.11322603E-04      0.11300649E-18      0.82222212E-07      0.18553622E-19
   32.000000000000         0.11357974E-04      0.13316548E-18      0.70741468E-07      0.40317977E-19
   33.000000000000         0.11389505E-04      0.14335094E-18      0.63063353E-07      0.20370930E-19
   34.000000000000         0.11418243E-04      0.18032859E-18      0.57475443E-07      0.73955295E-19
   35.000000000000         0.11444120E-04      0.20958094E-18      0.51754900E-07      0.58504691E-19
   36.000000000000         0.11466837E-04      0.20258031E-18      0.45432738E-07     -0.14001261E-19
   37.000000000000         0.11486346E-04      0.21188094E-18      0.39018922E-07      0.18601272E-19
   38.000000000000         0.11502639E-04      0.22818981E-18      0.32585216E-07      0.32617732E-19
   39.000000000000         0.11515902E-04      0.24619743E-18      0.26525803E-07      0.36015235E-19
   40.000000000000         0.11527031E-04      0.23460750E-18      0.22258795E-07     -0.23179844E-19
   41.000000000000         0.11537399E-04      0.22152003E-18      0.20735242E-07     -0.26174947E-19
   42.000000000000         0.11547963E-04      0.20371316E-18      0.21128465E-07     -0.35613749E-19
   43.000000000000         0.11558790E-04      0.20982535E-18      0.21654448E-07      0.12224393E-19
   44.000000000000         0.11569474E-04      0.20193050E-18      0.21368008E-07     -0.15789695E-19
   45.000000000000         0.11579756E-04      0.20834419E-18      0.20563773E-07      0.12827377E-19
   46.000000000000         0.11589547E-04      0.24017506E-18      0.19581564E-07      0.63661734E-19
   47.000000000000         0.11598655E-04      0.27226831E-18      0.18216998E-07      0.64186494E-19
   48.000000000000         0.11606811E-04      0.27666268E-18      0.16311120E-07      0.87887549E-20
   49.000000000000         0.11613920E-04      0.27455078E-18      0.14217122E-07     -0.42238062E-20
   50.000000000000         0.11620084E-04      0.27601341E-18      0.12329895E-07      0.29252652E-20
   51.000000000000         0.11625438E-04      0.28041604E-18      0.10708010E-07      0.88052603E-20
   52.000000000000         0.11630133E-04      0.28041046E-18      0.93896955E-08     -0.11166074E-22
   53.000000000000         0.11634409E-04      0.23795506E-18      0.85516670E-08     -0.84910794E-19
   54.000000000000         0.11638490E-04      0.26007966E-18      0.81615688E-08      0.44249200E-19
   55.000000000000         0.11642450E-04      0.26996114E-18      0.79191905E-08      0.19762956E-19
   56.000000000000         0.11646276E-04      0.28716789E-18      0.76534697E-08      0.34413488E-19
   57.000000000000         0.11649993E-04      0.30672415E-18      0.74335150E-08      0.39112533E-19
   58.000000000000         0.11653640E-04      0.32817532E-18      0.72947349E-08      0.42902340E-19
   59.000000000000         0.11657202E-04      0.33871425E-18      0.71239592E-08      0.21077854E-19
   60.000000000000         0.11660610E-04      0.35522245E-18      0.68144309E-08      0.33016407E-19
   61.000000000000         0.11663737E-04      0.33516299E-18      0.62538078E-08     -0.40118918E-19
   62.000000000000         0.11666402E-04      0.33792199E-18      0.53309086E-08      0.55179949E-20
   63.000000000000         0.11668542E-04      0.34176293E-18      0.42807336E-08      0.76818678E-20
   64.000000000000         0.11670371E-04      0.35453737E-18      0.36566619E-08      0.25548880E-19
   65.000000000000         0.11672183E-04      0.33976086E-18      0.36251690E-08     -0.29553004E-19
   66.000000000000         0.11674067E-04      0.32999760E-18      0.37682536E-08     -0.19526538E-19
   67.000000000000         0.11675924E-04      0.33454498E-18      0.37129472E-08      0.90947713E-20
   68.000000000000         0.11677802E-04      0.31270172E-18      0.37553980E-08     -0.43686514E-19
   69.000000000000         0.11680042E-04      0.31402594E-18      0.44800331E-08      0.26484296E-20
   70.000000000000         0.11682926E-04      0.31367195E-18      0.57690401E-08     -0.70797973E-21
   71.000000000000         0.11686262E-04      0.33205821E-18      0.66711334E-08      0.36772527E-19
   72.000000000000         0.11689509E-04      0.33746447E-18      0.64947456E-08      0.10812514E-19
   73.000000000000         0.11692310E-04      0.31511883E-18      0.56016284E-08     -0.44691275E-19
   74.000000000000         0.11694665E-04      0.31688138E-18      0.47096154E-08      0.35251007E-20
   75.000000000000         0.11696639E-04      0.31044612E-18      0.39494043E-08     -0.12870516E-19
   76.000000000000         0.11698262E-04      0.33459272E-18      0.32443599E-08      0.48293198E-19
   77.000000000000         0.11699709E-04      0.35468884E-18      0.28939842E-08      0.40192242E-19
   78.000000000000         0.11701273E-04      0.35294501E-18      0.31280752E-08     -0.34876698E-20
   79.000000000000         0.11703038E-04      0.36377163E-18      0.35308986E-08      0.21653251E-19
   80.000000000000         0.11704817E-04      0.37698855E-18      0.35571663E-08      0.26433825E-19
   81.000000000000         0.11706521E-04      0.37482536E-18      0.34089015E-08     -0.43263767E-20
   82.000000000000         0.11708312E-04      0.35190216E-18      0.35811772E-08     -0.45846395E-19
   83.000000000000         0.11710233E-04      0.34838616E-18      0.38432178E-08     -0.70320040E-20
   84.000000000000         0.11711993E-04      0.34939746E-18      0.35203158E-08      0.20226055E-20
   85.000000000000         0.11713308E-04      0.34285099E-18      0.26301753E-08     -0.13092946E-19
   86.000000000000         0.11714301E-04      0.35869008E-18      0.19858278E-08      0.31678174E-19
   87.000000000000         0.11715344E-04      0.36589674E-18      0.20849240E-08      0.14413327E-19
   88.000000000000         0.11716610E-04      0.36928280E-18      0.25321653E-08      0.67721171E-20
   89.000000000000         0.11717958E-04      0.38755498E-18      0.26957192E-08      0.36544365E-19
   90.000000000000         0.11719165E-04      0.36340216E-18      0.24151192E-08     -0.48305648E-19
   91.000000000000         0.11720158E-04      0.33414313E-18      0.19853702E-08     -0.58518051E-19
   92.000000000000         0.11721000E-04      0.33287899E-18      0.16837281E-08     -0.25282802E-20
   93.000000000000         0.11721785E-04      0.33373671E-18      0.15710260E-08      0.17154337E-20
   94.000000000000         0.11722602E-04      0.32192948E-18      0.16335608E-08     -0.23614449E-19
   95.000000000000         0.11723546E-04      0.32811318E-18      0.18874700E-08      0.12367402E-19
   96.000000000000         0.11724709E-04      0.32924493E-18      0.23264716E-08      0.22634868E-20
   97.000000000000         0.11726080E-04      0.34679363E-18      0.27425049E-08      0.35097409E-19
   98.000000000000         0.11727468E-04      0.34674343E-18      0.27753575E-08     -0.10039926E-21
   99.000000000000         0.11728664E-04      0.38015356E-18      0.23925046E-08      0.66820251E-19
  100.000000000000         0.11729674E-04      0.37355041E-18      0.20188794E-08     -0.13206305E-19
  101.000000000000         0.11730637E-04      0.36447979E-18      0.19269241E-08     -0.18141226E-19
  102.000000000000         0.11731586E-04      0.35111646E-18      0.18968867E-08     -0.26726663E-19
  103.000000000000         0.11732506E-04      0.36693507E-18      0.18399988E-08      0.31637222E-19
  104.000000000000         0.11733620E-04      0.36188544E-18      0.22291456E-08     -0.10099264E-19
  105.000000000000         0.11735255E-04      0.37231543E-18      0.32694431E-08      0.20859980E-19
  106.000000000000         0.11737356E-04      0.37210013E-18      0.42016856E-08     -0.43060050E-21
  107.000000000000         0.11739421E-04      0.36586465E-18      0.41309812E-08     -0.12470954E-19
  108.000000000000         0.11741035E-04      0.37370329E-18      0.32267506E-08      0.15677275E-19
  109.000000000000         0.11742273E-04      0.38132807E-18      0.24774960E-08      0.15249560E-19
  110.000000000000         0.11743485E-04      0.38298086E-18      0.24233598E-08      0.33055824E-20
  111.000000000000         0.11744868E-04      0.38350021E-18      0.27657825E-08      0.10386873E-20
  112.000000000000         0.11746380E-04      0.36209700E-18      0.30239614E-08     -0.42806405E-19
  113.000000000000         0.11747861E-04      0.34198108E-18      0.29623632E-08     -0.40231853E-19
  114.000000000000         0.11749155E-04      0.36130268E-18      0.25871555E-08      0.38643200E-19
  115.000000000000         0.11750188E-04      0.38643251E-18      0.20656593E-08      0.50259672E-19
  116.000000000000         0.11751010E-04      0.38600051E-18      0.16446069E-08     -0.86401305E-21
  117.000000000000         0.11751761E-04      0.37872432E-18      0.15020378E-08     -0.14552375E-19
  118.000000000000         0.11752568E-04      0.39234422E-18      0.16132013E-08      0.27239797E-19
  119.000000000000         0.11753443E-04      0.38623443E-18      0.17505065E-08     -0.12219582E-19
  120.000000000000         0.11754278E-04      0.38869687E-18      0.16706761E-08      0.49248796E-20
  121.000000000000         0.11755010E-04      0.40878445E-18      0.14638091E-08      0.40175169E-19
  122.000000000000         0.11755766E-04      0.43004470E-18      0.15114422E-08      0.42520501E-19
  123.000000000000         0.11756728E-04      0.44317777E-18      0.19237494E-08      0.26266130E-19
  124.000000000000         0.11757881E-04      0.46405044E-18      0.23068556E-08      0.41745357E-19
  125.000000000000         0.11759013E-04      0.47138620E-18      0.22637999E-08      0.14671521E-19
  126.000000000000         0.11759994E-04      0.47013863E-18      0.19625640E-08     -0.24951595E-20
  127.000000000000         0.11760948E-04      0.46149902E-18      0.19082163E-08     -0.17279219E-19
  128.000000000000         0.11762047E-04      0.44581919E-18      0.21979060E-08     -0.31359656E-19
  129.000000000000         0.11763276E-04      0.46348424E-18      0.24570192E-08      0.35330106E-19
  130.000000000000         0.11764486E-04      0.47686683E-18      0.24195716E-08      0.26765169E-19
  131.000000000000         0.11765583E-04      0.46168705E-18      0.21954757E-08     -0.30359542E-19
  132.000000000000         0.11766580E-04      0.45983662E-18      0.19936387E-08     -0.37008735E-20
  133.000000000000         0.11767520E-04      0.49098526E-18      0.18799978E-08      0.62297290E-19
  134.000000000000         0.11768449E-04      0.49897947E-18      0.18567342E-08      0.15988407E-19
  135.000000000000         0.11769431E-04      0.49354157E-18      0.19643864E-08     -0.10875797E-19
  136.000000000000         0.11770534E-04      0.49986120E-18      0.22062515E-08      0.12639274E-19
  137.000000000000         0.11771784E-04      0.52600384E-18      0.24994789E-08      0.52285265E-19
  138.000000000000         0.11773135E-04      0.54951794E-18      0.27024035E-08      0.47028204E-19
  139.000000000000         0.11774471E-04      0.53919927E-18      0.26717579E-08     -0.20637333E-19
  140.000000000000         0.11775656E-04      0.52109335E-18      0.23714295E-08     -0.36211845E-19
  141.000000000000         0.11776638E-04      0.51480271E-18      0.19639293E-08     -0.12581284E-19
  142.000000000000         0.11777484E-04      0.52107747E-18      0.16920863E-08      0.12549522E-19
  143.000000000000         0.11778301E-04      0.52030671E-18      0.16322923E-08     -0.15415086E-20
  144.000000000000         0.11779144E-04      0.51247277E-18      0.16864275E-08     -0.15667896E-19
  145.000000000000         0.11780038E-04      0.51977033E-18      0.17890214E-08      0.14595128E-19
  146.000000000000         0.11780998E-04      0.53148511E-18      0.19188767E-08      0.23429565E-19
  147.000000000000         0.11781977E-04      0.52239271E-18      0.19578542E-08     -0.18184802E-19
  148.000000000000         0.11782880E-04      0.53211098E-18      0.18076475E-08      0.19436528E-19
  149.000000000000         0.11783663E-04      0.55179736E-18      0.15659805E-08      0.39372772E-19
  150.000000000000         0.11784382E-04      0.55868501E-18      0.14372564E-08      0.13775299E-19
  151.000000000000         0.11785137E-04      0.55387056E-18      0.15099973E-08     -0.96288997E-20
  152.000000000000         0.11785982E-04      0.54397896E-18      0.16903959E-08     -0.19783209E-19
  153.000000000000         0.11786893E-04      0.55777139E-18      0.18216641E-08      0.27584862E-19
  154.000000000000         0.11787805E-04      0.53593576E-18      0.18229966E-08     -0.43671265E-19
  155.000000000000         0.11788661E-04      0.55707627E-18      0.17137243E-08      0.42281029E-19
  156.000000000000         0.11789448E-04      0.58933158E-18      0.15736959E-08      0.64510627E-19
  157.000000000000         0.11790169E-04      0.58878644E-18      0.14421546E-08     -0.10902813E-20
  158.000000000000         0.11790822E-04      0.60062779E-18      0.13050075E-08      0.23682692E-19
  159.000000000000         0.11791443E-04      0.61954209E-18      0.12427560E-08      0.37828607E-19
  160.000000000000         0.11792159E-04      0.63055203E-18      0.14323963E-08      0.22019866E-19
  161.000000000000         0.11793097E-04      0.60949704E-18      0.18751247E-08     -0.42109963E-19
  162.000000000000         0.11794215E-04      0.60335865E-18      0.22360114E-08     -0.12276785E-19
  163.000000000000         0.11795335E-04      0.60595262E-18      0.22400216E-08      0.51879328E-20
  164.000000000000         0.11796392E-04      0.62322484E-18      0.21133307E-08      0.34544436E-19
  165.000000000000         0.11797516E-04      0.64773267E-18      0.22476542E-08      0.49015672E-19
  166.000000000000         0.11798792E-04      0.63720912E-18      0.25529110E-08     -0.21047108E-19
  167.000000000000         0.11800068E-04      0.65218706E-18      0.25519321E-08      0.29955878E-19
  168.000000000000         0.11801123E-04      0.66531277E-18      0.21096697E-08      0.26251433E-19
  169.000000000000         0.11801943E-04      0.65900900E-18      0.16406974E-08     -0.12607539E-19
  170.000000000000         0.11802686E-04      0.64811457E-18      0.14855618E-08     -0.21788877E-19
  171.000000000000         0.11803491E-04      0.62386079E-18      0.16105429E-08     -0.48507546E-19
  172.000000000000         0.11804422E-04      0.61112280E-18      0.18616224E-08     -0.25475991E-19
  173.000000000000         0.11805473E-04      0.61804378E-18      0.21017173E-08      0.13841958E-19
  174.000000000000         0.11806535E-04      0.63806809E-18      0.21248356E-08      0.40048621E-19
  175.000000000000         0.11807443E-04      0.65011484E-18      0.18162173E-08      0.24093511E-19
  176.000000000000         0.11808147E-04      0.66351164E-18      0.14077119E-08      0.26793584E-19
  177.000000000000         0.11808757E-04      0.68099987E-18      0.12191526E-08      0.34976478E-19
  178.000000000000         0.11809373E-04      0.68901834E-18      0.12325368E-08      0.16036924E-19
  179.000000000000         0.11809978E-04      0.66023001E-18      0.12091193E-08     -0.57576656E-19
  180.000000000000         0.11810507E-04      0.64811382E-18      0.10584643E-08     -0.24232380E-19
  181.000000000000         0.11810980E-04      0.62793111E-18      0.94530293E-09     -0.40365407E-19
  182.000000000000         0.11811503E-04      0.62988423E-18      0.10473473E-08      0.39062261E-20
  183.000000000000         0.11812177E-04      0.66191181E-18      0.13485577E-08      0.64055171E-19
  184.000000000000         0.11813014E-04      0.68032900E-18      0.16721716E-08      0.36834377E-19
  185.000000000000         0.11813912E-04      0.68487579E-18      0.17971062E-08      0.90935726E-20
  186.000000000000         0.11814732E-04      0.68989106E-18      0.16401727E-08      0.10030546E-19
  187.000000000000         0.11815406E-04      0.69148344E-18      0.13471331E-08      0.31847492E-20
  188.000000000000         0.11815982E-04      0.69368765E-18      0.11532672E-08      0.44084271E-20
  189.000000000000         0.11816574E-04      0.70448184E-18      0.11826891E-08      0.21588372E-19
  190.000000000000         0.11817257E-04      0.70570287E-18      0.13673087E-08      0.24420695E-20
  191.000000000000         0.11818010E-04      0.68494734E-18      0.15045821E-08     -0.41511051E-19
  192.000000000000         0.11818722E-04      0.69127076E-18      0.14240566E-08      0.12646822E-19
  193.000000000000         0.11819276E-04      0.70126101E-18      0.11080384E-08      0.19980506E-19
  194.000000000000         0.11819639E-04      0.71342883E-18      0.72596664E-09      0.24335632E-19
