 #KVL flux sum: time, flux integral, flux
 
    0.000000000000         0.75533270E-13     -0.33111026E-19      0.15106654E-12     -0.66222052E-19
    1.000000000000         0.15105771E-12     -0.54450749E-21      0.15104887E-12      0.65133037E-19
    2.000000000000         0.22737835E-12      0.17811058E-20      0.15264128E-12      0.46512265E-20
    3.000000000000         0.37574905E-12      0.49340524E-22      0.29674141E-12     -0.34635305E-20
    4.000000000000         0.43856997E-11      0.43773194E-20      0.80199012E-11      0.86559577E-20
    5.000000000000         0.79196254E-10      0.71322692E-20      0.14962111E-09      0.55098996E-20
    6.000000000000         0.79302095E-09      0.65728761E-20      0.14276494E-08     -0.11187862E-20
    7.000000000000         0.52639432E-08      0.29035768E-20      0.89418445E-08     -0.73385987E-20
    8.000000000000         0.25591295E-07      0.23397483E-19      0.40654704E-07      0.40987813E-19
    9.000000000000         0.96308187E-07      0.64310939E-20      0.14143378E-06     -0.33932779E-19
   10.000000000000         0.29019546E-06      0.16976060E-19      0.38777455E-06      0.21089933E-19
   11.000000000000         0.71622977E-06      0.23792031E-19      0.85206861E-06      0.13631942E-19
   12.000000000000         0.14754456E-05      0.26862159E-19      0.15184316E-05      0.61402555E-20
   13.000000000000         0.25564623E-05      0.44107781E-19      0.21620334E-05      0.34491244E-19
   14.000000000000         0.37930314E-05      0.72373026E-19      0.24731382E-05      0.56530491E-19
   15.000000000000         0.49881225E-05      0.87374224E-19      0.23901822E-05      0.30002394E-19
   16.000000000000         0.60054364E-05      0.98540071E-19      0.20346278E-05      0.22331694E-19
   17.000000000000         0.67909563E-05      0.10198392E-18      0.15710398E-05      0.68876923E-20
   18.000000000000         0.73602987E-05      0.12685274E-18      0.11386848E-05      0.49737645E-19
   19.000000000000         0.77705183E-05      0.12018604E-18      0.82043932E-06     -0.13333400E-19
   20.000000000000         0.80881244E-05      0.12938884E-18      0.63521209E-06      0.18405604E-19
   21.000000000000         0.83640710E-05      0.13879103E-18      0.55189319E-06      0.18804372E-19
   22.000000000000         0.86223794E-05      0.14465228E-18      0.51661693E-06      0.11722506E-19
   23.000000000000         0.88617402E-05      0.16194848E-18      0.47872143E-06      0.34592390E-19
   24.000000000000         0.90668757E-05      0.17173239E-18      0.41027116E-06      0.19567831E-19
   25.000000000000         0.92250132E-05      0.19521546E-18      0.31627492E-06      0.46966147E-19
   26.000000000000         0.93397337E-05      0.19730947E-18      0.22944098E-06      0.41880069E-20
   27.000000000000         0.94341023E-05      0.18238994E-18      0.18873713E-06     -0.29839055E-19
   28.000000000000         0.95397039E-05      0.16004760E-18      0.21120331E-06     -0.44684672E-19
   29.000000000000         0.96779967E-05      0.14866135E-18      0.27658558E-06     -0.22772500E-19
   30.000000000000         0.98479728E-05      0.13776040E-18      0.33995210E-06     -0.21801900E-19
   31.000000000000         0.10028890E-04      0.14351853E-18      0.36183518E-06      0.11516260E-19
   32.000000000000         0.10195103E-04      0.15512916E-18      0.33242535E-06      0.23221244E-19
   33.000000000000         0.10331224E-04      0.16963826E-18      0.27224189E-06      0.29018199E-19
   34.000000000000         0.10437015E-04      0.17846489E-18      0.21158240E-06      0.17653271E-19
   35.000000000000         0.10521853E-04      0.18637582E-18      0.16967554E-06      0.15821850E-19
   36.000000000000         0.10595667E-04      0.18201967E-18      0.14762873E-06     -0.87122900E-20
   37.000000000000         0.10663234E-04      0.19473671E-18      0.13513429E-06      0.25434080E-19
   38.000000000000         0.10724324E-04      0.19080799E-18      0.12217954E-06     -0.78574424E-20
   39.000000000000         0.10776846E-04      0.17239819E-18      0.10504380E-06     -0.36819605E-19
   40.000000000000         0.10820561E-04      0.16173075E-18      0.87429117E-07     -0.21334883E-19
   41.000000000000         0.10859195E-04      0.15944347E-18      0.77268017E-07     -0.45745444E-20
   42.000000000000         0.10898797E-04      0.15170293E-18      0.79204028E-07     -0.15481085E-19
   43.000000000000         0.10943123E-04      0.16222140E-18      0.88653308E-07      0.21036938E-19
   44.000000000000         0.10990032E-04      0.14411207E-18      0.93816669E-07     -0.36218649E-19
   45.000000000000         0.11033392E-04      0.11897318E-18      0.86720598E-07     -0.50277795E-19
   46.000000000000         0.11068780E-04      0.11476854E-18      0.70776632E-07     -0.84092831E-20
   47.000000000000         0.11096532E-04      0.14045824E-18      0.55503464E-07      0.51379418E-19
   48.000000000000         0.11120124E-04      0.14497007E-18      0.47184124E-07      0.90236555E-20
   49.000000000000         0.11143026E-04      0.12563566E-18      0.45802948E-07     -0.38668820E-19
   50.000000000000         0.11166517E-04      0.14338428E-18      0.46983059E-07      0.35497230E-19
   51.000000000000         0.11189605E-04      0.14700750E-18      0.46176366E-07      0.72464438E-20
   52.000000000000         0.11210698E-04      0.15487414E-18      0.42184668E-07      0.15733279E-19
   53.000000000000         0.11229026E-04      0.17377185E-18      0.36657418E-07      0.37795415E-19
   54.000000000000         0.11245174E-04      0.15304819E-18      0.32295794E-07     -0.41447312E-19
   55.000000000000         0.11260727E-04      0.15564638E-18      0.31105253E-07      0.51963812E-20
   56.000000000000         0.11276971E-04      0.15441244E-18      0.32489271E-07     -0.24678767E-20
   57.000000000000         0.11293659E-04      0.18224943E-18      0.33374749E-07      0.55673974E-19
   58.000000000000         0.11309079E-04      0.18320867E-18      0.30840024E-07      0.19184803E-20
   59.000000000000         0.11321522E-04      0.16368164E-18      0.24886287E-07     -0.39054050E-19
   60.000000000000         0.11330677E-04      0.18974841E-18      0.18309622E-07      0.52133536E-19
   61.000000000000         0.11337577E-04      0.20135652E-18      0.13800540E-07      0.23216213E-19
   62.000000000000         0.11343674E-04      0.18247247E-18      0.12194777E-07     -0.37768095E-19
   63.000000000000         0.11350045E-04      0.18716034E-18      0.12740975E-07      0.93757418E-20
   64.000000000000         0.11356910E-04      0.18178111E-18      0.13730101E-07     -0.10758471E-19
   65.000000000000         0.11363559E-04      0.17276696E-18      0.13298886E-07     -0.18028303E-19
   66.000000000000         0.11368923E-04      0.20396920E-18      0.10727826E-07      0.62404489E-19
   67.000000000000         0.11372672E-04      0.21144333E-18      0.74981024E-08      0.14948261E-19
   68.000000000000         0.11375847E-04      0.21787217E-18      0.63483017E-08      0.12857680E-19
   69.000000000000         0.11380112E-04      0.22867993E-18      0.85316593E-08      0.21615511E-19
   70.000000000000         0.11386138E-04      0.23936075E-18      0.12051623E-07      0.21361658E-19
   71.000000000000         0.11392913E-04      0.23994337E-18      0.13549510E-07      0.11652238E-20
   72.000000000000         0.11398742E-04      0.25165669E-18      0.11658342E-07      0.23426655E-19
   73.000000000000         0.11402754E-04      0.24305852E-18      0.80231916E-08     -0.17196351E-19
   74.000000000000         0.11405566E-04      0.24537725E-18      0.56241349E-08      0.46374652E-20
   75.000000000000         0.11408371E-04      0.25378264E-18      0.56101567E-08      0.16810777E-19
   76.000000000000         0.11411692E-04      0.24073500E-18      0.66431640E-08     -0.26095288E-19
   77.000000000000         0.11415349E-04      0.22365434E-18      0.73125922E-08     -0.34161319E-19
   78.000000000000         0.11419132E-04      0.23511490E-18      0.75665962E-08      0.22921136E-19
   79.000000000000         0.11423123E-04      0.26110192E-18      0.79825562E-08      0.51974036E-19
   80.000000000000         0.11427499E-04      0.24954689E-18      0.87511274E-08     -0.23110071E-19
   81.000000000000         0.11432405E-04      0.21619344E-18      0.98123749E-08     -0.66706902E-19
   82.000000000000         0.11437884E-04      0.21019747E-18      0.10958754E-07     -0.11991942E-19
   83.000000000000         0.11443739E-04      0.20423232E-18      0.11709114E-07     -0.11930290E-19
   84.000000000000         0.11449586E-04      0.20273363E-18      0.11694211E-07     -0.29973823E-20
   85.000000000000         0.11455057E-04      0.23173297E-18      0.10942474E-07      0.57998675E-19
   86.000000000000         0.11460000E-04      0.24503281E-18      0.98859734E-08      0.26599683E-19
   87.000000000000         0.11464528E-04      0.26016018E-18      0.90560374E-08      0.30254748E-19
   88.000000000000         0.11468830E-04      0.25300522E-18      0.86038169E-08     -0.14309928E-19
   89.000000000000         0.11473096E-04      0.24127795E-18      0.85305070E-08     -0.23454543E-19
   90.000000000000         0.11477546E-04      0.21419476E-18      0.89017236E-08     -0.54166371E-19
   91.000000000000         0.11482342E-04      0.23282961E-18      0.95916454E-08      0.37269695E-19
   92.000000000000         0.11487342E-04      0.21941401E-18      0.10000214E-07     -0.26831196E-19
   93.000000000000         0.11492057E-04      0.22653023E-18      0.94290549E-08      0.14232428E-19
   94.000000000000         0.11495980E-04      0.20740130E-18      0.78460414E-08     -0.38257861E-19
   95.000000000000         0.11498996E-04      0.19306971E-18      0.60331536E-08     -0.28663162E-19
   96.000000000000         0.11501558E-04      0.20707201E-18      0.51236444E-08      0.28004582E-19
   97.000000000000         0.11504593E-04      0.20873478E-18      0.60690553E-08      0.33255426E-20
   98.000000000000         0.11509156E-04      0.19131594E-18      0.91267585E-08     -0.34837672E-19
   99.000000000000         0.11515967E-04      0.16969658E-18      0.13622431E-07     -0.43238727E-19
  100.000000000000         0.11525053E-04      0.19241743E-18      0.18170945E-07      0.45441708E-19
  101.000000000000         0.11535711E-04      0.17880943E-18      0.21316684E-07     -0.27216003E-19
  102.000000000000         0.11546823E-04      0.16688256E-18      0.22222624E-07     -0.23853745E-19
  103.000000000000         0.11557326E-04      0.17732470E-18      0.21007846E-07      0.20884279E-19
  104.000000000000         0.11566671E-04      0.17679394E-18      0.18688860E-07     -0.10615040E-20
  105.000000000000         0.11574950E-04      0.18513147E-18      0.16558790E-07      0.16675057E-19
  106.000000000000         0.11582541E-04      0.18264052E-18      0.15180883E-07     -0.49819067E-20
  107.000000000000         0.11589551E-04      0.20907112E-18      0.14020107E-07      0.52861205E-19
  108.000000000000         0.11595690E-04      0.22194105E-18      0.12278360E-07      0.25739863E-19
  109.000000000000         0.11600652E-04      0.20908291E-18      0.99235836E-08     -0.25716296E-19
  110.000000000000         0.11604572E-04      0.19865108E-18      0.78409884E-08     -0.20863652E-19
  111.000000000000         0.11608023E-04      0.21854070E-18      0.69019979E-08      0.39779237E-19
  112.000000000000         0.11611504E-04      0.23561003E-18      0.69622506E-08      0.34138656E-19
  113.000000000000         0.11615069E-04      0.20999594E-18      0.71294674E-08     -0.51228182E-19
  114.000000000000         0.11618524E-04      0.20627643E-18      0.69098403E-08     -0.74390137E-20
  115.000000000000         0.11621867E-04      0.19686739E-18      0.66864151E-08     -0.18818080E-19
  116.000000000000         0.11625409E-04      0.20264148E-18      0.70827508E-08      0.11548180E-19
  117.000000000000         0.11629567E-04      0.21028251E-18      0.83173700E-08      0.15282057E-19
  118.000000000000         0.11634704E-04      0.22654521E-18      0.10274269E-07      0.32525402E-19
  119.000000000000         0.11641059E-04      0.21575467E-18      0.12708250E-07     -0.21581084E-19
  120.000000000000         0.11648671E-04      0.20877034E-18      0.15224890E-07     -0.13968656E-19
  121.000000000000         0.11657344E-04      0.20369612E-18      0.17346951E-07     -0.10148444E-19
  122.000000000000         0.11666657E-04      0.19412926E-18      0.18624480E-07     -0.19133717E-19
  123.000000000000         0.11676045E-04      0.19904843E-18      0.18776000E-07      0.98383450E-20
  124.000000000000         0.11684950E-04      0.21184626E-18      0.17810718E-07      0.25595665E-19
  125.000000000000         0.11692917E-04      0.21750952E-18      0.15933239E-07      0.11326504E-19
  126.000000000000         0.11699648E-04      0.20001479E-18      0.13462454E-07     -0.34989454E-19
  127.000000000000         0.11705084E-04      0.20480766E-18      0.10872084E-07      0.95857525E-20
  128.000000000000         0.11709450E-04      0.18758736E-18      0.87329454E-08     -0.34440607E-19
  129.000000000000         0.11713064E-04      0.13403707E-18      0.72262073E-08     -0.10710057E-18
  130.000000000000         0.11716078E-04      0.13113254E-18      0.60285929E-08     -0.58090749E-20
  131.000000000000         0.11718544E-04      0.14039405E-18      0.49316367E-08      0.18523024E-19
  132.000000000000         0.11720486E-04      0.13740353E-18      0.38857226E-08     -0.59810432E-20
  133.000000000000         0.11721938E-04      0.15434744E-18      0.29026402E-08      0.33887831E-19
  134.000000000000         0.11722984E-04      0.13098617E-18      0.20928506E-08     -0.46722540E-19
  135.000000000000         0.11723856E-04      0.13448095E-18      0.17443298E-08      0.69895618E-20
  136.000000000000         0.11724974E-04      0.11314868E-18      0.22346480E-08     -0.42664541E-19
  137.000000000000         0.11726698E-04      0.11782033E-18      0.34483307E-08      0.93432933E-20
  138.000000000000         0.11729103E-04      0.11493845E-18      0.48092669E-08     -0.57637511E-20
  139.000000000000         0.11731972E-04      0.10293896E-18      0.57381408E-08     -0.23998996E-19
  140.000000000000         0.11735021E-04      0.95948740E-19      0.60994000E-08     -0.13980432E-19
  141.000000000000         0.11738175E-04      0.95321976E-19      0.63068208E-08     -0.12535291E-20
  142.000000000000         0.11741503E-04      0.94123348E-19      0.66561065E-08     -0.23972546E-20
  143.000000000000         0.11744962E-04      0.78266964E-19      0.69183125E-08     -0.31712769E-19
  144.000000000000         0.11748400E-04      0.86453249E-19      0.68768579E-08      0.16372571E-19
  145.000000000000         0.11751735E-04      0.85825343E-19      0.66684709E-08     -0.12558115E-20
  146.000000000000         0.11754934E-04      0.78568374E-19      0.63984160E-08     -0.14513939E-19
  147.000000000000         0.11757909E-04      0.94905480E-19      0.59506166E-08      0.32674214E-19
  148.000000000000         0.11760499E-04      0.10736309E-18      0.51795904E-08      0.24915215E-19
  149.000000000000         0.11762514E-04      0.11080349E-18      0.40307703E-08      0.68808099E-20
  150.000000000000         0.11763950E-04      0.92179520E-19      0.28722351E-08     -0.37247946E-19
  151.000000000000         0.11765073E-04      0.92468764E-19      0.22450215E-08      0.57848806E-21
  152.000000000000         0.11766229E-04      0.89488069E-19      0.23125454E-08     -0.59613903E-20
  153.000000000000         0.11767653E-04      0.84880979E-19      0.28484460E-08     -0.92141799E-20
  154.000000000000         0.11769225E-04      0.11485667E-18      0.31428278E-08      0.59951374E-19
  155.000000000000         0.11770501E-04      0.11344424E-18      0.25532194E-08     -0.28248533E-20
  156.000000000000         0.11771106E-04      0.13068478E-18      0.12087403E-08      0.34481082E-19
  157.000000000000         0.11771074E-04      0.14305001E-18     -0.63752843E-10      0.24730458E-19
  158.000000000000         0.11770914E-04      0.14599756E-18     -0.31941233E-09      0.58951090E-20
  159.000000000000         0.11771240E-04      0.13611858E-18      0.65214500E-09     -0.19757960E-19
  160.000000000000         0.11772326E-04      0.13671527E-18      0.21710823E-08      0.11933660E-20
  161.000000000000         0.11773808E-04      0.12701082E-18      0.29643001E-08     -0.19408896E-19
  162.000000000000         0.11774861E-04      0.13005603E-18      0.21065759E-08      0.60904228E-20
  163.000000000000         0.11775014E-04      0.12409518E-18      0.30459251E-09     -0.11921691E-19
  164.000000000000         0.11774631E-04      0.11657198E-18     -0.76551867E-09     -0.15046401E-19
  165.000000000000         0.11774498E-04      0.12104434E-18     -0.26497651E-09      0.89447119E-20
  166.000000000000         0.11775112E-04      0.13722812E-18      0.12263942E-08      0.32367569E-19
  167.000000000000         0.11776378E-04      0.12329817E-18      0.25330190E-08     -0.27859905E-19
  168.000000000000         0.11777763E-04      0.11086808E-18      0.27694040E-08     -0.24860188E-19
  169.000000000000         0.11778696E-04      0.13494702E-18      0.18658125E-08      0.48157890E-19
  170.000000000000         0.11779059E-04      0.12568041E-18      0.72692515E-09     -0.18533228E-19
  171.000000000000         0.11779372E-04      0.11989780E-18      0.62521267E-09     -0.11565211E-19
  172.000000000000         0.11780470E-04      0.13437561E-18      0.21966559E-08      0.28955615E-19
  173.000000000000         0.11782863E-04      0.10446090E-18      0.47858145E-08     -0.59829417E-19
  174.000000000000         0.11786215E-04      0.10011175E-18      0.67046858E-08     -0.86983082E-20
  175.000000000000         0.11789438E-04      0.80720731E-19      0.64459050E-08     -0.38782035E-19
  176.000000000000         0.11791547E-04      0.87040939E-19      0.42172031E-08      0.12640415E-19
  177.000000000000         0.11792511E-04      0.57866621E-19      0.19275608E-08     -0.58348635E-19
  178.000000000000         0.11793159E-04      0.60731080E-19      0.12969902E-08      0.57289175E-20
  179.000000000000         0.11794443E-04      0.59759732E-19      0.25680924E-08     -0.19426958E-20
  180.000000000000         0.11796850E-04      0.45836043E-19      0.48130258E-08     -0.27847378E-19
  181.000000000000         0.11800254E-04      0.39795515E-19      0.68079557E-08     -0.12081055E-19
  182.000000000000         0.11804123E-04      0.27993353E-19      0.77390113E-08     -0.23604324E-19
  183.000000000000         0.11807787E-04      0.33855647E-19      0.73279754E-08      0.11724588E-19
  184.000000000000         0.11810742E-04      0.68807391E-19      0.59092439E-08      0.69903488E-19
  185.000000000000         0.11812927E-04      0.59930978E-19      0.43706964E-08     -0.17752827E-19
  186.000000000000         0.11814702E-04      0.86259820E-19      0.35504049E-08      0.52657685E-19
  187.000000000000         0.11816490E-04      0.74849011E-19      0.35746962E-08     -0.22821618E-19
  188.000000000000         0.11818390E-04      0.62778893E-19      0.38004398E-08     -0.24140237E-19
  189.000000000000         0.11820173E-04      0.55046560E-19      0.35665847E-08     -0.15464665E-19
  190.000000000000         0.11821576E-04      0.62925223E-19      0.28052550E-08      0.15757326E-19
  191.000000000000         0.11822539E-04      0.61389235E-19      0.19257027E-08     -0.30719752E-20
  192.000000000000         0.11823366E-04      0.59295058E-19      0.16545616E-08     -0.41883557E-20
  193.000000000000         0.11824754E-04      0.43194514E-19      0.27764400E-08     -0.32201087E-19
  194.000000000000         0.11827409E-04      0.37196492E-19      0.53091552E-08     -0.11996045E-19
