 #KVL flux sum: time, flux integral, flux
 
    0.000000000000         0.00000000E+00      0.00000000E+00      0.00000000E+00      0.00000000E+00
    1.000000000000         0.11129955E-16      0.87972945E-20      0.22259910E-16      0.17594589E-19
    2.000000000000         0.16033438E-14      0.27977312E-19      0.31844278E-14      0.38360036E-19
    3.000000000000         0.77237779E-13      0.12199307E-19      0.15126887E-12     -0.31556011E-19
    4.000000000000         0.33528044E-11      0.30781809E-19      0.65511332E-11      0.37165005E-19
    5.000000000000         0.78666854E-10      0.37093317E-19      0.15062810E-09      0.12623016E-19
    6.000000000000         0.93502616E-09      0.15815712E-19      0.17127186E-08     -0.42555209E-19
    7.000000000000         0.69163478E-08      0.26074227E-19      0.11962643E-07      0.20517028E-19
    8.000000000000         0.35729444E-07      0.43910485E-19      0.57626192E-07      0.35672517E-19
    9.000000000000         0.13837081E-06      0.65963269E-19      0.20528273E-06      0.44105569E-19
   10.000000000000         0.42085101E-06      0.55679547E-19      0.56496040E-06     -0.20567446E-19
   11.000000000000         0.10366340E-05      0.60740853E-19      0.12315660E-05      0.10122613E-19
   12.000000000000         0.21141270E-05      0.56381051E-19      0.21549861E-05     -0.87196041E-20
   13.000000000000         0.36151601E-05      0.29779343E-19      0.30020662E-05     -0.53203417E-19
   14.000000000000         0.52175319E-05      0.18822616E-19      0.32047436E-05     -0.21913454E-19
   15.000000000000         0.66321731E-05      0.30318694E-19      0.28292824E-05      0.22992155E-19
   16.000000000000         0.77567686E-05      0.37964150E-19      0.22491911E-05      0.15290913E-19
   17.000000000000         0.86080163E-05      0.46834895E-19      0.17024952E-05      0.17741491E-19
   18.000000000000         0.92422114E-05      0.35823150E-19      0.12683903E-05     -0.22023491E-19
   19.000000000000         0.97159677E-05      0.39053391E-19      0.94751266E-06      0.64604817E-20
   20.000000000000         0.10073584E-04      0.74732082E-19      0.71523287E-06      0.71357384E-19
   21.000000000000         0.10346414E-04      0.88717835E-19      0.54565945E-06      0.27971506E-19
   22.000000000000         0.10556482E-04      0.10967870E-18      0.42013555E-06      0.41921731E-19
   23.000000000000         0.10720257E-04      0.93889962E-19      0.32755150E-06     -0.31577477E-19
   24.000000000000         0.10850406E-04      0.97109629E-19      0.26029807E-06      0.64393327E-20
   25.000000000000         0.10955997E-04      0.10044592E-18      0.21118137E-06      0.66725885E-20
   26.000000000000         0.11043114E-04      0.11437006E-18      0.17423314E-06      0.27848275E-19
   27.000000000000         0.11116383E-04      0.87442746E-19      0.14653852E-06     -0.53854631E-19
   28.000000000000         0.11179589E-04      0.94508486E-19      0.12641120E-06      0.14131482E-19
   29.000000000000         0.11234986E-04      0.10061932E-18      0.11079579E-06      0.12221668E-19
   30.000000000000         0.11283137E-04      0.13200027E-18      0.96300765E-07      0.62761905E-19
   31.000000000000         0.11324265E-04      0.15836378E-18      0.82256390E-07      0.52727012E-19
   32.000000000000         0.11359661E-04      0.14638366E-18      0.70791043E-07     -0.23960234E-19
   33.000000000000         0.11391206E-04      0.15252377E-18      0.63091393E-07      0.12280206E-19
   34.000000000000         0.11419942E-04      0.14490882E-18      0.57472256E-07     -0.15229899E-19
   35.000000000000         0.11445811E-04      0.12987158E-18      0.51737431E-07     -0.30074467E-19
   36.000000000000         0.11468525E-04      0.13120042E-18      0.45427846E-07      0.26576824E-20
   37.000000000000         0.11488037E-04      0.16735538E-18      0.39024654E-07      0.72309907E-19
   38.000000000000         0.11504327E-04      0.20222455E-18      0.32580045E-07      0.69738350E-19
   39.000000000000         0.11517581E-04      0.18883042E-18      0.26506904E-07     -0.26788270E-19
   40.000000000000         0.11528715E-04      0.21790435E-18      0.22268100E-07      0.58147862E-19
   41.000000000000         0.11539110E-04      0.22672496E-18      0.20789899E-07      0.17641226E-19
   42.000000000000         0.11549696E-04      0.22394735E-18      0.21172312E-07     -0.55552310E-20
   43.000000000000         0.11560507E-04      0.25083620E-18      0.21621348E-07      0.53777701E-19
   44.000000000000         0.11571155E-04      0.23706910E-18      0.21296419E-07     -0.27534202E-19
   45.000000000000         0.11581430E-04      0.25890594E-18      0.20550090E-07      0.43673694E-19
   46.000000000000         0.11591246E-04      0.25052642E-18      0.19632419E-07     -0.16759048E-19
   47.000000000000         0.11600363E-04      0.25831271E-18      0.18232800E-07      0.15572577E-19
   48.000000000000         0.11608486E-04      0.26234298E-18      0.16247026E-07      0.80605525E-20
   49.000000000000         0.11615562E-04      0.25966130E-18      0.14152207E-07     -0.53633581E-20
   50.000000000000         0.11621733E-04      0.26011914E-18      0.12342275E-07      0.91567793E-21
   51.000000000000         0.11627112E-04      0.25491720E-18      0.10756808E-07     -0.10403884E-19
   52.000000000000         0.11631810E-04      0.25430961E-18      0.93962524E-08     -0.12151833E-20
   53.000000000000         0.11636072E-04      0.24635920E-18      0.85236261E-08     -0.15900817E-19
   54.000000000000         0.11640155E-04      0.24472109E-18      0.81672171E-08     -0.32762137E-20
   55.000000000000         0.11644138E-04      0.24655689E-18      0.79647909E-08      0.36715892E-20
   56.000000000000         0.11647977E-04      0.26910605E-18      0.76778698E-08      0.45098326E-19
   57.000000000000         0.11651684E-04      0.27551424E-18      0.74152761E-08      0.12816369E-19
   58.000000000000         0.11655328E-04      0.28412818E-18      0.72877099E-08      0.17227895E-19
   59.000000000000         0.11658909E-04      0.27650405E-18      0.71623109E-08     -0.15248277E-19
   60.000000000000         0.11662333E-04      0.26405531E-18      0.68466866E-08     -0.24897470E-19
   61.000000000000         0.11665446E-04      0.24526468E-18      0.62265918E-08     -0.37581263E-19
   62.000000000000         0.11668083E-04      0.25544368E-18      0.52744119E-08      0.20358000E-19
   63.000000000000         0.11670216E-04      0.25967309E-18      0.42660468E-08      0.84588178E-20
   64.000000000000         0.11672061E-04      0.26975445E-18      0.36902742E-08      0.20162719E-19
   65.000000000000         0.11673888E-04      0.29962162E-18      0.36539916E-08      0.59734349E-19
   66.000000000000         0.11675768E-04      0.30147288E-18      0.37605089E-08      0.37025239E-20
   67.000000000000         0.11677614E-04      0.30488317E-18      0.36920018E-08      0.68205660E-20
   68.000000000000         0.11679487E-04      0.32554620E-18      0.37456278E-08      0.41326071E-19
   69.000000000000         0.11681726E-04      0.33085295E-18      0.44768043E-08      0.10613499E-19
   70.000000000000         0.11684607E-04      0.34927353E-18      0.57617195E-08      0.36841163E-19
   71.000000000000         0.11687942E-04      0.36126344E-18      0.66716001E-08      0.23979806E-19
   72.000000000000         0.11691198E-04      0.35761185E-18      0.65112047E-08     -0.73031672E-20
   73.000000000000         0.11694005E-04      0.35207649E-18      0.56140767E-08     -0.11070724E-19
   74.000000000000         0.11696352E-04      0.38446154E-18      0.46935418E-08      0.64770098E-19
   75.000000000000         0.11698310E-04      0.38201018E-18      0.39157481E-08     -0.49027176E-20
   76.000000000000         0.11699922E-04      0.38629722E-18      0.32241882E-08      0.85740704E-20
   77.000000000000         0.11701369E-04      0.41172236E-18      0.28945900E-08      0.50850281E-19
   78.000000000000         0.11702934E-04      0.40310503E-18      0.31300575E-08     -0.17234650E-19
   79.000000000000         0.11704694E-04      0.41145023E-18      0.35194202E-08      0.16690403E-19
   80.000000000000         0.11706462E-04      0.41219401E-18      0.35374084E-08      0.14875585E-20
   81.000000000000         0.11708158E-04      0.42604033E-18      0.33906232E-08      0.27692644E-19
   82.000000000000         0.11709943E-04      0.44953726E-18      0.35697179E-08      0.46993845E-19
   83.000000000000         0.11711863E-04      0.46635261E-18      0.38397453E-08      0.33630703E-19
   84.000000000000         0.11713625E-04      0.47550171E-18      0.35253573E-08      0.18298210E-19
   85.000000000000         0.11714943E-04      0.47416441E-18      0.26356129E-08     -0.26745974E-20
   86.000000000000         0.11715934E-04      0.47910418E-18      0.19827693E-08      0.98795299E-20
   87.000000000000         0.11716972E-04      0.50801300E-18      0.20749069E-08      0.57817647E-19
   88.000000000000         0.11718236E-04      0.49933091E-18      0.25286536E-08     -0.17364190E-19
   89.000000000000         0.11719589E-04      0.51612987E-18      0.27047895E-08      0.33597914E-19
   90.000000000000         0.11720802E-04      0.50869393E-18      0.24275158E-08     -0.14871873E-19
   91.000000000000         0.11721794E-04      0.48717268E-18      0.19824542E-08     -0.43042502E-19
   92.000000000000         0.11722624E-04      0.49256573E-18      0.16614307E-08      0.10786100E-19
   93.000000000000         0.11723396E-04      0.47632597E-18      0.15428104E-08     -0.32479520E-19
   94.000000000000         0.11724205E-04      0.48681805E-18      0.16179457E-08      0.20984163E-19
   95.000000000000         0.11725149E-04      0.51366881E-18      0.18893928E-08      0.53701525E-19
   96.000000000000         0.11726319E-04      0.49764193E-18      0.23391048E-08     -0.32053758E-19
   97.000000000000         0.11727697E-04      0.47685707E-18      0.27562537E-08     -0.41569736E-19
   98.000000000000         0.11729089E-04      0.47840240E-18      0.27836363E-08      0.30906715E-20
   99.000000000000         0.11730286E-04      0.49009573E-18      0.23938251E-08      0.23386657E-19
  100.000000000000         0.11731292E-04      0.49290038E-18      0.20116964E-08      0.56093011E-20
  101.000000000000         0.11732249E-04      0.48536855E-18      0.19153248E-08     -0.15063653E-19
  102.000000000000         0.11733196E-04      0.48730690E-18      0.18941894E-08      0.38766847E-20
  103.000000000000         0.11734126E-04      0.48660799E-18      0.18597467E-08     -0.13978163E-20
  104.000000000000         0.11735257E-04      0.50143534E-18      0.22623087E-08      0.29654704E-19
  105.000000000000         0.11736902E-04      0.50166290E-18      0.32891061E-08      0.45512517E-21
  106.000000000000         0.11739001E-04      0.49859971E-18      0.41975162E-08     -0.61263856E-20
  107.000000000000         0.11741064E-04      0.50031332E-18      0.41260552E-08      0.34272168E-20
  108.000000000000         0.11742686E-04      0.52033331E-18      0.32437858E-08      0.40039983E-19
  109.000000000000         0.11743938E-04      0.52632455E-18      0.25057045E-08      0.11982479E-19
  110.000000000000         0.11745156E-04      0.52340475E-18      0.24357664E-08     -0.58396049E-20
  111.000000000000         0.11746538E-04      0.53539033E-18      0.27634510E-08      0.23971175E-19
  112.000000000000         0.11748052E-04      0.54376275E-18      0.30287219E-08      0.16744841E-19
  113.000000000000         0.11749541E-04      0.55220041E-18      0.29766963E-08      0.16875305E-19
  114.000000000000         0.11750834E-04      0.53218854E-18      0.25873857E-08     -0.40023730E-19
  115.000000000000         0.11751858E-04      0.52604348E-18      0.20469487E-08     -0.12290131E-19
  116.000000000000         0.11752676E-04      0.55646621E-18      0.16363233E-08      0.60845476E-19
  117.000000000000         0.11753440E-04      0.55442530E-18      0.15274021E-08     -0.40818301E-20
  118.000000000000         0.11754265E-04      0.57797035E-18      0.16510616E-08      0.47090101E-19
  119.000000000000         0.11755147E-04      0.59581306E-18      0.17630853E-08      0.35685420E-19
  120.000000000000         0.11755978E-04      0.61141915E-18      0.16616768E-08      0.31212180E-19
  121.000000000000         0.11756713E-04      0.61061454E-18      0.14705562E-08     -0.16092188E-20
  122.000000000000         0.11757486E-04      0.60353970E-18      0.15460644E-08     -0.14149686E-19
  123.000000000000         0.11758462E-04      0.60181460E-18      0.19516117E-08     -0.34501868E-20
  124.000000000000         0.11759613E-04      0.61104149E-18      0.23014953E-08      0.18453766E-19
  125.000000000000         0.11760736E-04      0.62734235E-18      0.22477853E-08      0.32601720E-19
  126.000000000000         0.11761723E-04      0.63685878E-18      0.19730726E-08      0.19032858E-19
  127.000000000000         0.11762691E-04      0.62239632E-18      0.19358702E-08     -0.28924914E-19
  128.000000000000         0.11763792E-04      0.63963781E-18      0.22027279E-08      0.34482985E-19
  129.000000000000         0.11765008E-04      0.64035720E-18      0.24318467E-08      0.14387823E-20
  130.000000000000         0.11766209E-04      0.65995332E-18      0.24020609E-08      0.39192226E-19
  131.000000000000         0.11767312E-04      0.67134990E-18      0.22045037E-08      0.22793173E-19
  132.000000000000         0.11768313E-04      0.67951766E-18      0.20036224E-08      0.16335509E-19
  133.000000000000         0.11769246E-04      0.64581064E-18      0.18660001E-08     -0.67414043E-19
  134.000000000000         0.11770167E-04      0.67472719E-18      0.18404807E-08      0.57833112E-19
  135.000000000000         0.11771157E-04      0.67769971E-18      0.19805655E-08      0.59450358E-20
  136.000000000000         0.11772281E-04      0.68091758E-18      0.22479745E-08      0.64357461E-20
  137.000000000000         0.11773543E-04      0.71985252E-18      0.25245371E-08      0.77869873E-19
  138.000000000000         0.11774890E-04      0.71443813E-18      0.26939251E-08     -0.10828783E-19
  139.000000000000         0.11776220E-04      0.73578299E-18      0.26606583E-08      0.42689729E-19
  140.000000000000         0.11777415E-04      0.74202411E-18      0.23898285E-08      0.12482235E-19
  141.000000000000         0.11778414E-04      0.72904064E-18      0.19974587E-08     -0.25966937E-19
  142.000000000000         0.11779264E-04      0.73593871E-18      0.17008024E-08      0.13796146E-19
  143.000000000000         0.11780070E-04      0.76528751E-18      0.16115810E-08      0.58697588E-19
  144.000000000000         0.11780907E-04      0.77836243E-18      0.16734789E-08      0.26149841E-19
  145.000000000000         0.11781810E-04      0.79121685E-18      0.18061620E-08      0.25708848E-19
  146.000000000000         0.11782779E-04      0.80314896E-18      0.19376929E-08      0.23864211E-19
  147.000000000000         0.11783754E-04      0.82014702E-18      0.19494132E-08      0.33996118E-19
  148.000000000000         0.11784649E-04      0.82560925E-18      0.17908657E-08      0.10924472E-19
  149.000000000000         0.11785439E-04      0.84706955E-18      0.15794740E-08      0.42920594E-19
  150.000000000000         0.11786176E-04      0.83695557E-18      0.14735223E-08     -0.20227949E-19
  151.000000000000         0.11786939E-04      0.82256352E-18      0.15269187E-08     -0.28784117E-19
  152.000000000000         0.11787776E-04      0.81553143E-18      0.16746287E-08     -0.14064174E-19
  153.000000000000         0.11788680E-04      0.80389018E-18      0.18066540E-08     -0.23282498E-19
  154.000000000000         0.11789596E-04      0.80635370E-18      0.18317333E-08      0.49270434E-20
  155.000000000000         0.11790458E-04      0.81437568E-18      0.17250443E-08      0.16043963E-19
  156.000000000000         0.11791238E-04      0.80907942E-18      0.15602100E-08     -0.10592527E-19
  157.000000000000         0.11791946E-04      0.80963219E-18      0.14155016E-08      0.11055478E-20
  158.000000000000         0.11792593E-04      0.79207411E-18      0.12944485E-08     -0.35116178E-19
  159.000000000000         0.11793218E-04      0.81623054E-18      0.12495174E-08      0.48312875E-19
  160.000000000000         0.11793933E-04      0.83093869E-18      0.14311034E-08      0.29416288E-19
  161.000000000000         0.11794861E-04      0.84663761E-18      0.18548611E-08      0.31397846E-19
  162.000000000000         0.11795968E-04      0.83804638E-18      0.22150749E-08     -0.17182465E-19
  163.000000000000         0.11797087E-04      0.85963738E-18      0.22371628E-08      0.43181998E-19
  164.000000000000         0.11798149E-04      0.88957855E-18      0.21246112E-08      0.59882355E-19
  165.000000000000         0.11799278E-04      0.87485027E-18      0.22578654E-08     -0.29456570E-19
  166.000000000000         0.11800558E-04      0.86105283E-18      0.25600743E-08     -0.27594882E-19
  167.000000000000         0.11801838E-04      0.87792550E-18      0.25604776E-08      0.33745340E-19
  168.000000000000         0.11802897E-04      0.87641636E-18      0.21173279E-08     -0.30182681E-20
  169.000000000000         0.11803717E-04      0.87914599E-18      0.16401134E-08      0.54592453E-20
  170.000000000000         0.11804457E-04      0.89150560E-18      0.14792338E-08      0.24719230E-19
  171.000000000000         0.11805260E-04      0.88080825E-18      0.16053975E-08     -0.21394704E-19
  172.000000000000         0.11806189E-04      0.89293762E-18      0.18582547E-08      0.24258742E-19
  173.000000000000         0.11807236E-04      0.92706157E-18      0.20948547E-08      0.68247907E-19
  174.000000000000         0.11808295E-04      0.94190996E-18      0.21176600E-08      0.29696781E-19
  175.000000000000         0.11809200E-04      0.95111815E-18      0.18109766E-08      0.18416375E-19
  176.000000000000         0.11809899E-04      0.95365458E-18      0.13962509E-08      0.50728640E-20
  177.000000000000         0.11810497E-04      0.95232601E-18      0.11961311E-08     -0.26571443E-20
  178.000000000000         0.11811105E-04      0.95826815E-18      0.12169717E-08      0.11884269E-19
  179.000000000000         0.11811715E-04      0.98279418E-18      0.12195567E-08      0.49052071E-19
  180.000000000000         0.11812255E-04      0.97679390E-18      0.10803084E-08     -0.12000573E-19
  181.000000000000         0.11812729E-04      0.99422617E-18      0.94887687E-09      0.34864550E-19
  182.000000000000         0.11813246E-04      0.99767857E-18      0.10330038E-08      0.69047957E-20
  183.000000000000         0.11813918E-04      0.97216922E-18      0.13442280E-08     -0.51018689E-19
  184.000000000000         0.11814761E-04      0.95020997E-18      0.16856308E-08     -0.43918506E-19
  185.000000000000         0.11815664E-04      0.93901387E-18      0.18053800E-08     -0.22392207E-19
  186.000000000000         0.11816477E-04      0.94175536E-18      0.16264443E-08      0.54829931E-20
  187.000000000000         0.11817141E-04      0.95358686E-18      0.13286467E-08      0.23662987E-19
  188.000000000000         0.11817717E-04      0.96426435E-18      0.11522378E-08      0.21354980E-19
  189.000000000000         0.11818315E-04      0.96284436E-18      0.11957595E-08     -0.28399772E-20
  190.000000000000         0.11819002E-04      0.95023817E-18      0.13732010E-08     -0.25212376E-19
  191.000000000000         0.11819751E-04      0.95766229E-18      0.14976882E-08      0.14848248E-19
  192.000000000000         0.11820461E-04      0.97837037E-18      0.14205099E-08      0.41416144E-19
  193.000000000000         0.11821021E-04      0.97977784E-18      0.11201414E-08      0.28149515E-20
  194.000000000000         0.11821391E-04      0.98790471E-18      0.74051231E-09      0.16253727E-19
