 #KVL flux sum: time, flux integral, flux
 
    0.000000000000         0.00000000E+00      0.00000000E+00      0.00000000E+00      0.00000000E+00
    0.300000000000         0.26934161E-19      0.10169398E-19      0.17956108E-18      0.67795989E-19
    0.600000000000         0.11002967E-18      0.25144110E-19      0.55397005E-18      0.99831410E-19
    0.900000000000         0.21696753E-17      0.28771614E-19      0.13730971E-16      0.24183364E-19
    1.200000000000         0.19953007E-16      0.38742387E-19      0.11855554E-15      0.66471814E-19
    1.500000000000         0.66704602E-16      0.43985586E-19      0.31167730E-15      0.34954663E-19
    1.800000000000         0.30781994E-15      0.51200445E-19      0.16074356E-14      0.48099062E-19
    2.100000000000         0.97050327E-15      0.61767886E-19      0.44178889E-14      0.70449605E-19
    2.400000000000         0.33670618E-14      0.68381684E-19      0.15977057E-13      0.44091989E-19
    2.700000000000         0.11104332E-13      0.74443218E-19      0.51581801E-13      0.40410223E-19
    3.000000000000         0.33691746E-13      0.88803489E-19      0.15058276E-12      0.95735139E-19
    3.300000000000         0.10307191E-12      0.10544560E-18      0.46253441E-12      0.11094741E-18
    3.600000000000         0.31991376E-12      0.11649477E-18      0.14456124E-11      0.73661127E-19
    3.900000000000         0.99886271E-12      0.12076442E-18      0.45263263E-11      0.28464305E-19
    4.200000000000         0.29986893E-11      0.13382722E-18      0.13332178E-10      0.87085344E-19
    4.500000000000         0.83290817E-11      0.13847187E-18      0.35535949E-10      0.30964359E-19
    4.800000000000         0.21353590E-10      0.14698440E-18      0.86830055E-10      0.56750222E-19
    5.100000000000         0.51155334E-10      0.15297434E-18      0.19867830E-09      0.39932919E-19
    5.400000000000         0.11564424E-09      0.16495095E-18      0.42992602E-09      0.79844074E-19
    5.700000000000         0.24815238E-09      0.17082805E-18      0.88338761E-09      0.39180678E-19
    6.000000000000         0.50734499E-09      0.17599587E-18      0.17279507E-08      0.34452075E-19
    6.300000000000         0.99286918E-09      0.18984624E-18      0.32368280E-08      0.92335809E-19
    6.600000000000         0.18673554E-08      0.19759901E-18      0.58299081E-08      0.51685155E-19
    6.900000000000         0.33845607E-08      0.20486927E-18      0.10114702E-07      0.48468378E-19
    7.200000000000         0.59289708E-08      0.21769342E-18      0.16962734E-07      0.85494361E-19
    7.500000000000         0.10065483E-07      0.22498027E-18      0.27576746E-07      0.48578967E-19
    7.800000000000         0.16591138E-07      0.23415583E-18      0.43504368E-07      0.61170405E-19
    8.100000000000         0.26597302E-07      0.24328175E-18      0.66707758E-07      0.60839504E-19
    8.400000000000         0.41547347E-07      0.24591640E-18      0.99666970E-07      0.17564289E-19
    8.700000000000         0.63327041E-07      0.25426785E-18      0.14519796E-06      0.55676384E-19
    9.000000000000         0.94292284E-07      0.26499568E-18      0.20643495E-06      0.71518872E-19
    9.300000000000         0.13732109E-06      0.27700696E-18      0.28685869E-06      0.80075150E-19
    9.600000000000         0.19579901E-06      0.28028399E-18      0.38985283E-06      0.21846860E-19
    9.900000000000         0.27357595E-06      0.28759796E-18      0.51851294E-06      0.48759851E-19
   10.200000000000         0.37484196E-06      0.29707739E-18      0.67510669E-06      0.63196144E-19
   10.500000000000         0.50403031E-06      0.30489920E-18      0.86125572E-06      0.52145461E-19
   10.800000000000         0.66558831E-06      0.31396837E-18      0.10770533E-05      0.60461123E-19
   11.100000000000         0.86349478E-06      0.32922316E-18      0.13193765E-05      0.10169856E-18
   11.400000000000         0.11010426E-05      0.33845481E-18      0.15836520E-05      0.61544330E-19
   11.700000000000         0.13809635E-05      0.35223784E-18      0.18661395E-05      0.91886873E-19
   12.000000000000         0.17050713E-05      0.36619544E-18      0.21607185E-05      0.93050694E-19
   12.300000000000         0.20730875E-05      0.37796499E-18      0.24534415E-05      0.78463672E-19
   12.600000000000         0.24814994E-05      0.38444330E-18      0.27227457E-05      0.43188742E-19
   12.900000000000         0.29233916E-05      0.39101427E-18      0.29459484E-05      0.43806475E-19
   13.200000000000         0.33894730E-05      0.40334278E-18      0.31072090E-05      0.82190071E-19
   13.500000000000         0.38693833E-05      0.40820999E-18      0.31994021E-05      0.32448054E-19
   13.800000000000         0.43529681E-05      0.41593774E-18      0.32238985E-05      0.51518323E-19
   14.100000000000         0.48311814E-05      0.42352532E-18      0.31880888E-05      0.50583829E-19
   14.400000000000         0.52965205E-05      0.42908821E-18      0.31022607E-05      0.37085944E-19
   14.700000000000         0.57432465E-05      0.43620352E-18      0.29781732E-05      0.47435392E-19
   15.000000000000         0.61673342E-05      0.45402298E-18      0.28272513E-05      0.11879641E-18
   15.300000000000         0.65662591E-05      0.46129263E-18      0.26594994E-05      0.48464351E-19
   15.600000000000         0.69387443E-05      0.46804045E-18      0.24832347E-05      0.44985489E-19
   15.900000000000         0.72844781E-05      0.47825269E-18      0.23048924E-05      0.68081570E-19
   16.200000000000         0.76039033E-05      0.48546768E-18      0.21295009E-05      0.48099933E-19
   16.500000000000         0.78980113E-05      0.49220560E-18      0.19607198E-05      0.44919470E-19
   16.800000000000         0.81680869E-05      0.51179230E-18      0.18005045E-05      0.13057801E-18
   17.100000000000         0.84156645E-05      0.52299922E-18      0.16505170E-05      0.74712793E-19
   17.400000000000         0.86423725E-05      0.53439539E-18      0.15113871E-05      0.75974499E-19
   17.700000000000         0.88498642E-05      0.54899157E-18      0.13832779E-05      0.97307842E-19
   18.000000000000         0.90397434E-05      0.56006056E-18      0.12658613E-05      0.73793270E-19
   18.300000000000         0.92135601E-05      0.56531905E-18      0.11587781E-05      0.35056575E-19
   18.600000000000         0.93727927E-05      0.57986015E-18      0.10615504E-05      0.96940718E-19
   18.900000000000         0.95187862E-05      0.59075204E-18      0.97329004E-06      0.72612554E-19
   19.200000000000         0.96527663E-05      0.59282458E-18      0.89320077E-06      0.13816943E-19
   19.500000000000         0.97758518E-05      0.60657496E-18      0.82056974E-06      0.91669199E-19
   19.800000000000         0.98890521E-05      0.61035346E-18      0.75466853E-06      0.25190023E-19
   20.100000000000         0.99932690E-05      0.61652847E-18      0.69477948E-06      0.41166687E-19
   20.400000000000         0.10089303E-04      0.62461725E-18      0.64022612E-06      0.53925218E-19
   20.700000000000         0.10177875E-04      0.63073190E-18      0.59047791E-06      0.40764330E-19
   21.000000000000         0.10259630E-04      0.64108445E-18      0.54503410E-06      0.69017030E-19
   21.300000000000         0.10335151E-04      0.64669691E-18      0.50347693E-06      0.37416366E-19
   21.600000000000         0.10404967E-04      0.65459898E-18      0.46543789E-06      0.52680460E-19
   21.900000000000         0.10469564E-04      0.66642874E-18      0.43065052E-06      0.78865106E-19
   22.200000000000         0.10529398E-04      0.67960733E-18      0.39889051E-06      0.87857231E-19
   22.500000000000         0.10584882E-04      0.68527411E-18      0.36989308E-06      0.37778568E-19
   22.800000000000         0.10636406E-04      0.69334118E-18      0.34349645E-06      0.53780425E-19
   23.100000000000         0.10684331E-04      0.70097317E-18      0.31949795E-06      0.50879951E-19
   23.400000000000         0.10728992E-04      0.71065341E-18      0.29774042E-06      0.64534943E-19
   23.700000000000         0.10770690E-04      0.72392790E-18      0.27798521E-06      0.88496612E-19
   24.000000000000         0.10809698E-04      0.73119016E-18      0.26005591E-06      0.48415059E-19
   24.300000000000         0.10846264E-04      0.73532736E-18      0.24376750E-06      0.27581314E-19
   24.600000000000         0.10880600E-04      0.74828868E-18      0.22890910E-06      0.86408782E-19
   24.900000000000         0.10912895E-04      0.75273492E-18      0.21529817E-06      0.29641638E-19
   25.200000000000         0.10943314E-04      0.76745118E-18      0.20279452E-06      0.98108372E-19
   25.500000000000         0.10972007E-04      0.77420256E-18      0.19129111E-06      0.45009226E-19
   25.800000000000         0.10999109E-04      0.77670052E-18      0.18067812E-06      0.16653053E-19
   26.100000000000         0.11024745E-04      0.78861880E-18      0.17090251E-06      0.79455196E-19
   26.400000000000         0.11049038E-04      0.80751837E-18      0.16195859E-06      0.12599713E-18
   26.700000000000         0.11072104E-04      0.81093916E-18      0.15377312E-06      0.22805313E-19
   27.000000000000         0.11094057E-04      0.81646400E-18      0.14634828E-06      0.36832250E-19
   27.300000000000         0.11115001E-04      0.82789206E-18      0.13962940E-06      0.76187084E-19
   27.600000000000         0.11135033E-04      0.83184099E-18      0.13354828E-06      0.26326172E-19
   27.900000000000         0.11154237E-04      0.83947703E-18      0.12802624E-06      0.50906906E-19
   28.200000000000         0.11172681E-04      0.84363213E-18      0.12296133E-06      0.27700702E-19
   28.500000000000         0.11190417E-04      0.84248882E-18      0.11823557E-06     -0.76220517E-20
   28.800000000000         0.11207478E-04      0.85623830E-18      0.11374180E-06      0.91663169E-19
   29.100000000000         0.11223885E-04      0.87658583E-18      0.10937905E-06      0.13565023E-18
   29.400000000000         0.11239644E-04      0.89462127E-18      0.10506441E-06      0.12023625E-18
   29.700000000000         0.11254756E-04      0.89611758E-18      0.10074468E-06      0.99753661E-20
   30.000000000000         0.11269219E-04      0.90444759E-18      0.96421116E-07      0.55533458E-19
   30.300000000000         0.11283034E-04      0.91609657E-18      0.92097189E-07      0.77659829E-19
   30.600000000000         0.11296209E-04      0.91721911E-18      0.87833606E-07      0.74836088E-20
   30.900000000000         0.11308765E-04      0.92543710E-18      0.83705044E-07      0.54786601E-19
   31.200000000000         0.11320733E-04      0.93883260E-18      0.79786884E-07      0.89303310E-19
   31.500000000000         0.11332156E-04      0.94831402E-18      0.76153926E-07      0.63209466E-19
   31.800000000000         0.11343085E-04      0.95904441E-18      0.72860636E-07      0.71535934E-19
   32.100000000000         0.11353575E-04      0.97066354E-18      0.69934983E-07      0.77460889E-19
   32.400000000000         0.11363681E-04      0.98346233E-18      0.67369696E-07      0.85325285E-19
   32.700000000000         0.11373450E-04      0.99195964E-18      0.65126385E-07      0.56648720E-19
   33.000000000000         0.11382922E-04      0.99903139E-18      0.63152359E-07      0.47144989E-19
   33.300000000000         0.11392128E-04      0.10126652E-17      0.61368477E-07      0.90892379E-19
   33.600000000000         0.11401083E-04      0.10269943E-17      0.59699553E-07      0.95527278E-19
   33.900000000000         0.11409794E-04      0.10318520E-17      0.58076542E-07      0.32384370E-19
   34.200000000000         0.11418261E-04      0.10410552E-17      0.56444689E-07      0.61354716E-19
   34.500000000000         0.11426475E-04      0.10450855E-17      0.54763083E-07      0.26868687E-19
   34.800000000000         0.11434428E-04      0.10614403E-17      0.53019219E-07      0.10903182E-18
   35.100000000000         0.11442110E-04      0.10705553E-17      0.51212018E-07      0.60767104E-19
   35.400000000000         0.11449513E-04      0.10790326E-17      0.49351284E-07      0.56515069E-19
   35.700000000000         0.11456632E-04      0.10929222E-17      0.47460132E-07      0.92597595E-19
   36.000000000000         0.11463465E-04      0.10951058E-17      0.45554169E-07      0.14556887E-19
   36.300000000000         0.11470011E-04      0.11022085E-17      0.43643770E-07      0.47351332E-19
   36.600000000000         0.11476272E-04      0.11079643E-17      0.41737128E-07      0.38371903E-19
   36.900000000000         0.11482246E-04      0.11219238E-17      0.39827523E-07      0.93063591E-19
   37.200000000000         0.11487932E-04      0.11294759E-17      0.37907614E-07      0.50347419E-19
   37.500000000000         0.11493328E-04      0.11373205E-17      0.35973663E-07      0.52297070E-19
   37.800000000000         0.11498432E-04      0.11461336E-17      0.34026065E-07      0.58754147E-19
   38.100000000000         0.11503244E-04      0.11484129E-17      0.32080194E-07      0.15195544E-19
   38.400000000000         0.11507769E-04      0.11586191E-17      0.30162291E-07      0.68040967E-19
   38.700000000000         0.11512016E-04      0.11599130E-17      0.28317310E-07      0.86263560E-20
   39.000000000000         0.11516004E-04      0.11643330E-17      0.26588088E-07      0.29466594E-19
   39.300000000000         0.11519759E-04      0.11819413E-17      0.25030332E-07      0.11738826E-18
   39.600000000000         0.11523312E-04      0.11859600E-17      0.23686758E-07      0.26791922E-19
   39.900000000000         0.11526700E-04      0.11908501E-17      0.22588888E-07      0.32600482E-19
   40.200000000000         0.11529964E-04      0.12007987E-17      0.21760522E-07      0.66324127E-19
   40.500000000000         0.11533143E-04      0.12100039E-17      0.21192388E-07      0.61367899E-19
   40.800000000000         0.11536274E-04      0.12261745E-17      0.20872186E-07      0.10780361E-18
   41.100000000000         0.11539388E-04      0.12333556E-17      0.20761323E-07      0.47874429E-19
   41.400000000000         0.11542510E-04      0.12489429E-17      0.20811456E-07      0.10391528E-18
   41.700000000000         0.11545655E-04      0.12620487E-17      0.20968896E-07      0.87371562E-19
   42.000000000000         0.11548832E-04      0.12735939E-17      0.21179048E-07      0.76968510E-19
   42.300000000000         0.11552040E-04      0.12876063E-17      0.21387916E-07      0.93415606E-19
   42.600000000000         0.11555274E-04      0.12923356E-17      0.21557388E-07      0.31528653E-19
   42.900000000000         0.11558523E-04      0.13064047E-17      0.21661486E-07      0.93794246E-19
   43.200000000000         0.11561775E-04      0.13197351E-17      0.21682100E-07      0.88869109E-19
   43.500000000000         0.11565020E-04      0.13267375E-17      0.21627367E-07      0.46682586E-19
   43.800000000000         0.11568245E-04      0.13313072E-17      0.21501739E-07      0.30464908E-19
   44.100000000000         0.11571444E-04      0.13380681E-17      0.21325567E-07      0.45072840E-19
   44.400000000000         0.11574611E-04      0.13487918E-17      0.21114823E-07      0.71491009E-19
   44.700000000000         0.11577744E-04      0.13603542E-17      0.20884105E-07      0.77083054E-19
   45.000000000000         0.11580840E-04      0.13717257E-17      0.20641336E-07      0.75809711E-19
   45.300000000000         0.11583898E-04      0.13770133E-17      0.20387523E-07      0.35250504E-19
   45.600000000000         0.11586916E-04      0.13872476E-17      0.20117829E-07      0.68229181E-19
   45.900000000000         0.11589888E-04      0.13803597E-17      0.19818621E-07     -0.45919597E-19
   46.200000000000         0.11592811E-04      0.13918385E-17      0.19482937E-07      0.76525612E-19
   46.500000000000         0.11595675E-04      0.14007718E-17      0.19092683E-07      0.59555033E-19
   46.800000000000         0.11598472E-04      0.14063662E-17      0.18646077E-07      0.37295871E-19
   47.100000000000         0.11601192E-04      0.14135374E-17      0.18138913E-07      0.47807858E-19
   47.400000000000         0.11603829E-04      0.14140439E-17      0.17575699E-07      0.33767027E-20
   47.700000000000         0.11606374E-04      0.14179102E-17      0.16970860E-07      0.25775886E-19
   48.000000000000         0.11608825E-04      0.14188941E-17      0.16336205E-07      0.65590973E-20
   48.300000000000         0.11611179E-04      0.14268286E-17      0.15693600E-07      0.52896920E-19
   48.600000000000         0.11613437E-04      0.14384408E-17      0.15056548E-07      0.77414069E-19
   48.900000000000         0.11615603E-04      0.14524119E-17      0.14440737E-07      0.93140731E-19
   49.200000000000         0.11617681E-04      0.14608577E-17      0.13853216E-07      0.56305820E-19
   49.500000000000         0.11619676E-04      0.14702458E-17      0.13296817E-07      0.62586839E-19
   49.800000000000         0.11621591E-04      0.14749370E-17      0.12769565E-07      0.31275057E-19
   50.100000000000         0.11623431E-04      0.14874636E-17      0.12265388E-07      0.83510190E-19
   50.400000000000         0.11625198E-04      0.15001881E-17      0.11779386E-07      0.84830626E-19
   50.700000000000         0.11626894E-04      0.15112909E-17      0.11306748E-07      0.74018472E-19
   51.000000000000         0.11628521E-04      0.15226672E-17      0.10846299E-07      0.75842045E-19
   51.300000000000         0.11630081E-04      0.15280259E-17      0.10402421E-07      0.35724429E-19
   51.600000000000         0.11631579E-04      0.15372284E-17      0.99813431E-08      0.61349809E-19
   51.900000000000         0.11633017E-04      0.15471024E-17      0.95920843E-08      0.65826768E-19
   52.200000000000         0.11634404E-04      0.15514025E-17      0.92454927E-08      0.28667782E-19
   52.500000000000         0.11635747E-04      0.15603061E-17      0.89484724E-08      0.59356906E-19
   52.800000000000         0.11637052E-04      0.15705203E-17      0.87058660E-08      0.68094565E-19
   53.100000000000         0.11638330E-04      0.15750024E-17      0.85165938E-08      0.29880926E-19
   53.400000000000         0.11639586E-04      0.15930133E-17      0.83770855E-08      0.12007298E-18
   53.700000000000         0.11640828E-04      0.16017510E-17      0.82749761E-08      0.58250809E-19
   54.000000000000         0.11642058E-04      0.16098725E-17      0.82016007E-08      0.54143229E-19
   54.300000000000         0.11643279E-04      0.16148786E-17      0.81413904E-08      0.33374132E-19
   54.600000000000         0.11644492E-04      0.16167464E-17      0.80849282E-08      0.12451879E-19
   54.900000000000         0.11645695E-04      0.16182915E-17      0.80228182E-08      0.10300687E-19
   55.200000000000         0.11646888E-04      0.16258618E-17      0.79506435E-08      0.50469026E-19
   55.500000000000         0.11648068E-04      0.16395625E-17      0.78684233E-08      0.91337724E-19
   55.800000000000         0.11649235E-04      0.16490462E-17      0.77776712E-08      0.63224880E-19
   56.100000000000         0.11650388E-04      0.16612935E-17      0.76856750E-08      0.81648629E-19
   56.400000000000         0.11651527E-04      0.16669184E-17      0.75961019E-08      0.37499115E-19
   56.700000000000         0.11652655E-04      0.16809693E-17      0.75164880E-08      0.93673239E-19
   57.000000000000         0.11653772E-04      0.16938154E-17      0.74494445E-08      0.85640413E-19
   57.300000000000         0.11654881E-04      0.17045305E-17      0.73961057E-08      0.71433610E-19
   57.600000000000         0.11655985E-04      0.17201486E-17      0.73555895E-08      0.10412076E-18
   57.900000000000         0.11657083E-04      0.17403898E-17      0.73225556E-08      0.13494174E-18
   58.200000000000         0.11658177E-04      0.17482510E-17      0.72932459E-08      0.52407785E-19
