 #KVL flux sum: time, flux integral, flux
 
    0.000000000000         0.75533270E-13     -0.33111581E-19      0.15106654E-12     -0.66223162E-19
    1.000000000000         0.15107734E-12     -0.36764473E-19      0.15108813E-12     -0.73057835E-20
    2.000000000000         0.22854891E-12     -0.25248769E-19      0.15494314E-12      0.23031408E-19
    3.000000000000         0.38285931E-12     -0.22610069E-19      0.30862080E-12      0.52773999E-20
    4.000000000000         0.45140640E-11     -0.33670201E-19      0.82624095E-11     -0.22120264E-19
    5.000000000000         0.81234725E-10     -0.40543479E-19      0.15344132E-09     -0.13746557E-19
    6.000000000000         0.80797540E-09     -0.31154854E-19      0.14534814E-08      0.18777250E-19
    7.000000000000         0.53405773E-08     -0.39723918E-19      0.90652038E-08     -0.17138127E-19
    8.000000000000         0.25886217E-07     -0.46247986E-19      0.41091279E-07     -0.13048136E-19
    9.000000000000         0.97215985E-07     -0.14532624E-19      0.14265954E-06      0.63430723E-19
   10.000000000000         0.29248500E-06      0.61965955E-20      0.39053803E-06      0.41458439E-19
   11.000000000000         0.72112816E-06      0.22744772E-20      0.85728633E-06     -0.78442366E-20
   12.000000000000         0.14843338E-05      0.14719769E-20      0.15264113E-05     -0.16050007E-20
   13.000000000000         0.25701862E-05      0.21587898E-19      0.21717049E-05      0.40231843E-19
   14.000000000000         0.38111659E-05      0.52330980E-20      0.24819593E-05     -0.32709601E-19
   15.000000000000         0.50097668E-05      0.17404789E-19      0.23972018E-05      0.24343382E-19
   16.000000000000         0.60296565E-05      0.33884109E-19      0.20397793E-05      0.32958640E-19
   17.000000000000         0.68169583E-05      0.26343890E-19      0.15746036E-05     -0.15080438E-19
   18.000000000000         0.73875026E-05      0.13790105E-20      0.11410886E-05     -0.49929759E-19
   19.000000000000         0.77985537E-05      0.73305231E-20      0.82210226E-06      0.11903025E-19
   20.000000000000         0.81168021E-05      0.12614398E-19      0.63649666E-06      0.10567750E-19
   21.000000000000         0.83933100E-05      0.20837269E-19      0.55301592E-06      0.16445742E-19
   22.000000000000         0.86521656E-05      0.84110455E-20      0.51771112E-06     -0.24852447E-19
   23.000000000000         0.88920744E-05      0.14456554E-19      0.47981759E-06      0.12091018E-19
   24.000000000000         0.90977160E-05      0.15625272E-19      0.41128326E-06      0.23374354E-20
   25.000000000000         0.92562521E-05      0.83107085E-20      0.31707214E-06     -0.14629127E-19
   26.000000000000         0.93712562E-05      0.20304670E-19      0.23000822E-06      0.23987923E-19
   27.000000000000         0.94658892E-05      0.22369052E-19      0.18926602E-06      0.41287636E-20
   28.000000000000         0.95718805E-05      0.66997862E-20      0.21198258E-06     -0.31338531E-19
   29.000000000000         0.97107659E-05      0.21732985E-19      0.27777076E-06      0.30066397E-19
   30.000000000000         0.98814960E-05      0.24990420E-19      0.34146035E-06      0.65148717E-20
   31.000000000000         0.10063220E-04      0.14296813E-19      0.36344765E-06     -0.21387215E-19
   32.000000000000         0.10230192E-04      0.21430882E-19      0.33394461E-06      0.14268138E-19
   33.000000000000         0.10366973E-04      0.19341847E-19      0.27356229E-06     -0.41780706E-20
   34.000000000000         0.10473306E-04      0.24508036E-19      0.21266626E-06      0.10332379E-19
   35.000000000000         0.10558564E-04      0.28395291E-19      0.17051439E-06      0.77745092E-20
   36.000000000000         0.10632685E-04      0.37000594E-19      0.14824233E-06      0.17210606E-19
   37.000000000000         0.10700473E-04      0.25626681E-19      0.13557664E-06     -0.22747825E-19
   38.000000000000         0.10761748E-04      0.48739280E-19      0.12254995E-06      0.46225198E-19
   39.000000000000         0.10814466E-04      0.39507112E-19      0.10543545E-06     -0.18464336E-19
   40.000000000000         0.10858390E-04      0.16866450E-19      0.87848308E-07     -0.45281324E-19
   41.000000000000         0.10897224E-04     -0.92424108E-21      0.77667751E-07     -0.35581383E-19
   42.000000000000         0.10937013E-04     -0.23475139E-19      0.79578713E-07     -0.45101797E-19
   43.000000000000         0.10981539E-04     -0.16761365E-20      0.89051205E-07      0.43598006E-19
   44.000000000000         0.11028660E-04     -0.16813984E-19      0.94242118E-07     -0.30275694E-19
   45.000000000000         0.11072216E-04     -0.54303437E-20      0.87112689E-07      0.22767280E-19
   46.000000000000         0.11107769E-04      0.20726581E-19      0.71106158E-07      0.52313849E-19
   47.000000000000         0.11135669E-04      0.29654568E-19      0.55800408E-07      0.17855974E-19
   48.000000000000         0.11159402E-04      0.21599254E-19      0.47465636E-07     -0.16110629E-19
   49.000000000000         0.11182424E-04      0.11153863E-19      0.46043049E-07     -0.20890780E-19
   50.000000000000         0.11206006E-04     -0.67070243E-20      0.47163530E-07     -0.35721775E-19
   51.000000000000         0.11229163E-04      0.16771270E-20      0.46313889E-07      0.16768303E-19
   52.000000000000         0.11250315E-04     -0.16523753E-19      0.42304195E-07     -0.36401759E-19
   53.000000000000         0.11268696E-04     -0.28792852E-19      0.36763657E-07     -0.24538199E-19
   54.000000000000         0.11284885E-04      0.23031124E-20      0.32376893E-07      0.62191929E-19
   55.000000000000         0.11300465E-04     -0.68629871E-20      0.31160656E-07     -0.18332199E-19
   56.000000000000         0.11316735E-04      0.80470221E-20      0.32540515E-07      0.29820018E-19
   57.000000000000         0.11333454E-04     -0.31542117E-20      0.33436743E-07     -0.22402468E-19
   58.000000000000         0.11348904E-04     -0.26551454E-19      0.30900993E-07     -0.46794484E-19
   59.000000000000         0.11361369E-04     -0.42435692E-19      0.24928543E-07     -0.31768477E-19
   60.000000000000         0.11370537E-04     -0.41341784E-19      0.18336268E-07      0.21878155E-20
   61.000000000000         0.11377449E-04     -0.26367425E-19      0.13824409E-07      0.29948718E-19
   62.000000000000         0.11383557E-04     -0.42916653E-19      0.12216912E-07     -0.33098457E-19
   63.000000000000         0.11389938E-04     -0.41919494E-19      0.12762099E-07      0.19943179E-20
   64.000000000000         0.11396819E-04     -0.54432577E-19      0.13762013E-07     -0.25026165E-19
   65.000000000000         0.11403491E-04     -0.43682452E-19      0.13343035E-07      0.21500250E-19
   66.000000000000         0.11408875E-04     -0.43863999E-19      0.10767234E-07     -0.36309386E-21
   67.000000000000         0.11412636E-04     -0.23755243E-19      0.75221019E-08      0.40217512E-19
   68.000000000000         0.11415820E-04     -0.23370221E-19      0.63684869E-08      0.77004361E-21
   69.000000000000         0.11420103E-04     -0.25797478E-20      0.85660031E-08      0.41580947E-19
   70.000000000000         0.11426154E-04     -0.24440161E-20      0.12102416E-07      0.27146334E-21
   71.000000000000         0.11432957E-04      0.29298164E-20      0.13604807E-07      0.10747665E-19
   72.000000000000         0.11438808E-04     -0.12355189E-19      0.11703027E-07     -0.30570011E-19
   73.000000000000         0.11442833E-04      0.12081490E-19      0.80492614E-08      0.48873358E-19
   74.000000000000         0.11445649E-04      0.20237057E-19      0.56328320E-08      0.16311135E-19
   75.000000000000         0.11448454E-04      0.30621358E-19      0.56094174E-08      0.20768602E-19
   76.000000000000         0.11451774E-04      0.44121907E-19      0.66397583E-08      0.27001098E-19
   77.000000000000         0.11455430E-04      0.49754741E-19      0.73124310E-08      0.11265667E-19
   78.000000000000         0.11459220E-04      0.45808133E-19      0.75793232E-08     -0.78932164E-20
   79.000000000000         0.11463227E-04      0.34857129E-19      0.80148315E-08     -0.21902007E-19
   80.000000000000         0.11467626E-04      0.32218739E-19      0.87990258E-08     -0.52767795E-20
   81.000000000000         0.11472561E-04      0.44032765E-19      0.98682936E-08      0.23628052E-19
   82.000000000000         0.11478070E-04      0.27660348E-19      0.11019530E-07     -0.32744834E-19
   83.000000000000         0.11483956E-04      0.27104062E-19      0.11771255E-07     -0.11125721E-20
   84.000000000000         0.11489831E-04      0.30826976E-19      0.11749298E-07      0.74458275E-20
   85.000000000000         0.11495323E-04      0.56579423E-19      0.10983958E-07      0.51504893E-19
   86.000000000000         0.11500279E-04      0.62862682E-19      0.99134994E-08      0.12566519E-19
   87.000000000000         0.11504818E-04      0.78740146E-19      0.90773342E-08      0.31754928E-19
   88.000000000000         0.11509132E-04      0.68675602E-19      0.86287051E-08     -0.20129089E-19
   89.000000000000         0.11513414E-04      0.70705765E-19      0.85637954E-08      0.40603267E-20
   90.000000000000         0.11517886E-04      0.97025016E-19      0.89426969E-08      0.52638503E-19
   91.000000000000         0.11522705E-04      0.10048353E-18      0.96394252E-08      0.69170340E-20
   92.000000000000         0.11527734E-04      0.94686500E-19      0.10056842E-07     -0.11594068E-19
   93.000000000000         0.11532480E-04      0.94967493E-19      0.94923893E-08      0.56198585E-21
   94.000000000000         0.11536433E-04      0.70318596E-19      0.79069328E-08     -0.49297793E-19
   95.000000000000         0.11539474E-04      0.65598501E-19      0.60817840E-08     -0.94401899E-20
   96.000000000000         0.11542055E-04      0.63403571E-19      0.51609852E-08     -0.43898610E-20
   97.000000000000         0.11545110E-04      0.79689970E-19      0.61093992E-08      0.32572798E-19
   98.000000000000         0.11549704E-04      0.73725052E-19      0.91892386E-08     -0.11929835E-19
   99.000000000000         0.11556562E-04      0.59932503E-19      0.13715793E-07     -0.27585098E-19
  100.000000000000         0.11565705E-04      0.47599050E-19      0.18286554E-07     -0.24666905E-19
  101.000000000000         0.11576423E-04      0.73544178E-19      0.21435730E-07      0.51890256E-19
  102.000000000000         0.11587587E-04      0.83546463E-19      0.22327665E-07      0.20004570E-19
  103.000000000000         0.11598134E-04      0.75671398E-19      0.21093080E-07     -0.15750131E-19
  104.000000000000         0.11607513E-04      0.97420616E-19      0.18759343E-07      0.43498436E-19
  105.000000000000         0.11615825E-04      0.94302042E-19      0.16623803E-07     -0.62371480E-20
  106.000000000000         0.11623448E-04      0.82632345E-19      0.15246415E-07     -0.23339394E-19
  107.000000000000         0.11630491E-04      0.10158048E-18      0.14084650E-07      0.37896266E-19
  108.000000000000         0.11636659E-04      0.10263662E-18      0.12336135E-07      0.21122757E-20
  109.000000000000         0.11641644E-04      0.10596116E-18      0.99705777E-08      0.66490937E-20
  110.000000000000         0.11645584E-04      0.94649385E-19      0.78797776E-08     -0.22623554E-19
  111.000000000000         0.11649055E-04      0.11415565E-18      0.69414628E-08      0.39012537E-19
  112.000000000000         0.11652558E-04      0.13319160E-18      0.70071107E-08      0.38071900E-19
  113.000000000000         0.11656146E-04      0.13818073E-18      0.71752835E-08      0.99782485E-20
  114.000000000000         0.11659621E-04      0.14141921E-18      0.69498764E-08      0.64769687E-20
  115.000000000000         0.11662982E-04      0.15579308E-18      0.67216118E-08      0.28747744E-19
  116.000000000000         0.11666542E-04      0.17492439E-18      0.71212500E-08      0.38262618E-19
  117.000000000000         0.11670725E-04      0.18396456E-18      0.83658626E-08      0.18080324E-19
  118.000000000000         0.11675890E-04      0.16937900E-18      0.10328827E-07     -0.29171119E-19
  119.000000000000         0.11682270E-04      0.16198772E-18      0.12760007E-07     -0.14782559E-19
  120.000000000000         0.11689905E-04      0.16297982E-18      0.15270501E-07      0.19842065E-20
  121.000000000000         0.11698602E-04      0.15443009E-18      0.17393913E-07     -0.17099458E-19
  122.000000000000         0.11707943E-04      0.11295175E-18      0.18682459E-07     -0.82956686E-19
  123.000000000000         0.11717366E-04      0.12550990E-18      0.18846356E-07      0.25116298E-19
  124.000000000000         0.11726310E-04      0.12493137E-18      0.17887680E-07     -0.11570480E-20
  125.000000000000         0.11734315E-04      0.12727506E-18      0.16009399E-07      0.46873830E-20
  126.000000000000         0.11741079E-04      0.12310377E-18      0.13529498E-07     -0.83425843E-20
  127.000000000000         0.11746541E-04      0.11198757E-18      0.10922518E-07     -0.22232414E-19
  128.000000000000         0.11750925E-04      0.83023759E-19      0.87681033E-08     -0.57927614E-19
  129.000000000000         0.11754554E-04      0.83008304E-19      0.72592327E-08     -0.30909216E-22
  130.000000000000         0.11757588E-04      0.10816974E-18      0.60674167E-08      0.50322864E-19
  131.000000000000         0.11760073E-04      0.95733410E-19      0.49691276E-08     -0.24872651E-19
  132.000000000000         0.11762028E-04      0.74799539E-19      0.39116010E-08     -0.41867743E-19
  133.000000000000         0.11763486E-04      0.82502708E-19      0.29145764E-08      0.15406338E-19
  134.000000000000         0.11764534E-04      0.10491479E-18      0.20966273E-08      0.44824170E-19
  135.000000000000         0.11765408E-04      0.80875533E-19      0.17471237E-08     -0.48078520E-19
  136.000000000000         0.11766530E-04      0.71371761E-19      0.22444268E-08     -0.19007544E-19
  137.000000000000         0.11768264E-04      0.58985373E-19      0.34680663E-08     -0.24772776E-19
  138.000000000000         0.11770680E-04      0.56129906E-19      0.48325640E-08     -0.57109338E-20
  139.000000000000         0.11773559E-04      0.48349706E-19      0.57573762E-08     -0.15560399E-19
  140.000000000000         0.11776615E-04      0.21195792E-19      0.61122055E-08     -0.54307829E-19
  141.000000000000         0.11779774E-04      0.22112710E-19      0.63187763E-08      0.18338378E-20
  142.000000000000         0.11783112E-04      0.18066634E-19      0.66762481E-08     -0.80921535E-20
  143.000000000000         0.11786587E-04      0.31465848E-19      0.69483515E-08      0.26798429E-19
  144.000000000000         0.11790042E-04      0.48798803E-19      0.69114938E-08      0.34665909E-19
  145.000000000000         0.11793395E-04      0.85636236E-19      0.67051690E-08      0.73674867E-19
  146.000000000000         0.11796613E-04      0.79089465E-19      0.64366835E-08     -0.13093542E-19
  147.000000000000         0.11799605E-04      0.70559896E-19      0.59840940E-08     -0.17059139E-19
  148.000000000000         0.11802207E-04      0.91815271E-19      0.52039958E-08      0.42510751E-19
  149.000000000000         0.11804233E-04      0.11008668E-18      0.40511713E-08      0.36542826E-19
  150.000000000000         0.11805680E-04      0.13187057E-18      0.28935793E-08      0.43567762E-19
  151.000000000000         0.11806811E-04      0.11130113E-18      0.22625551E-08     -0.41138865E-19
  152.000000000000         0.11807972E-04      0.10453404E-18      0.23212631E-08     -0.13534182E-19
  153.000000000000         0.11809398E-04      0.10011656E-18      0.28524754E-08     -0.88349707E-20
  154.000000000000         0.11810974E-04      0.91547804E-19      0.31526423E-08     -0.17137505E-19
  155.000000000000         0.11812258E-04      0.11631878E-18      0.25685329E-08      0.49541962E-19
  156.000000000000         0.11812868E-04      0.12307932E-18      0.12191280E-08      0.13521069E-19
  157.000000000000         0.11812837E-04      0.10762473E-18     -0.63002146E-10     -0.30909183E-19
  158.000000000000         0.11812675E-04      0.86000252E-19     -0.32230044E-09     -0.43248951E-19
  159.000000000000         0.11813002E-04      0.88175410E-19      0.65262166E-09      0.43503166E-20
  160.000000000000         0.11814089E-04      0.93291888E-19      0.21754488E-08      0.10232955E-19
  161.000000000000         0.11815575E-04      0.10294662E-18      0.29716695E-08      0.19309456E-19
  162.000000000000         0.11816632E-04      0.83008678E-19      0.21129226E-08     -0.39875875E-19
  163.000000000000         0.11816784E-04      0.67078183E-19      0.30405608E-09     -0.31860990E-19
  164.000000000000         0.11816399E-04      0.51902282E-19     -0.76995879E-09     -0.30351803E-19
  165.000000000000         0.11816265E-04      0.67270742E-19     -0.26711838E-09      0.30736920E-19
  166.000000000000         0.11816878E-04      0.87107464E-19      0.12264676E-08      0.39673444E-19
  167.000000000000         0.11818146E-04      0.81137633E-19      0.25347380E-08     -0.11939663E-19
  168.000000000000         0.11819534E-04      0.89104292E-19      0.27754440E-08      0.15933319E-19
  169.000000000000         0.11820472E-04      0.94772449E-19      0.18760099E-08      0.11336313E-19
  170.000000000000         0.11820839E-04      0.78224916E-19      0.73495342E-09     -0.33095065E-19
  171.000000000000         0.11821153E-04      0.49029891E-19      0.62879498E-09     -0.58390051E-19
  172.000000000000         0.11822253E-04      0.30203997E-19      0.21994040E-08     -0.37651787E-19
  173.000000000000         0.11824650E-04      0.19141736E-19      0.47947256E-08     -0.22124523E-19
  174.000000000000         0.11828012E-04      0.15991255E-19      0.67237397E-08     -0.63009620E-20
  175.000000000000         0.11831247E-04      0.14368207E-19      0.64694879E-08     -0.32460957E-20
  176.000000000000         0.11833364E-04      0.24585766E-20      0.42331308E-08     -0.23819261E-19
  177.000000000000         0.11834331E-04      0.72476544E-20      0.19344503E-08      0.95781555E-20
  178.000000000000         0.11834983E-04      0.96110864E-20      0.13037659E-08      0.47268640E-20
  179.000000000000         0.11836272E-04      0.76639443E-20      0.25794627E-08     -0.38942841E-20
  180.000000000000         0.11838687E-04      0.12129646E-19      0.48285692E-08      0.89314041E-20
  181.000000000000         0.11842102E-04      0.82919437E-20      0.68299283E-08     -0.76754053E-20
  182.000000000000         0.11845987E-04      0.24038147E-19      0.77700026E-08      0.31492406E-19
  183.000000000000         0.11849667E-04      0.21563395E-19      0.73604324E-08     -0.49495029E-20
  184.000000000000         0.11852633E-04      0.14140241E-19      0.59327300E-08     -0.14846308E-19
  185.000000000000         0.11854826E-04     -0.76116295E-21      0.43860936E-08     -0.29802808E-19
  186.000000000000         0.11856611E-04     -0.28498461E-19      0.35686260E-08     -0.55474595E-19
  187.000000000000         0.11858411E-04     -0.40053942E-19      0.36007245E-08     -0.23110964E-19
  188.000000000000         0.11860325E-04     -0.83584046E-19      0.38274021E-08     -0.87060207E-19
  189.000000000000         0.11862117E-04     -0.10981644E-18      0.35840693E-08     -0.52464798E-19
  190.000000000000         0.11863523E-04     -0.81884482E-19      0.28128809E-08      0.55863925E-19
  191.000000000000         0.11864489E-04     -0.10591001E-18      0.19312403E-08     -0.48051059E-19
  192.000000000000         0.11865322E-04     -0.10869378E-18      0.16654474E-08     -0.55675464E-20
  193.000000000000         0.11866720E-04     -0.12663882E-18      0.27962220E-08     -0.35890077E-19
  194.000000000000         0.11869390E-04     -0.92980850E-19      0.53403944E-08      0.67315947E-19
