 
 # Omega; pulse ft; proj flux t=    2000.05000000000     
    0.000000000000         0.15753149E-11      0.00000000E+00      0.00000000E+00      0.00000000E+00      0.00000000E+00      0.00000000E+00      0.00000000E+00
    0.001570600002         0.18069754E-11      0.24762849E-01     -0.12072045E-09      0.17657529E-11     -0.86081566E-20      0.27732915E-14     -0.13519971E-22
    0.003141200004         0.25019713E-11      0.44964514E-01     -0.10982366E-09      0.22197258E-11     -0.54215731E-20      0.62595928E-14     -0.22035094E-22
    0.004711800005         0.36603453E-11      0.39232733E-01      0.40747809E-10      0.18889760E-11      0.19619238E-20      0.92264185E-14     -0.18953696E-22
    0.006282400007         0.52821684E-11      0.30178108E-01     -0.69614394E-10      0.15726111E-11     -0.36276750E-20      0.11696362E-13     -0.24651322E-22
    0.007853000009         0.73675403E-11      0.21128570E-01     -0.33454379E-10      0.12285694E-11     -0.19452820E-20      0.13625953E-13     -0.27706582E-22
    0.009423600011         0.99165891E-11      0.16193703E-01     -0.10623279E-10      0.10561712E-11     -0.69286200E-21      0.15284775E-13     -0.28794791E-22
    0.010994200013         0.12929471E-10      0.11944607E-01     -0.12517818E-10      0.87062609E-12     -0.91240661E-21      0.16652181E-13     -0.30227817E-22
    0.012564800014         0.16406372E-10      0.92864384E-02     -0.18841831E-10      0.75153434E-12     -0.15248347E-20      0.17832540E-13     -0.32622723E-22
    0.014135400016         0.20347504E-10      0.71793207E-02     -0.17816410E-10      0.64051466E-12     -0.15895197E-20      0.18838533E-13     -0.35119222E-22
    0.015706000018         0.24753111E-10      0.57846596E-02     -0.20691071E-10      0.56504714E-12     -0.20211095E-20      0.19725996E-13     -0.38293577E-22
    0.017276600020         0.29623462E-10      0.46689411E-02     -0.22862718E-10      0.49617925E-12     -0.24296744E-20      0.20505295E-13     -0.42109623E-22
    0.018847200022         0.34958856E-10      0.38983586E-02     -0.12171809E-10      0.44816180E-12     -0.13992915E-20      0.21209178E-13     -0.44307351E-22
    0.020417800023         0.40759620E-10      0.32608110E-02     -0.17987995E-10      0.40344979E-12     -0.22255974E-20      0.21842836E-13     -0.47802874E-22
    0.021988400025         0.47026112E-10      0.27927919E-02     -0.99857197E-11      0.37019172E-12     -0.13236327E-20      0.22424259E-13     -0.49881771E-22
    0.023559000027         0.53758715E-10      0.23940588E-02     -0.73097173E-11      0.33858640E-12     -0.10337970E-20      0.22956043E-13     -0.51505453E-22
    0.025129600029         0.60957842E-10      0.20873255E-02     -0.92571448E-11      0.31381728E-12     -0.13917580E-20      0.23448924E-13     -0.53691348E-22
    0.026700200031         0.68623934E-10      0.18199708E-02     -0.80719895E-11      0.28991334E-12     -0.12858324E-20      0.23904262E-13     -0.55710877E-22
    0.028270800032         0.76757463E-10      0.15996239E-02     -0.11896870E-10      0.26918017E-12     -0.20019716E-20      0.24327037E-13     -0.58855173E-22
    0.029841400034         0.85358926E-10      0.14042366E-02     -0.11327994E-10      0.24895033E-12     -0.20082854E-20      0.24718038E-13     -0.62009386E-22
    0.031412000036         0.94428851E-10      0.12373830E-02     -0.97683707E-11      0.23054512E-12     -0.18200106E-20      0.25080132E-13     -0.64867895E-22
    0.032982600038         0.10396779E-09      0.10874313E-02     -0.65320606E-11      0.21245084E-12     -0.12761650E-20      0.25413807E-13     -0.66872240E-22
    0.034553200039         0.11397634E-09      0.96182362E-03     -0.90011833E-11      0.19663668E-12     -0.18402156E-20      0.25722645E-13     -0.69762482E-22
    0.036123800041         0.12445510E-09      0.84782067E-03     -0.70164147E-11      0.18103641E-12     -0.14982255E-20      0.26006981E-13     -0.72115595E-22
    0.037694400043         0.13540471E-09      0.76639335E-03     -0.71612448E-11      0.17062841E-12     -0.15943664E-20      0.26274970E-13     -0.74619707E-22
    0.039265000045         0.14682586E-09      0.69190873E-03     -0.68893541E-11      0.16035719E-12     -0.15966809E-20      0.26526827E-13     -0.77127454E-22
    0.040835600047         0.15871923E-09      0.64811568E-03     -0.65051432E-11      0.15612980E-12     -0.15670763E-20      0.26772044E-13     -0.79588704E-22
    0.042406200048         0.17108555E-09      0.60776456E-03     -0.63547858E-11      0.15197145E-12     -0.15890134E-20      0.27010731E-13     -0.82084409E-22
    0.043976800050         0.18392558E-09      0.56103563E-03     -0.70010722E-11      0.14542921E-12     -0.18147874E-20      0.27239142E-13     -0.84934714E-22
    0.045547400052         0.19724011E-09      0.51773734E-03     -0.69004142E-11      0.13895808E-12     -0.18520363E-20      0.27457389E-13     -0.87843522E-22
    0.047118000054         0.21102995E-09      0.47648651E-03     -0.44520954E-11      0.13226670E-12     -0.12358461E-20      0.27665127E-13     -0.89784542E-22
    0.048688600056         0.22529594E-09      0.43806683E-03     -0.62068255E-11      0.12563456E-12     -0.17800749E-20      0.27862449E-13     -0.92580327E-22
    0.050259200057         0.24003895E-09      0.39610401E-03     -0.56459523E-11      0.11725141E-12     -0.16712677E-20      0.28046604E-13     -0.95205220E-22
    0.051829800059         0.25525989E-09      0.35700387E-03     -0.50837778E-11      0.10897293E-12     -0.15517876E-20      0.28217757E-13     -0.97642458E-22
    0.053400400061         0.27095967E-09      0.36937235E-03     -0.51346388E-11      0.11616284E-12     -0.16147776E-20      0.28400202E-13     -0.10017863E-21
    0.054971000063         0.28713927E-09      0.38080854E-03     -0.50472285E-11      0.12328445E-12     -0.16340096E-20      0.28593833E-13     -0.10274500E-21
    0.056541600065         0.30379966E-09      0.34232889E-03     -0.38221825E-11      0.11400015E-12     -0.12728385E-20      0.28772882E-13     -0.10474412E-21
    0.058112200066         0.32094187E-09      0.30654936E-03     -0.44031327E-11      0.10493060E-12     -0.15071744E-20      0.28937686E-13     -0.10711129E-21
    0.059682800068         0.33856693E-09      0.39574020E-03     -0.45978522E-11      0.13913878E-12     -0.16165645E-20      0.29156217E-13     -0.10965027E-21
    0.061253400070         0.35667593E-09      0.47923159E-03     -0.24651129E-11      0.17295444E-12     -0.88965801E-21      0.29427859E-13     -0.11104756E-21
    0.062824000072         0.37526995E-09      0.43012145E-03     -0.43203333E-11      0.15923993E-12     -0.15994775E-20      0.29677961E-13     -0.11355970E-21
    0.064394600074         0.39435014E-09      0.38393038E-03     -0.39096984E-11      0.14572286E-12     -0.14839473E-20      0.29906834E-13     -0.11589039E-21
    0.065965200075         0.41391766E-09      0.35508980E-03     -0.34358369E-11      0.13809563E-12     -0.13362087E-20      0.30123727E-13     -0.11798904E-21
    0.067535800077         0.43397368E-09      0.32765227E-03     -0.37383862E-11      0.13049239E-12     -0.14888680E-20      0.30328678E-13     -0.12032746E-21
    0.069106400079         0.45451945E-09      0.29843183E-03     -0.38158172E-11      0.12165277E-12     -0.15554800E-20      0.30519746E-13     -0.12277049E-21
    0.070677000081         0.47555619E-09      0.27068330E-03     -0.35238062E-11      0.11288282E-12     -0.14695299E-20      0.30697040E-13     -0.12507854E-21
    0.072247600083         0.49708519E-09      0.25899042E-03     -0.37135036E-11      0.11044188E-12     -0.15835578E-20      0.30870500E-13     -0.12756567E-21
    0.073818200084         0.51910775E-09      0.24778692E-03     -0.37683444E-11      0.10799785E-12     -0.16424317E-20      0.31040121E-13     -0.13014528E-21
    0.075388800086         0.54162521E-09      0.23863677E-03     -0.27978466E-11      0.10626055E-12     -0.12458295E-20      0.31207014E-13     -0.13210198E-21
    0.076959400088         0.56463893E-09      0.22971099E-03     -0.35223194E-11      0.10445605E-12     -0.16016977E-20      0.31371073E-13     -0.13461760E-21
    0.078530000090         0.58815031E-09      0.22211884E-03     -0.30849255E-11      0.10310526E-12     -0.14319903E-20      0.31533010E-13     -0.13686669E-21
    0.080100600092         0.61216077E-09      0.21498082E-03     -0.29595247E-11      0.10182915E-12     -0.14018268E-20      0.31692943E-13     -0.13906840E-21
    0.081671200093         0.63667176E-09      0.20788128E-03     -0.29647443E-11      0.10043954E-12     -0.14324404E-20      0.31850693E-13     -0.14131819E-21
    0.083241800095         0.66168477E-09      0.20105245E-03     -0.32077673E-11      0.99051653E-13     -0.15803570E-20      0.32006263E-13     -0.14380030E-21
    0.084812400097         0.68720130E-09      0.19642175E-03     -0.31073743E-11      0.98640864E-13     -0.15604895E-20      0.32161189E-13     -0.14625120E-21
    0.086383000099         0.71322290E-09      0.19195127E-03     -0.34640732E-11      0.98226947E-13     -0.17726653E-20      0.32315464E-13     -0.14903535E-21
    0.087953600101         0.73975113E-09      0.18831274E-03     -0.34374676E-11      0.98164483E-13     -0.17918981E-20      0.32469641E-13     -0.15184970E-21
    0.089524200102         0.76678760E-09      0.18479194E-03     -0.25845887E-11      0.98098039E-13     -0.13720462E-20      0.32623714E-13     -0.15400464E-21
    0.091094800104         0.79433393E-09      0.18100656E-03     -0.34164933E-11      0.97824246E-13     -0.18464297E-20      0.32777357E-13     -0.15690464E-21
    0.092665400106         0.82239179E-09      0.17734738E-03     -0.26563038E-11      0.97550302E-13     -0.14611055E-20      0.32930569E-13     -0.15919945E-21
    0.094236000108         0.85096285E-09      0.17347442E-03     -0.26840590E-11      0.97089412E-13     -0.15022025E-20      0.33083058E-13     -0.16155881E-21
    0.095806600109         0.88004885E-09      0.16973104E-03     -0.28406468E-11      0.96630737E-13     -0.16172280E-20      0.33234826E-13     -0.16409883E-21
    0.097377200111         0.90965153E-09      0.16611479E-03     -0.26940176E-11      0.96176451E-13     -0.15597711E-20      0.33385881E-13     -0.16654861E-21
    0.098947800113         0.93977266E-09      0.16261514E-03     -0.23631367E-11      0.95723884E-13     -0.13910675E-20      0.33536225E-13     -0.16873342E-21
    0.100518400115         0.97041405E-09      0.15937860E-03     -0.24897151E-11      0.95363940E-13     -0.14897172E-20      0.33686003E-13     -0.17107317E-21
    0.102089000117         0.10015775E-08      0.15624280E-03     -0.24305377E-11      0.95005404E-13     -0.14779191E-20      0.33835219E-13     -0.17339439E-21
    0.103659600118         0.10332650E-08      0.15332127E-03     -0.19384295E-11      0.94721219E-13     -0.11975534E-20      0.33983988E-13     -0.17527527E-21
    0.105230200120         0.10654783E-08      0.15048565E-03     -0.24667248E-11      0.94436957E-13     -0.15479880E-20      0.34132311E-13     -0.17770654E-21
    0.106800800122         0.10982195E-08      0.14776645E-03     -0.21560476E-11      0.94174462E-13     -0.13740915E-20      0.34280221E-13     -0.17986468E-21
    0.108371400124         0.11314903E-08      0.14512252E-03     -0.20279211E-11      0.93910392E-13     -0.13122902E-20      0.34427717E-13     -0.18192577E-21
    0.109942000126         0.11652929E-08      0.14229372E-03     -0.20785324E-11      0.93475951E-13     -0.13654347E-20      0.34574530E-13     -0.18407032E-21
    0.111512600127         0.11996293E-08      0.13954113E-03     -0.22115708E-11      0.93039643E-13     -0.14745742E-20      0.34720658E-13     -0.18638629E-21
    0.113083200129         0.12345014E-08      0.13555651E-03     -0.20619860E-11      0.91718417E-13     -0.13951532E-20      0.34864711E-13     -0.18857751E-21
    0.114653800131         0.12699115E-08      0.13172485E-03     -0.21709507E-11      0.90426425E-13     -0.14903135E-20      0.35006735E-13     -0.19091820E-21
    0.116224400133         0.13058615E-08      0.13170857E-03     -0.21134808E-11      0.91718410E-13     -0.14717728E-20      0.35150788E-13     -0.19322977E-21
    0.117795000135         0.13423536E-08      0.13164283E-03     -0.18526891E-11      0.92977948E-13     -0.13085349E-20      0.35296819E-13     -0.19528495E-21
    0.119365600136         0.13793901E-08      0.12991070E-03     -0.20677796E-11      0.93045530E-13     -0.14809992E-20      0.35442956E-13     -0.19761101E-21
    0.120936200138         0.14169730E-08      0.12822873E-03     -0.18860173E-11      0.93117921E-13     -0.13695995E-20      0.35589207E-13     -0.19976210E-21
    0.122506800140         0.14551046E-08      0.12642963E-03     -0.17165614E-11      0.93073398E-13     -0.12636769E-20      0.35735388E-13     -0.20174683E-21
    0.124077400142         0.14937873E-08      0.12468101E-03     -0.18307602E-11      0.93033436E-13     -0.13660613E-20      0.35881507E-13     -0.20389237E-21
    0.125648000144         0.15330232E-08      0.12387188E-03     -0.17966328E-11      0.93671728E-13     -0.13586110E-20      0.36028627E-13     -0.20602620E-21
    0.127218600145         0.15728147E-08      0.12306185E-03     -0.19634572E-11      0.94295953E-13     -0.15044961E-20      0.36176729E-13     -0.20838916E-21
    0.128789200147         0.16131641E-08      0.11986856E-03     -0.20235435E-11      0.93056577E-13     -0.15709209E-20      0.36322883E-13     -0.21085645E-21
    0.130359800149         0.16540739E-08      0.11686964E-03     -0.18887606E-11      0.91908482E-13     -0.14853568E-20      0.36467235E-13     -0.21318935E-21
    0.131930400151         0.16955464E-08      0.12598136E-03     -0.16180878E-11      0.10034917E-12     -0.12888713E-20      0.36624843E-13     -0.21521365E-21
    0.133501000153         0.17375841E-08      0.13468933E-03     -0.18179367E-11      0.10865187E-12     -0.14665022E-20      0.36795492E-13     -0.21751694E-21
    0.135071600154         0.17801894E-08      0.14335589E-03     -0.16502832E-11      0.11710094E-12     -0.13480417E-20      0.36979411E-13     -0.21963418E-21
    0.136642200156         0.18233649E-08      0.15176770E-03     -0.16706603E-11      0.12551938E-12     -0.13817185E-20      0.37176551E-13     -0.22180430E-21
    0.138212800158         0.18671131E-08      0.19519652E-03     -0.17236406E-11      0.16343201E-12     -0.14431509E-20      0.37433238E-13     -0.22407092E-21
    0.139783400160         0.19114366E-08      0.23540055E-03     -0.16542932E-11      0.19950531E-12     -0.14020370E-20      0.37746581E-13     -0.22627296E-21
    0.141354000162         0.19563380E-08      0.58139628E-04     -0.16709104E-11      0.49871302E-13     -0.14332819E-20      0.37824909E-13     -0.22852407E-21
    0.142924600163         0.20018198E-08     -0.11016049E-03     -0.16923982E-11     -0.95628326E-13     -0.14691402E-20      0.37674715E-13     -0.23083150E-21
    0.144495200165         0.20478848E-08     -0.36937096E-04     -0.16629342E-11     -0.32445729E-13     -0.14607297E-20      0.37623755E-13     -0.23312572E-21
    0.146065800167         0.20945357E-08      0.31981807E-04     -0.14542887E-11      0.28423981E-13     -0.12925059E-20      0.37668398E-13     -0.23515573E-21
    0.147636400169         0.21417752E-08      0.42718722E-04     -0.16809936E-11      0.38409739E-13     -0.15114339E-20      0.37728724E-13     -0.23752959E-21
    0.149207000170         0.21896059E-08      0.53272723E-04     -0.15871467E-11      0.48453409E-13     -0.14435655E-20      0.37804825E-13     -0.23979685E-21
    0.150777600172         0.22380308E-08      0.56708445E-04     -0.15595933E-11      0.52169858E-13     -0.14347733E-20      0.37886763E-13     -0.24205031E-21
    0.152348200174         0.22870527E-08      0.60260813E-04     -0.15278205E-11      0.56068186E-13     -0.14215229E-20      0.37974824E-13     -0.24428295E-21
    0.153918800176         0.23366743E-08      0.61630797E-04     -0.15010329E-11      0.57989181E-13     -0.14123404E-20      0.38065902E-13     -0.24650118E-21
    0.155489400178         0.23868986E-08      0.62863664E-04     -0.14157606E-11      0.59810241E-13     -0.13469941E-20      0.38159840E-13     -0.24861676E-21
    0.157060000179         0.24377285E-08      0.62282244E-04     -0.14385628E-11      0.59913773E-13     -0.13838570E-20      0.38253940E-13     -0.25079025E-21
    0.158630600181         0.24891669E-08      0.61586423E-04     -0.14813430E-11      0.59895571E-13     -0.14406728E-20      0.38348012E-13     -0.25305297E-21
    0.160201200183         0.25412168E-08      0.60764589E-04     -0.13128463E-11      0.59740547E-13     -0.12907214E-20      0.38441841E-13     -0.25508018E-21
    0.161771800185         0.25938812E-08      0.60023268E-04     -0.14708236E-11      0.59649881E-13     -0.14616740E-20      0.38535527E-13     -0.25737588E-21
    0.163342400187         0.26471632E-08      0.58697938E-04     -0.14573056E-11      0.58958620E-13     -0.14637776E-20      0.38628127E-13     -0.25967489E-21
    0.164913000188         0.27010658E-08      0.57401201E-04     -0.13800032E-11      0.58269854E-13     -0.14008868E-20      0.38719646E-13     -0.26187512E-21
    0.166483600190         0.27555922E-08      0.52255651E-04     -0.14202968E-11      0.53606743E-13     -0.14570192E-20      0.38803841E-13     -0.26416352E-21
    0.168054200192         0.28107454E-08      0.47410641E-04     -0.14279049E-11      0.49146279E-13     -0.14801785E-20      0.38881030E-13     -0.26648829E-21
    0.169624800194         0.28665287E-08      0.55896139E-04     -0.13733224E-11      0.58545218E-13     -0.14384081E-20      0.38972981E-13     -0.26874745E-21
    0.171195400196         0.29229452E-08      0.63901227E-04     -0.13786022E-11      0.67620823E-13     -0.14588485E-20      0.39079186E-13     -0.27103872E-21
    0.172766000197         0.29799981E-08      0.60539449E-04     -0.13943382E-11      0.64720052E-13     -0.14906254E-20      0.39180836E-13     -0.27337990E-21
    0.174336600199         0.30376909E-08      0.57365026E-04     -0.12391391E-11      0.61950509E-13     -0.13381899E-20      0.39278135E-13     -0.27548166E-21
    0.175907200201         0.30960266E-08      0.55711945E-04     -0.13656094E-11      0.60773195E-13     -0.14896706E-20      0.39373585E-13     -0.27782133E-21
    0.177477800203         0.31550088E-08      0.54083075E-04     -0.12962118E-11      0.59588244E-13     -0.14281544E-20      0.39467175E-13     -0.28006439E-21
    0.179048400205         0.32146406E-08      0.51519968E-04     -0.12476500E-11      0.57329776E-13     -0.13883451E-20      0.39557217E-13     -0.28224493E-21
    0.180619000206         0.32749256E-08      0.49023043E-04     -0.12561636E-11      0.55091037E-13     -0.14116496E-20      0.39643743E-13     -0.28446206E-21
    0.182189600208         0.33358672E-08      0.46075940E-04     -0.13238889E-11      0.52288003E-13     -0.15023786E-20      0.39725866E-13     -0.28682170E-21
    0.183760200210         0.33974688E-08      0.43196989E-04     -0.12592353E-11      0.49499427E-13     -0.14429577E-20      0.39803610E-13     -0.28908801E-21
    0.185330800212         0.34597339E-08      0.38948979E-04     -0.12895276E-11      0.45064427E-13     -0.14919986E-20      0.39874388E-13     -0.29143134E-21
    0.186901400214         0.35226661E-08      0.34832630E-04     -0.12394122E-11      0.40690016E-13     -0.14478293E-20      0.39938296E-13     -0.29370530E-21
    0.188472000215         0.35862688E-08      0.26661811E-04     -0.11345360E-11      0.31443314E-13     -0.13380027E-20      0.39987681E-13     -0.29580677E-21
    0.190042600217         0.36505458E-08      0.18909030E-04     -0.13017213E-11      0.22512243E-13     -0.15497709E-20      0.40023039E-13     -0.29824084E-21
    0.191613200219         0.37155006E-08      0.15006364E-04     -0.11739956E-11      0.18034747E-13     -0.14109157E-20      0.40051364E-13     -0.30045682E-21
