 
 # six columns.
 # Omega (column 1); |pulse ft|^2 (2); cross section (Mb) (3); flux (column 5)
 
  0.0000      0.103411E-10      0.000000E+00      0.000000E+00      0.110142E-06     -0.596311E-18
  0.0063      0.406993E-10      0.200802E+02     -0.116228E-09      0.101405E-06     -0.586955E-18
  0.0126      0.131874E-09      0.111882E+02     -0.717218E-10      0.915370E-07     -0.586796E-18
  0.0188      0.284166E-09      0.769303E+01     -0.489931E-10      0.904179E-07     -0.575828E-18
  0.0251      0.498076E-09      0.587858E+01     -0.373219E-10      0.908270E-07     -0.576642E-18
  0.0314      0.774308E-09      0.476650E+01     -0.301698E-10      0.915904E-07     -0.579725E-18
  0.0377      0.111377E-08      0.401491E+01     -0.255510E-10      0.924752E-07     -0.588514E-18
  0.0439      0.151756E-08      0.347336E+01     -0.218457E-10      0.934339E-07     -0.587652E-18
  0.0502      0.198701E-08      0.306863E+01     -0.191127E-10      0.945716E-07     -0.589031E-18
  0.0565      0.252362E-08      0.275180E+01     -0.170891E-10      0.957428E-07     -0.594577E-18
  0.0628      0.312914E-08      0.249592E+01     -0.149856E-10      0.969085E-07     -0.581843E-18
  0.0690      0.380551E-08      0.228605E+01     -0.134703E-10      0.981325E-07     -0.578236E-18
  0.0753      0.455488E-08      0.210996E+01     -0.121796E-10      0.993750E-07     -0.573634E-18
  0.0816      0.537962E-08      0.196077E+01     -0.114229E-10      0.100680E-06     -0.586530E-18
  0.0879      0.628233E-08      0.183150E+01     -0.106211E-10      0.101978E-06     -0.591384E-18
  0.0942      0.726582E-08      0.171953E+01     -0.984619E-11      0.103350E-06     -0.591791E-18
  0.1004      0.833314E-08      0.162023E+01     -0.919796E-11      0.104706E-06     -0.594411E-18
  0.1067      0.948756E-08      0.153276E+01     -0.830934E-11      0.106142E-06     -0.575412E-18
  0.1130      0.107326E-07      0.145393E+01     -0.768592E-11      0.107568E-06     -0.568636E-18
  0.1193      0.120720E-07      0.138355E+01     -0.727328E-11      0.109075E-06     -0.573405E-18
  0.1255      0.135097E-07      0.131926E+01     -0.712856E-11      0.110574E-06     -0.597480E-18
  0.1318      0.150500E-07      0.126125E+01     -0.673320E-11      0.112156E-06     -0.598748E-18
  0.1381      0.166973E-07      0.120771E+01     -0.632252E-11      0.113735E-06     -0.595416E-18
  0.1444      0.184564E-07      0.115893E+01     -0.587433E-11      0.115394E-06     -0.584904E-18
  0.1506      0.203324E-07      0.111370E+01     -0.537445E-11      0.117072E-06     -0.564959E-18
  0.1569      0.223303E-07      0.107217E+01     -0.516805E-11      0.118830E-06     -0.572781E-18
  0.1632      0.244559E-07      0.103326E+01     -0.511910E-11      0.120594E-06     -0.597463E-18
  0.1695      0.267149E-07      0.997334E+00     -0.476153E-11      0.122444E-06     -0.584578E-18
  0.1758      0.291133E-07      0.963548E+00     -0.468907E-11      0.124312E-06     -0.604960E-18
  0.1820      0.316576E-07      0.932149E+00     -0.442141E-11      0.126262E-06     -0.598890E-18
  0.1883      0.343544E-07      0.902614E+00     -0.430028E-11      0.128254E-06     -0.611033E-18
  0.1946      0.372107E-07      0.875062E+00     -0.396730E-11      0.130332E-06     -0.590892E-18
  0.2009      0.402337E-07      0.848784E+00     -0.378180E-11      0.132417E-06     -0.589992E-18
  0.2071      0.434310E-07      0.824187E+00     -0.372422E-11      0.134592E-06     -0.608173E-18
  0.2134      0.468103E-07      0.800922E+00     -0.347659E-11      0.136823E-06     -0.593914E-18
  0.2197      0.503800E-07      0.779018E+00     -0.330375E-11      0.139138E-06     -0.590071E-18
  0.2260      0.541485E-07      0.758216E+00     -0.312220E-11      0.141509E-06     -0.582709E-18
  0.2322      0.581245E-07      0.738576E+00     -0.295826E-11      0.143966E-06     -0.576634E-18
  0.2385      0.623173E-07      0.719927E+00     -0.279879E-11      0.146494E-06     -0.569511E-18
  0.2448      0.667362E-07      0.702275E+00     -0.264896E-11      0.149111E-06     -0.562443E-18
  0.2511      0.713911E-07      0.685484E+00     -0.262019E-11      0.151806E-06     -0.580261E-18
  0.2574      0.762921E-07      0.669562E+00     -0.249918E-11      0.154594E-06     -0.577031E-18
  0.2636      0.814497E-07      0.654419E+00     -0.244729E-11      0.157472E-06     -0.588886E-18
  0.2699      0.868745E-07      0.640064E+00     -0.236680E-11      0.160455E-06     -0.593323E-18
  0.2762      0.925779E-07      0.626385E+00     -0.226194E-11      0.163532E-06     -0.590531E-18
  0.2825      0.985713E-07      0.613430E+00     -0.215830E-11      0.166728E-06     -0.586620E-18
  0.2887      0.104866E-06      0.601045E+00     -0.206657E-11      0.170017E-06     -0.584569E-18
  0.2950      0.111476E-06      0.589370E+00     -0.200856E-11      0.173451E-06     -0.591117E-18
  0.3013      0.118411E-06      0.578075E+00     -0.191003E-11      0.176947E-06     -0.584655E-18
  0.3076      0.125686E-06      0.567554E+00     -0.184593E-11      0.180636E-06     -0.587507E-18
  0.3138      0.133314E-06      0.556910E+00     -0.179959E-11      0.184245E-06     -0.595368E-18
  0.3201      0.141308E-06      0.548120E+00     -0.171860E-11      0.188442E-06     -0.590848E-18
  0.3264      0.149682E-06      0.543519E+00     -0.168392E-11      0.194127E-06     -0.601440E-18
  0.3327      0.158450E-06      0.534959E+00     -0.157483E-11      0.198446E-06     -0.584195E-18
  0.3390      0.167627E-06      0.525067E+00     -0.154802E-11      0.202242E-06     -0.596258E-18
  0.3452      0.177228E-06      0.517547E+00     -0.144053E-11      0.206932E-06     -0.575969E-18
  0.3515      0.187269E-06      0.510435E+00     -0.143111E-11      0.211799E-06     -0.593823E-18
  0.3578      0.197764E-06      0.504121E+00     -0.138094E-11      0.217027E-06     -0.594505E-18
  0.3641      0.208730E-06      0.498137E+00     -0.129753E-11      0.222440E-06     -0.579404E-18
  0.3703      0.220183E-06      0.492940E+00     -0.129535E-11      0.228262E-06     -0.599825E-18
  0.3766      0.232140E-06      0.487617E+00     -0.119063E-11      0.234090E-06     -0.571588E-18
  0.3829      0.244617E-06      0.483186E+00     -0.117572E-11      0.240424E-06     -0.585015E-18
  0.3892      0.257632E-06      0.478994E+00     -0.112987E-11      0.246971E-06     -0.582567E-18
  0.3954      0.271203E-06      0.475726E+00     -0.112445E-11      0.254108E-06     -0.600619E-18
  0.4017      0.285347E-06      0.472453E+00     -0.108756E-11      0.261372E-06     -0.601665E-18
  0.4080      0.300082E-06      0.470359E+00     -0.103857E-11      0.269441E-06     -0.594935E-18
  0.4143      0.315427E-06      0.468112E+00     -0.100864E-11      0.277595E-06     -0.598131E-18
  0.4206      0.331400E-06      0.467497E+00     -0.934868E-12      0.286921E-06     -0.573766E-18
  0.4268      0.348020E-06      0.466352E+00     -0.916752E-12      0.296153E-06     -0.582176E-18
  0.4331      0.365307E-06      0.467883E+00     -0.900659E-12      0.307364E-06     -0.591666E-18
  0.4394      0.383280E-06      0.468067E+00     -0.880957E-12      0.318004E-06     -0.598521E-18
  0.4457      0.401958E-06      0.474270E+00     -0.860216E-12      0.333162E-06     -0.604279E-18
  0.4519      0.421362E-06      0.476928E+00     -0.819166E-12      0.346324E-06     -0.594842E-18
  0.4582      0.441511E-06      0.512970E+00     -0.801423E-12      0.384961E-06     -0.601433E-18
  0.4645      0.462426E-06      0.660285E+00     -0.749560E-12      0.511974E-06     -0.581197E-18
  0.4708      0.484126E-06      0.604190E+00     -0.719540E-12      0.483924E-06     -0.576313E-18
  0.4770      0.506633E-06      0.483118E+00     -0.712903E-12      0.399614E-06     -0.589681E-18
  0.4833      0.529967E-06      0.493274E+00     -0.708427E-12      0.421263E-06     -0.605007E-18
  0.4896      0.554149E-06      0.504556E+00     -0.680291E-12      0.444783E-06     -0.599699E-18
  0.4959      0.579200E-06      0.519707E+00     -0.662820E-12      0.472788E-06     -0.602982E-18
  0.5022      0.605141E-06      0.560688E+00     -0.647880E-12      0.526253E-06     -0.608090E-18
  0.5084      0.631993E-06      0.645437E+00     -0.602708E-12      0.624867E-06     -0.583500E-18
  0.5147      0.659776E-06      0.123694E+01     -0.585675E-12      0.123492E-05     -0.584717E-18
  0.5210      0.688513E-06      0.217400E+01     -0.651138E-12      0.223769E-05     -0.670215E-18
  0.5273      0.718224E-06      0.199686E+01     -0.594598E-12      0.211854E-05     -0.630828E-18
  0.5335      0.748930E-06      0.199189E+01     -0.545533E-12      0.217768E-05     -0.596417E-18
  0.5398      0.780652E-06      0.247400E+01     -0.609425E-12      0.278654E-05     -0.686414E-18
  0.5461      0.813412E-06      0.299339E+01     -0.553258E-12      0.347265E-05     -0.641839E-18
  0.5524      0.847230E-06      0.328088E+01     -0.644346E-12      0.391937E-05     -0.769741E-18
  0.5586      0.882128E-06      0.352686E+01     -0.570445E-12      0.433747E-05     -0.701555E-18
  0.5649      0.918125E-06      0.373016E+01     -0.712662E-12      0.472164E-05     -0.902090E-18
  0.5712      0.955242E-06      0.395833E+01     -0.628526E-12      0.515573E-05     -0.818657E-18
  0.5775      0.993501E-06      0.434626E+01     -0.787014E-12      0.582375E-05     -0.105456E-17
  0.5838      0.103292E-05      0.475956E+01     -0.448369E-12      0.655930E-05     -0.617911E-18
  0.5900      0.107352E-05      0.548082E+01     -0.316204E-12      0.776666E-05     -0.448080E-18
  0.5963      0.111532E-05      0.603738E+01     -0.507031E-12      0.879491E-05     -0.738613E-18
  0.6026      0.115834E-05      0.728504E+01     -0.378773E-12      0.109070E-04     -0.567089E-18
  0.6089      0.120260E-05      0.823003E+01     -0.663210E-12      0.126607E-04     -0.102025E-17
  0.6151      0.124812E-05      0.114187E+02     -0.517776E-12      0.180447E-04     -0.818234E-18
  0.6214      0.129491E-05      0.146996E+02     -0.108034E-11      0.238570E-04     -0.175336E-17
  0.6277      0.134299E-05      0.380376E+02     -0.141510E-11      0.633860E-04     -0.235814E-17
  0.6340      0.139239E-05      0.644251E+02     -0.449217E-11      0.110205E-03     -0.768428E-17
  0.6402      0.144312E-05      0.448334E+02     -0.228895E-11      0.787065E-04     -0.401832E-17
  0.6465      0.149519E-05      0.146966E+02     -0.668703E-12      0.264718E-04     -0.120448E-17
  0.6528      0.154863E-05      0.634110E+01     -0.685822E-12      0.117161E-04     -0.126716E-17
  0.6591      0.160344E-05      0.601180E+01     -0.531288E-12      0.113913E-04     -0.100670E-17
  0.6654      0.165964E-05      0.637418E+01     -0.768665E-12      0.123834E-04     -0.149332E-17
  0.6716      0.171725E-05      0.760887E+01     -0.262439E-12      0.151523E-04     -0.522619E-18
  0.6779      0.177628E-05      0.858237E+01     -0.562398E-12      0.175147E-04     -0.114773E-17
  0.6842      0.183675E-05      0.154680E+02     -0.456961E-12      0.323418E-04     -0.955453E-18
  0.6905      0.189866E-05      0.310647E+02     -0.126558E-13      0.665319E-04     -0.271051E-19
  0.6967      0.196203E-05      0.337492E+02     -0.119876E-11      0.740208E-04     -0.262919E-17
  0.7030      0.202687E-05      0.247875E+02     -0.427003E-12      0.556606E-04     -0.958841E-18
  0.7093      0.209319E-05      0.250605E+02     -0.132078E-11      0.576007E-04     -0.303577E-17
  0.7156      0.216100E-05      0.350087E+02     -0.100400E-11      0.823442E-04     -0.236153E-17
  0.7218      0.223031E-05      0.453650E+02     -0.288066E-11      0.109168E-03     -0.693212E-17
  0.7281      0.230113E-05      0.461769E+02     -0.196562E-11      0.113662E-03     -0.483825E-17
  0.7344      0.237346E-05      0.427874E+02     -0.339472E-11      0.107701E-03     -0.854487E-17
  0.7407      0.244730E-05      0.425894E+02     -0.247517E-11      0.109601E-03     -0.636969E-17
  0.7470      0.252268E-05      0.428163E+02     -0.160236E-11      0.112624E-03     -0.421484E-17
  0.7532      0.259958E-05      0.457945E+02     -0.334023E-11      0.123096E-03     -0.897855E-17
  0.7595      0.267802E-05      0.463570E+02      0.241814E-12      0.127306E-03      0.664074E-18
  0.7658      0.275799E-05      0.402169E+02     -0.128517E-11      0.112810E-03     -0.360497E-17
  0.7721      0.283950E-05      0.395364E+02     -0.440007E-12      0.113251E-03     -0.126039E-17
  0.7783      0.292255E-05      0.440766E+02     -0.207611E-11      0.128901E-03     -0.607153E-17
  0.7846      0.300714E-05      0.446662E+02     -0.115547E-11      0.133330E-03     -0.344912E-17
  0.7909      0.309326E-05      0.453844E+02     -0.281625E-11      0.138248E-03     -0.857875E-17
  0.7972      0.318091E-05      0.456684E+02     -0.188168E-11      0.141929E-03     -0.584792E-17
  0.8034      0.327009E-05      0.459296E+02     -0.914908E-12      0.145596E-03     -0.290024E-17
  0.8097      0.336080E-05      0.459286E+02     -0.259299E-11      0.148472E-03     -0.838224E-17
  0.8160      0.345302E-05      0.456521E+02     -0.162837E-11      0.150461E-03     -0.536680E-17
  0.8223      0.354676E-05      0.452170E+02     -0.326364E-11      0.151904E-03     -0.109640E-16
  0.8286      0.364199E-05      0.444529E+02     -0.226633E-11      0.152185E-03     -0.775882E-17
  0.8348      0.373872E-05      0.436836E+02     -0.379220E-11      0.152369E-03     -0.132273E-16
  0.8411      0.383693E-05      0.426145E+02     -0.281698E-11      0.151406E-03     -0.100085E-16
  0.8474      0.393661E-05      0.416316E+02     -0.423256E-11      0.150633E-03     -0.153144E-16
  0.8537      0.403775E-05      0.403712E+02     -0.996970E-12      0.148723E-03     -0.367273E-17
  0.8599      0.414033E-05      0.392300E+02     -0.146371E-12      0.147109E-03     -0.548877E-18
  0.8662      0.424433E-05      0.378382E+02     -0.153060E-11      0.144400E-03     -0.584114E-17
  0.8725      0.434975E-05      0.365875E+02     -0.717259E-12      0.142065E-03     -0.278504E-17
  0.8788      0.445655E-05      0.351266E+02     -0.194548E-11      0.138744E-03     -0.768428E-17
  0.8850      0.456472E-05      0.338312E+02     -0.117239E-11      0.135900E-03     -0.470950E-17
  0.8913      0.467425E-05      0.323530E+02     -0.228949E-11      0.132143E-03     -0.935124E-17
  0.8976      0.478510E-05      0.310586E+02     -0.156349E-11      0.128957E-03     -0.649166E-17
  0.9039      0.489725E-05      0.295472E+02     -0.876771E-12      0.124684E-03     -0.369984E-17
  0.9102      0.501068E-05      0.282210E+02     -0.187430E-11      0.121007E-03     -0.803665E-17
  0.9164      0.512537E-05      0.264574E+02     -0.120718E-11      0.115246E-03     -0.525838E-17
  0.9227      0.524128E-05      0.248110E+02     -0.202792E-11      0.109767E-03     -0.897177E-17
  0.9290      0.535839E-05      0.222725E+02     -0.136810E-11      0.100057E-03     -0.614607E-17
  0.9353      0.547667E-05      0.267524E+02     -0.257188E-11      0.122011E-03     -0.117297E-16
  0.9415      0.559608E-05      0.333507E+02     -0.603098E-12      0.154385E-03     -0.279182E-17
  0.9478      0.571660E-05      0.303908E+02     -0.165602E-11      0.142761E-03     -0.777915E-17
  0.9541      0.583818E-05      0.274576E+02     -0.946943E-12      0.130859E-03     -0.451299E-17
  0.9604      0.596080E-05      0.262793E+02     -0.357446E-12      0.127038E-03     -0.172795E-17
  0.9666      0.608441E-05      0.250929E+02     -0.125093E-11      0.123014E-03     -0.613252E-17
  0.9729      0.620899E-05      0.243711E+02     -0.711647E-12      0.121135E-03     -0.353721E-17
  0.9792      0.633449E-05      0.236190E+02     -0.153590E-11      0.119002E-03     -0.773849E-17
  0.9855      0.646087E-05      0.231116E+02     -0.103113E-11      0.118012E-03     -0.526516E-17
  0.9918      0.658808E-05      0.227095E+02     -0.183362E-11      0.117494E-03     -0.948677E-17
  0.9980      0.671610E-05      0.231425E+02     -0.139503E-11      0.121293E-03     -0.731159E-17
  1.0043      0.684487E-05      0.229117E+02     -0.220205E-11      0.121621E-03     -0.116891E-16
  1.0106      0.697435E-05      0.218991E+02     -0.165402E-11      0.117709E-03     -0.889046E-17
  1.0169      0.710449E-05      0.218260E+02     -0.119422E-11      0.118768E-03     -0.649844E-17
  1.0231      0.723525E-05      0.221185E+02     -0.200050E-11      0.121823E-03     -0.110182E-16
  1.0294      0.736657E-05      0.224806E+02     -0.293008E-12      0.125296E-03     -0.163308E-17
  1.0357      0.749841E-05      0.221726E+02     -0.108875E-11      0.125028E-03     -0.613929E-17
  1.0420      0.763073E-05      0.216445E+02     -0.185570E-11      0.123456E-03     -0.105845E-16
  1.0482      0.776346E-05      0.215083E+02     -0.170339E-12      0.124065E-03     -0.982558E-18
  1.0545      0.789655E-05      0.213418E+02     -0.930653E-12      0.124470E-03     -0.542779E-17
  1.0608      0.802996E-05      0.212108E+02     -0.168956E-11      0.125052E-03     -0.996111E-17
  1.0671      0.816362E-05      0.209947E+02     -0.420776E-13      0.125098E-03     -0.250722E-18
  1.0734      0.829749E-05      0.208068E+02     -0.795706E-12      0.125274E-03     -0.479082E-17
  1.0796      0.843150E-05      0.206115E+02     -0.153406E-11      0.125370E-03     -0.933091E-17
  1.0859      0.856560E-05      0.204542E+02     -0.226665E-11      0.125661E-03     -0.139252E-16
  1.0922      0.869974E-05      0.202901E+02     -0.671741E-12      0.125877E-03     -0.416740E-17
  1.0985      0.883385E-05      0.201404E+02     -0.138262E-11      0.126150E-03     -0.866006E-17
  1.1047      0.896787E-05      0.199768E+02     -0.209212E-11      0.126302E-03     -0.132273E-16
  1.1110      0.910176E-05      0.198178E+02     -0.278142E-11      0.126449E-03     -0.177470E-16
  1.1173      0.923543E-05      0.196491E+02     -0.124097E-11      0.126499E-03     -0.798921E-17
  1.1236      0.936885E-05      0.194855E+02     -0.193551E-11      0.126547E-03     -0.125700E-16
  1.1298      0.950193E-05      0.193160E+02     -0.262254E-11      0.126521E-03     -0.171778E-16
  1.1361      0.963463E-05      0.191506E+02     -0.111008E-11      0.126487E-03     -0.733192E-17
  1.1424      0.976688E-05      0.189777E+02     -0.177682E-11      0.126367E-03     -0.118314E-16
  1.1487      0.989861E-05      0.188058E+02     -0.244127E-11      0.126218E-03     -0.163850E-16
  1.1550      0.100298E-04      0.186228E+02     -0.308675E-11      0.125958E-03     -0.208777E-16
  1.1612      0.101603E-04      0.184382E+02      0.470338E-12      0.125649E-03      0.320517E-17
  1.1675      0.102901E-04      0.182398E+02     -0.196440E-12      0.125208E-03     -0.134848E-17
  1.1738      0.104191E-04      0.180382E+02     -0.851751E-12      0.124707E-03     -0.588857E-17
  1.1801      0.105474E-04      0.178219E+02      0.543165E-12      0.124065E-03      0.378116E-17
  1.1863      0.106747E-04      0.176034E+02     -0.986259E-13      0.123366E-03     -0.691179E-18
  1.1926      0.108010E-04      0.173769E+02     -0.723381E-12      0.122572E-03     -0.510253E-17
  1.1989      0.109264E-04      0.171637E+02     -0.133077E-11      0.121832E-03     -0.944611E-17
  1.2052      0.110506E-04      0.169953E+02     -0.189771E-14      0.121372E-03     -0.135525E-19
  1.2114      0.111737E-04      0.169666E+02     -0.615024E-12      0.121882E-03     -0.441812E-17
  1.2177      0.112956E-04      0.173804E+02     -0.126529E-11      0.125566E-03     -0.914118E-17
  1.2240      0.114161E-04      0.189934E+02      0.102610E-12      0.137973E-03      0.745389E-18
  1.2303      0.115354E-04      0.231096E+02     -0.686656E-12      0.168762E-03     -0.501444E-17
  1.2366      0.116532E-04      0.272943E+02     -0.178181E-11      0.200336E-03     -0.130782E-16
  1.2428      0.117696E-04      0.273929E+02     -0.277089E-11      0.202041E-03     -0.204372E-16
  1.2491      0.118844E-04      0.250271E+02     -0.601708E-12      0.185456E-03     -0.445878E-17
  1.2554      0.119976E-04      0.228998E+02     -0.138195E-11      0.170453E-03     -0.102864E-16
