 
 # Omega; pulse ft; proj flux t=    500.250000000000     
    0.000000000000         0.19000442E-09      0.00000000E+00      0.00000000E+00      0.81251070E-31     -0.15187014E-40      0.51000552E-33     -0.95327493E-43
    0.006276908399         0.22160172E-09      0.29514071E-22     -0.69156468E-32      0.64580161E-31     -0.15132226E-40      0.91536928E-33     -0.19031109E-42
    0.012553816798         0.31649624E-09      0.37353697E-22     -0.97557181E-32      0.58367224E-31     -0.15243851E-40      0.12817350E-32     -0.28599534E-42
    0.018830725196         0.47499603E-09      0.38973039E-22     -0.96935485E-32      0.60929818E-31     -0.15154737E-40      0.16641859E-32     -0.38112024E-42
    0.025107633595         0.69761494E-09      0.36025026E-22     -0.88907935E-32      0.62037882E-31     -0.15310634E-40      0.20535920E-32     -0.47722369E-42
    0.031384541994         0.98507334E-09      0.32437030E-22     -0.78884536E-32      0.63101041E-31     -0.15345722E-40      0.24496714E-32     -0.57354738E-42
    0.037661450393         0.13382991E-08      0.28795250E-22     -0.68626965E-32      0.63419039E-31     -0.15114494E-40      0.28477469E-32     -0.66841967E-42
    0.043938358791         0.17584287E-08      0.25682090E-22     -0.61609901E-32      0.63702133E-31     -0.15281786E-40      0.32475994E-32     -0.76434204E-42
    0.050215267190         0.22468091E-08      0.23243275E-22     -0.54598896E-32      0.64457043E-31     -0.15141083E-40      0.36521904E-32     -0.85938123E-42
    0.056492175589         0.28049990E-08      0.21193108E-22     -0.49500121E-32      0.65220140E-31     -0.15233277E-40      0.40615712E-32     -0.95499912E-42
    0.062769083988         0.34347712E-08      0.20076064E-22     -0.44530195E-32      0.68088421E-31     -0.15102516E-40      0.44889560E-32     -0.10497962E-41
    0.069045992387         0.41381150E-08      0.19082651E-22     -0.40597129E-32      0.70883549E-31     -0.15080025E-40      0.49338855E-32     -0.11444522E-41
    0.075322900785         0.49172381E-08      0.17538738E-22     -0.38126269E-32      0.70963530E-31     -0.15426279E-40      0.53793171E-32     -0.12412815E-41
    0.081599809184         0.57745703E-08      0.16192459E-22     -0.34140579E-32      0.71020875E-31     -0.14974215E-40      0.58251086E-32     -0.13352733E-41
    0.087876717583         0.67127654E-08      0.15120061E-22     -0.32113565E-32      0.71585304E-31     -0.15204034E-40      0.62744430E-32     -0.14307076E-41
    0.094153625982         0.77347054E-08      0.14163432E-22     -0.30071124E-32      0.72113720E-31     -0.15310842E-40      0.67270942E-32     -0.15268124E-41
    0.100430534380         0.88435030E-08      0.13272983E-22     -0.28115693E-32      0.72438554E-31     -0.15344404E-40      0.71817844E-32     -0.16231278E-41
    0.106707442779         0.10042506E-07      0.12476613E-22     -0.25953765E-32      0.72775762E-31     -0.15138765E-40      0.76385912E-32     -0.17181524E-41
    0.112984351178         0.11335300E-07      0.11765789E-22     -0.24712536E-32      0.73160806E-31     -0.15366492E-40      0.80978149E-32     -0.18146065E-41
    0.119261259577         0.12725715E-07      0.11125115E-22     -0.23326989E-32      0.73574946E-31     -0.15427095E-40      0.85596381E-32     -0.19114409E-41
    0.125538167976         0.14217824E-07      0.10538080E-22     -0.21770779E-32      0.73971003E-31     -0.15281781E-40      0.90239473E-32     -0.20073633E-41
    0.131815076374         0.15815953E-07      0.99933293E-23     -0.20314848E-32      0.74316141E-31     -0.15107289E-40      0.94904229E-32     -0.21021904E-41
    0.138091984773         0.17524683E-07      0.95643328E-23     -0.19344285E-32      0.75227921E-31     -0.15215179E-40      0.99626217E-32     -0.21976946E-41
    0.144368893172         0.19348855E-07      0.91721481E-23     -0.18308671E-32      0.76189543E-31     -0.15208316E-40      0.10440856E-31     -0.22931558E-41
    0.150645801571         0.21293571E-07      0.87790516E-23     -0.17439233E-32      0.76909811E-31     -0.15277825E-40      0.10923612E-31     -0.23890533E-41
    0.156922709970         0.23364205E-07      0.84115615E-23     -0.16648848E-32      0.77621943E-31     -0.15363567E-40      0.11410838E-31     -0.24854891E-41
    0.163199618368         0.25566403E-07      0.80902704E-23     -0.15920509E-32      0.78551812E-31     -0.15457887E-40      0.11903901E-31     -0.25825168E-41
    0.169476526767         0.27906088E-07      0.77946559E-23     -0.14765781E-32      0.79547957E-31     -0.15069141E-40      0.12403216E-31     -0.26771044E-41
    0.175753435166         0.30389467E-07      0.75065358E-23     -0.14266981E-32      0.80445452E-31     -0.15289526E-40      0.12908165E-31     -0.27730754E-41
    0.182030343565         0.33023034E-07      0.72423936E-23     -0.13634646E-32      0.81432540E-31     -0.15330620E-40      0.13419309E-31     -0.28693043E-41
    0.188307251963         0.35813574E-07      0.69922835E-23     -0.13072696E-32      0.82421844E-31     -0.15409497E-40      0.13936664E-31     -0.29660283E-41
    0.194584160362         0.38768170E-07      0.67373877E-23     -0.12299167E-32      0.83195921E-31     -0.15187496E-40      0.14458877E-31     -0.30613588E-41
    0.200861068761         0.41894206E-07      0.64959312E-23     -0.12068647E-32      0.83973506E-31     -0.15601252E-40      0.14985971E-31     -0.31592864E-41
    0.207137977160         0.45199371E-07      0.62778900E-23     -0.11463514E-32      0.84904174E-31     -0.15503620E-40      0.15518906E-31     -0.32566012E-41
    0.213414885559         0.48691666E-07      0.60835749E-23     -0.10780836E-32      0.86026342E-31     -0.15244916E-40      0.16058886E-31     -0.33522922E-41
    0.219691793957         0.52379403E-07      0.60921278E-23     -0.10158348E-32      0.90024017E-31     -0.15011098E-40      0.16623958E-31     -0.34465154E-41
    0.225968702356         0.56271216E-07      0.61165990E-23     -0.98325861E-33      0.94404065E-31     -0.15175690E-40      0.17216524E-31     -0.35417719E-41
    0.232245610755         0.60376060E-07      0.57935645E-23     -0.93263915E-33      0.93348164E-31     -0.15027045E-40      0.17802462E-31     -0.36360952E-41
    0.238522519154         0.64703218E-07      0.53925343E-23     -0.89179199E-33      0.90663417E-31     -0.14993490E-40      0.18371548E-31     -0.37302080E-41
    0.244799427552         0.69262300E-07      0.51862762E-23     -0.86983389E-33      0.90946256E-31     -0.15253360E-40      0.18942409E-31     -0.38259520E-41
    0.251076335951         0.74063251E-07      0.50294880E-23     -0.83629206E-33      0.91952479E-31     -0.15289653E-40      0.19519587E-31     -0.39219237E-41
    0.257353244350         0.79116352E-07      0.48807123E-23     -0.78649274E-33      0.92995619E-31     -0.14985595E-40      0.20103312E-31     -0.40159869E-41
    0.263630152749         0.84432224E-07      0.47466694E-23     -0.76051474E-33      0.94220370E-31     -0.15096055E-40      0.20694724E-31     -0.41107435E-41
    0.269907061148         0.90021830E-07      0.46190956E-23     -0.72401497E-33      0.95484574E-31     -0.14966623E-40      0.21294072E-31     -0.42046876E-41
    0.276183969546         0.95896474E-07      0.45027807E-23     -0.70231453E-33      0.96900862E-31     -0.15113968E-40      0.21902310E-31     -0.42995566E-41
    0.282460877945         0.10206781E-06      0.43878001E-23     -0.67581382E-33      0.98269783E-31     -0.15135621E-40      0.22519140E-31     -0.43945615E-41
    0.288737786344         0.10854784E-06      0.42752444E-23     -0.65367112E-33      0.99614180E-31     -0.15230688E-40      0.23144409E-31     -0.44901631E-41
    0.295014694743         0.11534890E-06      0.41678538E-23     -0.62889813E-33      0.10100083E-30     -0.15240274E-40      0.23778382E-31     -0.45858249E-41
    0.301291603141         0.12248370E-06      0.40437572E-23     -0.60950684E-33      0.10188705E-30     -0.15357217E-40      0.24417918E-31     -0.46822208E-41
    0.307568511540         0.12996528E-06      0.39281443E-23     -0.57403816E-33      0.10287636E-30     -0.15033805E-40      0.25063664E-31     -0.47765866E-41
    0.313845419939         0.13780704E-06      0.38765090E-23     -0.55251280E-33      0.10549675E-30     -0.15036288E-40      0.25725857E-31     -0.48709680E-41
    0.320122328338         0.14602273E-06      0.38463500E-23     -0.53870523E-33      0.10874166E-30     -0.15229946E-40      0.26408418E-31     -0.49665650E-41
    0.326399236737         0.15462643E-06      0.36805482E-23     -0.51179716E-33      0.10806617E-30     -0.15027099E-40      0.27086740E-31     -0.50608887E-41
    0.332676145135         0.16363259E-06      0.34903213E-23     -0.49554605E-33      0.10640357E-30     -0.15106882E-40      0.27754625E-31     -0.51557132E-41
    0.338953053534         0.17305599E-06      0.34141755E-23     -0.48476502E-33      0.10803777E-30     -0.15339847E-40      0.28432769E-31     -0.52520000E-41
    0.345229961933         0.18291177E-06      0.33544172E-23     -0.45671071E-33      0.11015213E-30     -0.14997437E-40      0.29124184E-31     -0.53461375E-41
    0.351506870332         0.19321538E-06      0.32836134E-23     -0.43989140E-33      0.11186715E-30     -0.14986355E-40      0.29826363E-31     -0.54402055E-41
    0.357783778731         0.20398262E-06      0.32156849E-23     -0.42568323E-33      0.11362887E-30     -0.15041867E-40      0.30539601E-31     -0.55346219E-41
    0.364060687129         0.21522964E-06      0.31526662E-23     -0.41564723E-33      0.11551781E-30     -0.15229858E-40      0.31264696E-31     -0.56302184E-41
    0.370337595528         0.22697289E-06      0.30921188E-23     -0.39725688E-33      0.11745595E-30     -0.15090037E-40      0.32001956E-31     -0.57249371E-41
    0.376614503927         0.23922915E-06      0.30133199E-23     -0.39158636E-33      0.11863285E-30     -0.15416554E-40      0.32746604E-31     -0.58217054E-41
    0.382891412326         0.25201552E-06      0.29379769E-23     -0.37484583E-33      0.11985129E-30     -0.15291392E-40      0.33498899E-31     -0.59176881E-41
    0.389168320724         0.26534940E-06      0.28780324E-23     -0.35881897E-33      0.12162392E-30     -0.15163474E-40      0.34262322E-31     -0.60128678E-41
    0.395445229123         0.27924851E-06      0.28177687E-23     -0.34399696E-33      0.12332540E-30     -0.15055729E-40      0.35036424E-31     -0.61073713E-41
    0.401722137522         0.29373083E-06      0.27574941E-23     -0.33251084E-33      0.12496289E-30     -0.15068578E-40      0.35820804E-31     -0.62019554E-41
    0.407999045921         0.30881467E-06      0.26990633E-23     -0.32682159E-33      0.12661773E-30     -0.15331766E-40      0.36615572E-31     -0.62981915E-41
    0.414275954320         0.32451858E-06      0.26445888E-23     -0.31725604E-33      0.12839575E-30     -0.15402897E-40      0.37421501E-31     -0.63948740E-41
    0.420552862718         0.34086139E-06      0.25894548E-23     -0.30773108E-33      0.13007931E-30     -0.15458639E-40      0.38237997E-31     -0.64919065E-41
    0.426829771117         0.35786219E-06      0.25398643E-23     -0.29749938E-33      0.13198188E-30     -0.15459301E-40      0.39066435E-31     -0.65889431E-41
    0.433106679516         0.37554031E-06      0.24868824E-23     -0.28225325E-33      0.13364712E-30     -0.15168523E-40      0.39905326E-31     -0.66841545E-41
    0.439383587915         0.39391532E-06      0.24378236E-23     -0.27212557E-33      0.13545779E-30     -0.15120671E-40      0.40755582E-31     -0.67790656E-41
    0.445660496313         0.41300701E-06      0.23757232E-23     -0.26268669E-33      0.13645574E-30     -0.15088082E-40      0.41612102E-31     -0.68737721E-41
    0.451937404712         0.43283537E-06      0.23223900E-23     -0.25705520E-33      0.13785492E-30     -0.15258559E-40      0.42477405E-31     -0.69695487E-41
    0.458214313111         0.45342059E-06      0.20379931E-23     -0.24604226E-33      0.12499078E-30     -0.15089852E-40      0.43261960E-31     -0.70642663E-41
    0.464491221510         0.47478305E-06      0.17231561E-23     -0.24058154E-33      0.10916539E-30     -0.15241323E-40      0.43947181E-31     -0.71599347E-41
    0.470768129909         0.49694328E-06      0.20069134E-23     -0.23421790E-33      0.13130192E-30     -0.15323661E-40      0.44771352E-31     -0.72561199E-41
    0.477045038307         0.51992196E-06      0.23357068E-23     -0.22287628E-33      0.15777558E-30     -0.15055158E-40      0.45761694E-31     -0.73506198E-41
    0.483321946706         0.54373993E-06      0.22825241E-23     -0.21565996E-33      0.15915224E-30     -0.15037197E-40      0.46760678E-31     -0.74450069E-41
    0.489598855105         0.56841810E-06      0.22132486E-23     -0.20938353E-33      0.15925768E-30     -0.15066511E-40      0.47760324E-31     -0.75395780E-41
    0.495875763504         0.59397753E-06      0.21602508E-23     -0.20467486E-33      0.16037770E-30     -0.15195126E-40      0.48767000E-31     -0.76349564E-41
    0.502152671902         0.62043932E-06      0.21090890E-23     -0.19826432E-33      0.16151063E-30     -0.15182762E-40      0.49780788E-31     -0.77302572E-41
    0.508429580301         0.64782466E-06      0.19963159E-23     -0.19295459E-33      0.15765169E-30     -0.15237877E-40      0.50770353E-31     -0.78259040E-41
    0.514706488700         0.67615476E-06      0.19624464E-23     -0.18905524E-33      0.15978167E-30     -0.15392809E-40      0.51773288E-31     -0.79225232E-41
    0.520983397099         0.70545086E-06      0.22005098E-23     -0.17946753E-33      0.18467533E-30     -0.15061612E-40      0.52932478E-31     -0.80170636E-41
    0.527260305498         0.73573422E-06      0.22849133E-23     -0.17478033E-33      0.19760971E-30     -0.15115799E-40      0.54172856E-31     -0.81119440E-41
    0.533537213896         0.76702604E-06      0.21751557E-23     -0.16829790E-33      0.19381100E-30     -0.14995701E-40      0.55389390E-31     -0.82060707E-41
    0.539814122295         0.79934752E-06      0.20983040E-23     -0.16712605E-33      0.19257614E-30     -0.15338335E-40      0.56598173E-31     -0.83023480E-41
    0.546091030694         0.83271978E-06      0.20626447E-23     -0.15996135E-33      0.19493999E-30     -0.15117904E-40      0.57821793E-31     -0.83972417E-41
    0.552367939093         0.86716384E-06      0.20731477E-23     -0.15585351E-33      0.20171844E-30     -0.15164635E-40      0.59087961E-31     -0.84924287E-41
    0.558644847491         0.90270064E-06      0.20404509E-23     -0.15176714E-33      0.20435101E-30     -0.15199468E-40      0.60370654E-31     -0.85878344E-41
    0.564921755890         0.93935095E-06      0.20089756E-23     -0.14737446E-33      0.20704127E-30     -0.15188136E-40      0.61670233E-31     -0.86831689E-41
    0.571198664289         0.97713540E-06      0.19841269E-23     -0.14128626E-33      0.21036800E-30     -0.14979943E-40      0.62990694E-31     -0.87771967E-41
    0.577475572688         0.10160745E-05      0.19764980E-23     -0.13756161E-33      0.21554154E-30     -0.15001402E-40      0.64343628E-31     -0.88713591E-41
    0.583752481087         0.10561883E-05      0.19362998E-23     -0.13436281E-33      0.21713404E-30     -0.15067264E-40      0.65706559E-31     -0.89659349E-41
    0.590029389485         0.10974971E-05      0.19377972E-23     -0.13002680E-33      0.22339874E-30     -0.14990126E-40      0.67108812E-31     -0.90600266E-41
    0.596306297884         0.11400204E-05      0.18741736E-23     -0.12679991E-33      0.22207297E-30     -0.15024666E-40      0.68502744E-31     -0.91543350E-41
    0.602583206283         0.11837778E-05      0.18706401E-23     -0.12739377E-33      0.22776451E-30     -0.15511150E-40      0.69932401E-31     -0.92516971E-41
    0.608860114682         0.12287883E-05      0.17214118E-23     -0.11987784E-33      0.21532131E-30     -0.14994816E-40      0.71283953E-31     -0.93458182E-41
    0.615137023081         0.12750709E-05      0.17336680E-23     -0.11656371E-33      0.22272608E-30     -0.14975057E-40      0.72681984E-31     -0.94398152E-41
    0.621413931479         0.13226439E-05      0.10676451E-23     -0.11471289E-33      0.14084179E-30     -0.15132714E-40      0.73566035E-31     -0.95348019E-41
    0.627690839878         0.13715254E-05      0.20613224E-23     -0.11090794E-33      0.27915581E-30     -0.15019774E-40      0.75318271E-31     -0.96290797E-41
    0.633967748277         0.14217330E-05      0.88638383E-23     -0.10969004E-33      0.12320133E-29     -0.15246171E-40      0.83051505E-31     -0.97247785E-41
    0.640244656676         0.14732840E-05      0.10722707E-22     -0.10677761E-33      0.15292821E-29     -0.15228719E-40      0.92650669E-31     -0.98203677E-41
    0.646521565074         0.15261949E-05      0.50889409E-23     -0.10536639E-33      0.74455549E-30     -0.15416003E-40      0.97324176E-31     -0.99171326E-41
    0.652798473473         0.15804821E-05      0.29534705E-23     -0.99523414E-34      0.44318571E-30     -0.14934077E-40      0.10010601E-30     -0.10010872E-40
    0.659075381872         0.16361611E-05      0.30716029E-23     -0.99450129E-34      0.47260543E-30     -0.15301676E-40      0.10307251E-30     -0.10106920E-40
    0.665352290271         0.16932470E-05      0.30722142E-23     -0.98084983E-34      0.48457704E-30     -0.15470839E-40      0.10611416E-30     -0.10204029E-40
    0.671629198670         0.17517545E-05      0.33062160E-23     -0.94756141E-34      0.53446291E-30     -0.15317705E-40      0.10946893E-30     -0.10300177E-40
    0.677906107068         0.18116973E-05      0.41370316E-23     -0.92910480E-34      0.68524773E-30     -0.15389463E-40      0.11377017E-30     -0.10396775E-40
    0.684183015467         0.18730887E-05      0.12408983E-22     -0.90511721E-34      0.21055469E-29     -0.15357961E-40      0.12698650E-30     -0.10493175E-40
    0.690459923866         0.19359414E-05      0.28763228E-22     -0.88287378E-34      0.49984347E-29     -0.15342461E-40      0.15836121E-30     -0.10589478E-40
    0.696736832265         0.20002671E-05      0.38827115E-22     -0.87246504E-34      0.69087110E-29     -0.15524225E-40      0.20172656E-30     -0.10686923E-40
    0.703013740663         0.20660771E-05      0.30907579E-22     -0.82919213E-34      0.56297663E-29     -0.15103603E-40      0.23706409E-30     -0.10781727E-40
    0.709290649062         0.21333816E-05      0.20583513E-22     -0.81377959E-34      0.38371298E-29     -0.15170287E-40      0.26114940E-30     -0.10876949E-40
    0.715567557461         0.22021904E-05      0.22373102E-22     -0.78990384E-34      0.42674958E-29     -0.15066804E-40      0.28793608E-30     -0.10971522E-40
    0.721844465860         0.22725123E-05      0.28050450E-22     -0.78223359E-34      0.54732479E-29     -0.15263065E-40      0.32229115E-30     -0.11067327E-40
    0.728121374259         0.23443551E-05      0.29863400E-22     -0.76786196E-34      0.59593862E-29     -0.15323058E-40      0.35969768E-30     -0.11163508E-40
    0.734398282657         0.24177260E-05      0.27252011E-22     -0.77700330E-34      0.55605360E-29     -0.15854077E-40      0.39460065E-30     -0.11263023E-40
    0.740675191056         0.24926312E-05      0.26079979E-22     -0.73554542E-34      0.54397650E-29     -0.15342015E-40      0.42874556E-30     -0.11359323E-40
    0.746952099455         0.25690760E-05      0.26138621E-22     -0.72043902E-34      0.55719799E-29     -0.15357627E-40      0.46372037E-30     -0.11455722E-40
    0.753229007854         0.26470648E-05      0.28778424E-22     -0.71505178E-34      0.62682631E-29     -0.15574629E-40      0.50306568E-30     -0.11553482E-40
    0.759505916252         0.27266009E-05      0.29067808E-22     -0.67329590E-34      0.64676331E-29     -0.14980940E-40      0.54366242E-30     -0.11647516E-40
    0.765782824651         0.28076868E-05      0.23040425E-22     -0.67951185E-34      0.52357173E-29     -0.15441260E-40      0.57652654E-30     -0.11744440E-40
