 
 # Omega; pulse ft; projected flux at t=    500.250000000000     
    0.000000000000         0.10341091E-10      0.00000000E+00      0.00000000E+00      0.13208985E-08      0.00000000E+00
    0.006276908399         0.40699280E-10      0.35136310E+00     -0.29287521E-13      0.13307942E-08     -0.11092702E-21
    0.012553816798         0.13187398E-09      0.21859521E+00     -0.47085082E-13      0.13413367E-08     -0.28892191E-21
    0.018830725196         0.28416575E-09      0.15332215E+00     -0.52136179E-13      0.13515229E-08     -0.45957638E-21
    0.025107633595         0.49807598E-09      0.11756922E+00      0.20996734E-14      0.13623769E-08      0.24330742E-22
    0.031384541994         0.77430759E-09      0.95263162E-01     -0.34544669E-13      0.13728924E-08     -0.49784318E-21
    0.037661450393         0.11137660E-08      0.80119368E-01     -0.24222525E-15      0.13840387E-08     -0.41843707E-23
    0.043938358791         0.15175606E-08      0.69140786E-01     -0.97298234E-14      0.13949232E-08     -0.19630030E-21
    0.050215267190         0.19870057E-08      0.60843957E-01      0.71201809E-14      0.14063538E-08      0.16457663E-21
    0.056492175589         0.25236231E-08      0.54326057E-01     -0.98698895E-14      0.14176146E-08     -0.25755044E-21
    0.062769083988         0.31291437E-08      0.49085586E-01     -0.11284643E-13      0.14293793E-08     -0.32861042E-21
    0.069045992387         0.38055096E-08      0.44761136E-01     -0.31995621E-15      0.14410838E-08     -0.10300984E-22
    0.075322900785         0.45548772E-08      0.41138305E-01     -0.11602909E-13      0.14531479E-08     -0.40985507E-21
    0.081599809184         0.53796196E-08      0.38049220E-01      0.13152836E-14      0.14652846E-08      0.50651888E-22
    0.087876717583         0.62823298E-08      0.35384577E-01     -0.22760578E-14      0.14776607E-08     -0.95048222E-22
    0.094153625982         0.72658239E-08      0.33058599E-01      0.19588745E-14      0.14902052E-08      0.88301530E-22
    0.100430534380         0.83331444E-08      0.31008043E-01     -0.64892542E-14      0.15029042E-08     -0.31452250E-21
    0.106707442779         0.94875639E-08      0.29188402E-01     -0.12924290E-13      0.15159474E-08     -0.67124414E-21
    0.112984351178         0.10732589E-07      0.27555474E-01     -0.16290934E-14      0.15290015E-08     -0.90395331E-22
    0.119261259577         0.12071965E-07      0.26087738E-01     -0.12363604E-13      0.15425129E-08     -0.73103379E-21
    0.125538167976         0.13509678E-07      0.24752078E-01     -0.36992767E-14      0.15559466E-08     -0.23254115E-21
    0.131815076374         0.15049961E-07      0.23539669E-01      0.22596170E-15      0.15699450E-08      0.15070197E-22
    0.138091984773         0.16697298E-07      0.22424183E-01      0.50472474E-14      0.15838285E-08      0.35648899E-21
    0.144368893172         0.18456429E-07      0.21403441E-01      0.13170952E-15      0.15983484E-08      0.98356945E-23
    0.150645801571         0.20332352E-07      0.20455168E-01     -0.28813500E-14      0.16126772E-08     -0.22716448E-21
    0.156922709970         0.22330332E-07      0.19581930E-01     -0.19852722E-14      0.16277161E-08     -0.16502253E-21
    0.163199618368         0.24455902E-07      0.18764416E-01     -0.54247682E-14      0.16425303E-08     -0.47485337E-21
    0.169476526767         0.26714868E-07      0.18007603E-01      0.39330659E-15      0.16581094E-08      0.36215001E-22
    0.175753435166         0.29113317E-07      0.17294433E-01     -0.33922201E-14      0.16734318E-08     -0.32823561E-21
    0.182030343565         0.31657619E-07      0.16631450E-01      0.17200806E-15      0.16895785E-08      0.17474190E-22
    0.188307251963         0.34354433E-07      0.16003164E-01     -0.45409829E-14      0.17054359E-08     -0.48392651E-21
    0.194584160362         0.37210710E-07      0.15417158E-01     -0.75794979E-14      0.17221802E-08     -0.84667106E-21
    0.200861068761         0.40233700E-07      0.14858979E-01     -0.30593518E-14      0.17385892E-08     -0.35796241E-21
    0.207137977160         0.43430955E-07      0.14337142E-01     -0.94588796E-14      0.17559658E-08     -0.11584923E-20
    0.213414885559         0.46810335E-07      0.13837777E-01     -0.14586726E-14      0.17729527E-08     -0.18689112E-21
    0.219691793957         0.50380010E-07      0.13370128E-01     -0.40388840E-15      0.17909926E-08     -0.54102782E-22
    0.225968702356         0.54148468E-07      0.12920739E-01      0.25148496E-14      0.18085854E-08      0.35201705E-21
    0.232245610755         0.58124513E-07      0.12499384E-01      0.52585465E-15      0.18273185E-08      0.76876098E-22
    0.238522519154         0.62317278E-07      0.12093015E-01     -0.12825316E-14      0.18455571E-08     -0.19573161E-21
    0.244799427552         0.66736218E-07      0.11711514E-01      0.18402783E-14      0.18649966E-08      0.29305458E-21
    0.251076335951         0.71391124E-07      0.11342608E-01     -0.24063777E-14      0.18839318E-08     -0.39968333E-21
    0.257353244350         0.76292116E-07      0.10995806E-01      0.70308440E-15      0.19041049E-08      0.12175065E-21
    0.263630152749         0.81449655E-07      0.10659902E-01      0.25667313E-15      0.19238056E-08      0.46322114E-22
    0.269907061148         0.86874540E-07      0.10343346E-01      0.39375974E-15      0.19447023E-08      0.74032665E-22
    0.276183969546         0.92577913E-07      0.10036710E-01     -0.12567954E-14      0.19652331E-08     -0.24608623E-21
    0.282460877945         0.98571259E-07      0.97468483E-02     -0.81435706E-15      0.19868725E-08     -0.16600481E-21
    0.288737786344         0.10486641E-06      0.94664016E-02     -0.17389561E-14      0.20083135E-08     -0.36892255E-21
    0.295014694743         0.11147554E-06      0.92002986E-02     -0.32472757E-14      0.20307276E-08     -0.71675200E-21
    0.301291603141         0.11841119E-06      0.89432790E-02     -0.12345250E-14      0.20531292E-08     -0.28341276E-21
    0.307568511540         0.12568621E-06      0.86983277E-02     -0.18712617E-15      0.20763250E-08     -0.44667753E-22
    0.313845419939         0.13331385E-06      0.84624031E-02      0.10228221E-14      0.20997471E-08      0.25378935E-21
    0.320122328338         0.14130766E-06      0.82366592E-02     -0.85874632E-15      0.21238050E-08     -0.22142591E-21
    0.326399236737         0.14968158E-06      0.80196686E-02     -0.61990178E-15      0.21482728E-08     -0.16605651E-21
    0.332676145135         0.15844985E-06      0.78114429E-02     -0.45656386E-15      0.21732778E-08     -0.12702392E-21
    0.338953053534         0.16762710E-06      0.76117865E-02     -0.19582069E-14      0.21988980E-08     -0.56568814E-21
    0.345229961933         0.17722828E-06      0.74194518E-02     -0.15447210E-15      0.22248982E-08     -0.46322114E-22
    0.351506870332         0.18726866E-06      0.72353205E-02      0.27394030E-15      0.22516603E-08      0.85251302E-22
    0.357783778731         0.19776389E-06      0.70576015E-02      0.30902778E-16      0.22787531E-08      0.99778661E-23
    0.364060687129         0.20872991E-06      0.68876323E-02     -0.10492354E-14      0.23067188E-08     -0.35139666E-21
    0.370337595528         0.22018301E-06      0.67233657E-02     -0.10777527E-14      0.23349981E-08     -0.37429923E-21
    0.376614503927         0.23213979E-06      0.65663435E-02     -0.99117852E-15      0.23642312E-08     -0.35687674E-21
    0.382891412326         0.24461718E-06      0.64144237E-02     -0.22593450E-14      0.23937720E-08     -0.84315554E-21
    0.389168320724         0.25763241E-06      0.62693978E-02     -0.10659217E-14      0.24243909E-08     -0.41219444E-21
    0.395445229123         0.27120301E-06      0.61287663E-02     -0.73765046E-15      0.24552461E-08     -0.29551027E-21
    0.401722137522         0.28534681E-06      0.59943890E-02     -0.31598652E-15      0.24871729E-08     -0.13110813E-21
    0.407999045921         0.30008192E-06      0.58643053E-02     -0.42477660E-15      0.25194808E-08     -0.18249672E-21
    0.414275954320         0.31542674E-06      0.57400409E-02     -0.15990054E-14      0.25529222E-08     -0.71116853E-21
    0.420552862718         0.33139993E-06      0.56196649E-02     -0.50316770E-16      0.25867594E-08     -0.23161057E-22
    0.426829771117         0.34802041E-06      0.55046392E-02     -0.18112099E-14      0.26217585E-08     -0.86264598E-21
    0.433106679516         0.36530735E-06      0.53932550E-02     -0.26148758E-15      0.26572247E-08     -0.12883338E-21
    0.439383587915         0.38328015E-06      0.52867864E-02     -0.18100431E-15      0.26938789E-08     -0.92230638E-22
    0.445660496313         0.40195843E-06      0.51836879E-02      0.19370316E-15      0.27310500E-08      0.10205341E-21
    0.451937404712         0.42136202E-06      0.50852214E-02      0.88471903E-16      0.27694962E-08      0.48183271E-22
    0.458214313111         0.44151098E-06      0.49893569E-02     -0.62992840E-15      0.28082207E-08     -0.35455029E-21
    0.464491221510         0.46242550E-06      0.48989194E-02     -0.33782042E-17      0.28489076E-08     -0.19645540E-23
    0.470768129909         0.48412598E-06      0.48131025E-02     -0.78953968E-15      0.28912806E-08     -0.47428468E-21
    0.477045038307         0.50663295E-06      0.47287563E-02     -0.74169016E-16      0.29335587E-08     -0.46011922E-22
    0.483321946706         0.52996708E-06      0.46470889E-02     -0.31801705E-16      0.29765088E-08     -0.20369323E-22
    0.489598855105         0.55414917E-06      0.45693085E-02      0.15607768E-15      0.30209990E-08      0.10319078E-21
    0.495875763504         0.57920011E-06      0.44942327E-02     -0.43629724E-15      0.30663739E-08     -0.29768162E-21
    0.502152671902         0.60514088E-06      0.44219953E-02     -0.56080486E-15      0.31128113E-08     -0.39477195E-21
    0.508429580301         0.63199252E-06      0.43516567E-02      0.70631285E-16      0.31597270E-08      0.51285198E-22
    0.514706488700         0.65977612E-06      0.42760171E-02     -0.76819003E-15      0.32017704E-08     -0.57520072E-21
    0.520983397099         0.68851279E-06      0.42195118E-02     -0.21309762E-15      0.32573479E-08     -0.16450554E-21
    0.527260305498         0.71822366E-06      0.41754768E-02     -0.10200738E-15      0.33224198E-08     -0.81167098E-22
    0.533537213896         0.74892983E-06      0.41180637E-02      0.41336061E-15      0.33766284E-08      0.33893726E-21
    0.539814122295         0.78065236E-06      0.40637510E-02     -0.68421868E-16      0.34328460E-08     -0.57799245E-22
    0.546091030694         0.81341227E-06      0.40057098E-02     -0.28663432E-15      0.34852903E-08     -0.24939495E-21
    0.552367939093         0.84723047E-06      0.39583960E-02      0.50662659E-16      0.35465505E-08      0.45391536E-22
    0.558644847491         0.88212778E-06      0.39116384E-02     -0.57618769E-15      0.36080139E-08     -0.53146354E-21
    0.564921755890         0.91812490E-06      0.38696615E-02     -0.33240506E-15      0.36736709E-08     -0.31556940E-21
    0.571198664289         0.95524236E-06      0.38269884E-02      0.24767720E-16      0.37384996E-08      0.24195033E-22
    0.577475572688         0.99350052E-06      0.37870757E-02      0.25721843E-15      0.38058552E-08      0.25849394E-21
    0.583752481087         0.10329195E-05      0.37516393E-02      0.20007315E-15      0.38776859E-08      0.20679515E-21
    0.590029389485         0.10735193E-05      0.37157037E-02     -0.16928153E-16      0.39490361E-08     -0.17991178E-22
    0.596306297884         0.11153196E-05      0.36861743E-02      0.58202515E-15      0.40273520E-08      0.63589510E-21
    0.602583206283         0.11583396E-05      0.36554337E-02     -0.36722549E-15      0.41046072E-08     -0.41234954E-21
    0.608860114682         0.12025986E-05      0.36325645E-02      0.20683745E-15      0.41911221E-08      0.23864161E-21
    0.615137023081         0.12481153E-05      0.36115194E-02      0.78166692E-16      0.42804220E-08      0.92644229E-22
    0.621413931479         0.12949080E-05      0.35988358E-02      0.16768174E-15      0.43806017E-08      0.20410682E-21
    0.627690839878         0.13429948E-05      0.36353719E-02      0.68997614E-16      0.45435068E-08      0.86233579E-22
    0.633967748277         0.13923932E-05      0.36898798E-02     -0.31560546E-15      0.47339182E-08     -0.40490491E-21
    0.640244656676         0.14431204E-05      0.35965982E-02      0.11779618E-16      0.47354617E-08      0.15509636E-22
    0.646521565074         0.14951931E-05      0.35067153E-02     -0.38743999E-15      0.47372747E-08     -0.52339853E-21
    0.652798473473         0.15486273E-05      0.34763649E-02      0.17997247E-15      0.48173361E-08      0.24939495E-21
    0.659075381872         0.16034389E-05      0.34745257E-02     -0.35302059E-15      0.49377222E-08     -0.50168504E-21
    0.665352290271         0.16596427E-05      0.34622064E-02     -0.35949991E-15      0.50446346E-08     -0.52381212E-21
    0.671629198670         0.17172535E-05      0.34806404E-02      0.32260986E-16      0.51984969E-08      0.48183271E-22
    0.677906107068         0.17762849E-05      0.34677158E-02     -0.65162948E-15      0.53076270E-08     -0.99737302E-21
    0.684183015467         0.18367504E-05      0.35456336E-02      0.74375140E-16      0.55601373E-08      0.11663247E-21
    0.690459923866         0.18986625E-05      0.33329470E-02     -0.46076444E-15      0.53536689E-08     -0.74011985E-21
    0.696736832265         0.19620330E-05      0.28524409E-02     -0.77943642E-17      0.46921080E-08     -0.12821299E-22
    0.703013740663         0.20268732E-05      0.31509770E-02     -0.22225030E-16      0.53066666E-08     -0.37429923E-22
    0.709290649062         0.20931935E-05      0.36373686E-02     -0.19913587E-16      0.62702702E-08     -0.34327995E-22
    0.715567557461         0.21610035E-05      0.41209734E-02     -0.13246471E-15      0.72697326E-08     -0.23367852E-21
    0.721844465860         0.22303120E-05      0.42048559E-02     -0.40538007E-15      0.75890411E-08     -0.73164125E-21
    0.728121374259         0.23011271E-05      0.41197889E-02      0.18393437E-15      0.76054618E-08      0.33955764E-21
    0.734398282657         0.23734559E-05      0.40994715E-02     -0.30715321E-15      0.77391130E-08     -0.57985361E-21
    0.740675191056         0.24473047E-05      0.41978285E-02     -0.24321601E-15      0.81021212E-08     -0.46942500E-21
    0.746952099455         0.25226788E-05      0.43675849E-02     -0.18113446E-15      0.86163705E-08     -0.35734202E-21
    0.753229007854         0.25995828E-05      0.42876596E-02     -0.22751576E-15      0.86439196E-08     -0.45867165E-21
    0.759505916252         0.26780200E-05      0.44358248E-02      0.15200917E-15      0.91363103E-08      0.31308786E-21
    0.765782824651         0.27579930E-05      0.42412699E-02     -0.28171839E-15      0.89227197E-08     -0.59267491E-21
    0.772059733050         0.28395032E-05      0.42787808E-02      0.10107049E-15      0.91923237E-08      0.21713491E-21
    0.778336641449         0.29225512E-05      0.43201353E-02     -0.26323723E-15      0.94755801E-08     -0.57737207E-21
    0.784613549848         0.30071363E-05      0.44541224E-02     -0.13042593E-15      0.99717932E-08     -0.29199476E-21
    0.790890458246         0.30932570E-05      0.44665451E-02     -0.37745305E-15      0.10204346E-07     -0.86233579E-21
    0.797167366645         0.31809104E-05      0.45165539E-02     -0.15685808E-15      0.10527444E-07     -0.36561383E-21
    0.803444275044         0.32700927E-05      0.45776516E-02     -0.70628222E-16      0.10883306E-07     -0.16791766E-21
    0.809721183443         0.33607990E-05      0.45827473E-02     -0.63493004E-15      0.11110836E-07     -0.15393831E-20
    0.815998091842         0.34530231E-05      0.46937241E-02     -0.17869708E-15      0.11602236E-07     -0.44171445E-21
    0.822275000240         0.35467578E-05      0.46622417E-02     -0.75443551E-15      0.11746894E-07     -0.19008610E-20
    0.828551908639         0.36419946E-05      0.48029237E-02     -0.41268254E-15      0.12332158E-07     -0.10596184E-20
    0.834828817038         0.37387238E-05      0.47582606E-02     -0.43445752E-15      0.12447668E-07     -0.11365462E-20
    0.841105725437         0.38369346E-05      0.49071300E-02     -0.30638668E-15      0.13076008E-07     -0.81642726E-21
    0.847382633835         0.39366149E-05      0.48813351E-02     -0.49899001E-15      0.13246337E-07     -0.13540947E-20
    0.853659542234         0.40377513E-05      0.50244053E-02     -0.31704991E-15      0.13882041E-07     -0.87598427E-21
    0.859936450633         0.41403294E-05      0.50410068E-02      0.55587842E-16      0.14177499E-07      0.15633714E-21
    0.866213359032         0.42443332E-05      0.51709303E-02     -0.32686209E-15      0.14800183E-07     -0.93554127E-21
    0.872490267431         0.43497456E-05      0.52456973E-02     -0.19911377E-15      0.15276375E-07     -0.57985361E-21
    0.878767175829         0.44565484E-05      0.53643916E-02     -0.18540858E-15      0.15891287E-07     -0.54924793E-21
    0.885044084228         0.45647219E-05      0.55080296E-02     -0.15375355E-16      0.16594321E-07     -0.46322114E-22
    0.891320992627         0.46742450E-05      0.56270175E-02     -0.19199009E-15      0.17237307E-07     -0.58812542E-21
    0.897597901026         0.47850957E-05      0.58498053E-02     -0.22605146E-15      0.18216461E-07     -0.70393070E-21
    0.903874809424         0.48972503E-05      0.59854999E-02      0.90692631E-16      0.18943414E-07      0.28703167E-21
    0.910151717823         0.50106841E-05      0.63103739E-02     -0.29631647E-15      0.20293274E-07     -0.95291207E-21
    0.916428626222         0.51253709E-05      0.64775155E-02     -0.16711053E-15      0.21161620E-07     -0.54593920E-21
    0.922705534621         0.52412834E-05      0.70055699E-02     -0.60329176E-15      0.23245120E-07     -0.20017771E-20
    0.928982443020         0.53583927E-05      0.72217683E-02     -0.36236469E-15      0.24332369E-07     -0.12209186E-20
    0.935259351418         0.54766690E-05      0.64054351E-02     -0.61810600E-15      0.21910227E-07     -0.21142736E-20
    0.941536259817         0.55960809E-05      0.71369800E-02     -0.23348860E-15      0.24778512E-07     -0.81063700E-21
    0.947813168216         0.57165958E-05      0.84925175E-02     -0.24182936E-15      0.29920235E-07     -0.85199603E-21
    0.954090076615         0.58381799E-05      0.90017182E-02     -0.33139158E-15      0.32175649E-07     -0.11845226E-20
    0.960366985013         0.59607981E-05      0.99887269E-02     -0.67075927E-16      0.36215221E-07     -0.24319110E-21
    0.966643893412         0.60844141E-05      0.10974323E-01     -0.52374184E-15      0.40350024E-07     -0.19256765E-20
    0.972920801811         0.62089900E-05      0.12373588E-01     -0.41183290E-15      0.46126758E-07     -0.15352472E-20
    0.979197710210         0.63344872E-05      0.14244924E-01     -0.92988657E-15      0.53828841E-07     -0.35138632E-20
    0.985474618609         0.64608656E-05      0.16665621E-01     -0.76720997E-15      0.63823494E-07     -0.29381455E-20
    0.991751527007         0.65880838E-05      0.21909286E-01     -0.16405723E-14      0.85015531E-07     -0.63659820E-20
    0.998028435406         0.67160994E-05      0.33183385E-01     -0.19477611E-14      0.13043937E-06     -0.76563837E-20
    1.004305343805         0.68448687E-05      0.32453986E-01     -0.29487014E-14      0.12920556E-06     -0.11739347E-19
    1.010582252204         0.69743470E-05      0.40699976E-01     -0.29186123E-14      0.16407403E-06     -0.11765817E-19
    1.016859160602         0.71044882E-05      0.91705269E-01     -0.46179000E-14      0.37426575E-06     -0.18846483E-19
