 
 # Omega; pulse ft; projected flux at t=    500.250000000000     
    0.000000000000         0.61823026E-09      0.00000000E+00      0.00000000E+00      0.15894632E-26     -0.91835496E-40
    0.006276908399         0.61747610E-09      0.27876880E-19      0.96343414E-32      0.16018887E-26      0.55361799E-39
    0.012553816798         0.61521579E-09      0.56430953E-19      0.22387631E-31      0.16154104E-26      0.64087544E-39
    0.018830725196         0.61145675E-09      0.85845053E-19      0.19172065E-31      0.16282751E-26      0.36364816E-39
    0.025107633595         0.60621417E-09      0.11643002E-18      0.14235013E-31      0.16420981E-26      0.20076683E-39
    0.031384541994         0.59951527E-09      0.14837080E-18     -0.10196873E-31      0.16555667E-26     -0.11377983E-39
    0.037661450393         0.59140524E-09      0.18202217E-18      0.13296814E-32      0.16696529E-26      0.12196902E-40
    0.043938358791         0.58195487E-09      0.21762841E-18      0.15029509E-31      0.16837394E-26      0.11627975E-39
    0.050215267190         0.57126980E-09      0.25552521E-18      0.64972750E-31      0.16980600E-26      0.43176808E-39
    0.056492175589         0.55950140E-09      0.29606711E-18      0.89655034E-31      0.17128402E-26      0.51868222E-39
    0.062769083988         0.54685933E-09      0.33945072E-18      0.97540417E-32      0.17275092E-26      0.49639597E-40
    0.069045992387         0.53362554E-09      0.38606915E-18      0.51396919E-31      0.17429183E-26      0.23203260E-39
    0.075322900785         0.52016993E-09      0.43574023E-18     -0.60610001E-31      0.17577604E-26     -0.24449856E-39
    0.081599809184         0.50696746E-09      0.48876917E-18      0.18679096E-31      0.17738159E-26      0.67789215E-40
    0.087876717583         0.49461670E-09      0.54409718E-18      0.48417262E-32      0.17888965E-26      0.15918751E-40
    0.094153625982         0.48385983E-09      0.60147279E-18     -0.37930604E-31      0.18055616E-26     -0.11386391E-39
    0.100430534380         0.47560399E-09      0.65833968E-18      0.12284459E-30      0.18211409E-26      0.33982048E-39
    0.106707442779         0.47094388E-09      0.71314420E-18      0.78428266E-31      0.18385083E-26      0.20219055E-39
    0.112984351178         0.47118573E-09      0.76129601E-18      0.31881657E-31      0.18545613E-26      0.77665566E-40
    0.119261259577         0.47787234E-09      0.79999035E-18     -0.39647860E-31      0.18724535E-26     -0.92799590E-40
    0.125538167976         0.49280933E-09      0.82381468E-18     -0.16958325E-30      0.18890631E-26     -0.38886593E-39
    0.131815076374         0.51809239E-09      0.83084904E-18      0.29579714E-31      0.19075593E-26      0.67912529E-40
    0.138091984773         0.55613556E-09      0.81822471E-18      0.21816717E-30      0.19248575E-26      0.51323397E-39
    0.144368893172         0.60970041E-09      0.78798424E-18      0.13414680E-31      0.19439012E-26      0.33093065E-40
    0.150645801571         0.68192607E-09      0.74197605E-18      0.15292297E-30      0.19619320E-26      0.40435868E-39
    0.156922709970         0.77635999E-09      0.68566887E-18      0.21894341E-30      0.19815525E-26      0.63273670E-39
    0.163199618368         0.89698941E-09      0.62305264E-18     -0.11607155E-30      0.20003534E-26     -0.37265571E-39
    0.169476526767         0.10482735E-08      0.55923071E-18     -0.24077063E-31      0.20205512E-26     -0.86992609E-40
    0.175753435166         0.12351757E-08      0.49696854E-18     -0.87438612E-32      0.20401758E-26     -0.35895661E-40
    0.182030343565         0.14631970E-08      0.43895016E-18      0.70303045E-31      0.20610476E-26      0.33010108E-39
    0.188307251963         0.17384091E-08      0.38599150E-18      0.19008950E-31      0.20815003E-26      0.10250779E-39
    0.194584160362         0.20674879E-08      0.33884080E-18      0.47395288E-32      0.21030277E-26      0.29416057E-40
    0.200861068761         0.24577476E-08      0.29721476E-18     -0.10508485E-31      0.21243481E-26     -0.75109598E-40
    0.207137977160         0.29171738E-08      0.26093903E-18     -0.70108836E-31      0.21466212E-26     -0.57675203E-39
    0.213414885559         0.34544578E-08      0.22938287E-18     -0.39581297E-31      0.21688522E-26     -0.37424758E-39
    0.219691793957         0.40790298E-08      0.20209703E-18      0.24625126E-31      0.21918800E-26      0.26707628E-39
    0.225968702356         0.48010926E-08      0.17847646E-18      0.44245518E-31      0.22150653E-26      0.54912963E-39
    0.232245610755         0.56316541E-08      0.15806300E-18      0.44383993E-31      0.22388886E-26      0.62867854E-39
    0.238522519154         0.65825603E-08      0.14038415E-18      0.22297649E-31      0.22630666E-26      0.35944987E-39
    0.244799427552         0.76665268E-08      0.12505532E-18      0.21590160E-31      0.22877272E-26      0.39496438E-39
    0.251076335951         0.88971707E-08      0.11174147E-18      0.10853215E-32      0.23129931E-26      0.22465617E-40
    0.257353244350         0.10289041E-07      0.10013515E-18     -0.76803599E-35      0.23385442E-26     -0.17936620E-42
    0.263630152749         0.11857647E-07      0.90011344E-19      0.12279881E-31      0.23649093E-26      0.32263496E-39
    0.269907061148         0.13619491E-07      0.81131315E-19      0.11689812E-31      0.23913820E-26      0.34456248E-39
    0.276183969546         0.15592091E-07      0.73349151E-19      0.15261899E-31      0.24188826E-26      0.50330157E-39
    0.282460877945         0.17794010E-07      0.66479627E-19      0.13303153E-31      0.24463462E-26      0.48953521E-39
    0.288737786344         0.20244883E-07      0.60431280E-19      0.12530574E-31      0.24750686E-26      0.51321155E-39
    0.295014694743         0.22965437E-07      0.55059286E-19      0.38646577E-32      0.25036605E-26      0.17573404E-39
    0.301291603141         0.25977515E-07      0.50303615E-19      0.19142326E-33      0.25335156E-26      0.96409334E-41
    0.307568511540         0.29304101E-07      0.46056095E-19      0.69798904E-32      0.25632292E-26      0.38846236E-39
    0.313845419939         0.32969333E-07      0.42278888E-19      0.43187687E-33      0.25943689E-26      0.26501357E-40
    0.320122328338         0.36998524E-07      0.38888467E-19      0.34764189E-32      0.26254458E-26      0.23470068E-39
    0.326399236737         0.41418179E-07      0.35857423E-19      0.78015335E-32      0.26578761E-26      0.57827664E-39
    0.332676145135         0.46256007E-07      0.33124704E-19      0.27881217E-32      0.26903717E-26      0.22644983E-39
    0.338953053534         0.51540931E-07      0.30668720E-19     -0.26907994E-32      0.27240945E-26     -0.23900547E-39
    0.345229961933         0.57303105E-07      0.28445742E-19     -0.16223955E-32      0.27580411E-26     -0.15730416E-39
    0.351506870332         0.63573913E-07      0.26438186E-19      0.22962489E-32      0.27931264E-26      0.24259279E-39
    0.357783778731         0.70385980E-07      0.24615270E-19      0.40090444E-32      0.28286807E-26      0.46070209E-39
    0.364060687129         0.77773174E-07      0.22961311E-19      0.59938633E-33      0.28652763E-26      0.74795707E-40
    0.370337595528         0.85770606E-07      0.21455060E-19      0.26668966E-32      0.29025801E-26      0.36079512E-39
    0.376614503927         0.94414629E-07      0.20081969E-19      0.10631739E-32      0.29407788E-26      0.15568986E-39
    0.382891412326         0.10374284E-06      0.18828151E-19     -0.23119290E-32      0.29799157E-26     -0.36590706E-39
    0.389168320724         0.11379405E-06      0.17680376E-19     -0.22919176E-32      0.30198639E-26     -0.39146674E-39
    0.395445229123         0.12460831E-06      0.16629014E-19     -0.13155275E-34      0.30608424E-26     -0.24214437E-41
    0.401722137522         0.13622687E-06      0.15662792E-19      0.14578595E-33      0.31025586E-26      0.28877959E-40
    0.407999045921         0.14869219E-06      0.14775878E-19     -0.82149025E-34      0.31455466E-26     -0.17488205E-40
    0.414275954320         0.16204789E-06      0.13957639E-19      0.23118436E-33      0.31891830E-26      0.52823347E-40
    0.420552862718         0.17633876E-06      0.13204810E-19      0.65615680E-33      0.32342466E-26      0.16071212E-39
    0.426829771117         0.19161071E-06      0.12507977E-19     -0.19873878E-32      0.32799403E-26     -0.52114850E-39
    0.433106679516         0.20791078E-06      0.11865534E-19     -0.47910037E-33      0.33272330E-26     -0.13434529E-39
    0.439383587915         0.22528707E-06      0.11269016E-19     -0.22158283E-33      0.33751436E-26     -0.66365495E-40
    0.445660496313         0.24378875E-06      0.10718126E-19      0.94527764E-33      0.34248548E-26      0.30205269E-39
    0.451937404712         0.26346597E-06      0.10205135E-19      0.15469794E-32      0.34751921E-26      0.52679854E-39
    0.458214313111         0.28436989E-06      0.97303552E-20      0.11555579E-32      0.35274223E-26      0.41890977E-39
    0.464491221510         0.30655259E-06      0.92879373E-20      0.21402138E-34      0.35806392E-26      0.82508454E-41
    0.470768129909         0.33006704E-06      0.88771524E-20     -0.99022131E-33      0.36356543E-26     -0.40554699E-39
    0.477045038307         0.35496707E-06      0.84922154E-20     -0.47456530E-34      0.36911652E-26     -0.20627113E-40
    0.483321946706         0.38130728E-06      0.81349859E-20      0.17592464E-33      0.37489460E-26      0.81073524E-40
    0.489598855105         0.40914305E-06      0.78002173E-20      0.48870150E-33      0.38076348E-26      0.23855705E-39
    0.495875763504         0.43853041E-06      0.74880959E-20      0.61248937E-33      0.38682277E-26      0.31640198E-39
    0.502152671902         0.46952606E-06      0.71957405E-20      0.26666064E-33      0.39301871E-26      0.14564536E-39
    0.508429580301         0.50218725E-06      0.69196148E-20      0.25927342E-33      0.39923682E-26      0.14959141E-39
    0.514706488700         0.53657174E-06      0.66667250E-20     -0.70426846E-33      0.40597051E-26     -0.42886459E-39
    0.520983397099         0.57273772E-06      0.64516360E-20     -0.18518612E-33      0.41430060E-26     -0.11891979E-39
    0.527260305498         0.61074378E-06      0.62258610E-20      0.26694532E-33      0.42125707E-26      0.18062177E-39
    0.533537213896         0.65064880E-06      0.60060491E-20      0.70300807E-33      0.42784317E-26      0.50079044E-39
    0.539814122295         0.69251188E-06      0.58029412E-20      0.74272083E-33      0.43485550E-26      0.55657333E-39
    0.546091030694         0.73639228E-06      0.56144102E-20      0.43037242E-33      0.44224418E-26      0.33900212E-39
    0.552367939093         0.78234932E-06      0.54449530E-20      0.26514352E-33      0.45048484E-26      0.21936487E-39
    0.558644847491         0.83044233E-06      0.52812049E-20     -0.35177728E-33      0.45858569E-26     -0.30546064E-39
    0.564921755890         0.88073054E-06      0.51303339E-20     -0.10241779E-34      0.46721222E-26     -0.93270426E-41
    0.571198664289         0.93327299E-06      0.49819190E-20      0.85885826E-34      0.47547970E-26      0.81970355E-40
    0.577475572688         0.98812849E-06      0.48494263E-20     -0.16078851E-33      0.48471222E-26     -0.16071212E-39
    0.583752481087         0.10453555E-05      0.47206438E-20      0.81551772E-33      0.49379910E-26      0.85306566E-39
    0.590029389485         0.11050119E-05      0.46031946E-20      0.52401084E-33      0.50357766E-26      0.57325439E-39
    0.596306297884         0.11671553E-05      0.44908183E-20      0.66689687E-33      0.51345043E-26      0.76248573E-39
    0.602583206283         0.12318424E-05      0.43883023E-20      0.18280130E-33      0.52402071E-26      0.21828867E-39
    0.608860114682         0.12991293E-05      0.42918096E-20      0.44079733E-33      0.53492033E-26      0.54939868E-39
    0.615137023081         0.13690713E-05      0.42065274E-20      0.31042388E-34      0.54687962E-26      0.40357396E-40
    0.621413931479         0.14417228E-05      0.41283804E-20      0.22340787E-33      0.55949253E-26      0.30277015E-39
    0.627690839878         0.15171371E-05      0.41062971E-20     -0.84864146E-34      0.57975326E-26     -0.11981662E-39
    0.633967748277         0.15953663E-05      0.41122533E-20     -0.14056786E-33      0.60448692E-26     -0.20662987E-39
    0.640244656676         0.16764615E-05      0.39696577E-20      0.32858470E-33      0.60717582E-26      0.50258410E-39
    0.646521565074         0.17604722E-05      0.38200161E-20     -0.16644357E-33      0.60761033E-26     -0.26474452E-39
    0.652798473473         0.18474468E-05      0.37394976E-20      0.89404880E-34      0.61818700E-26      0.14779775E-39
    0.659075381872         0.19374318E-05      0.36874325E-20     -0.20264561E-33      0.63318295E-26     -0.34797043E-39
    0.665352290271         0.20304724E-05      0.36286599E-20     -0.40911816E-33      0.64685287E-26     -0.72930298E-39
    0.671629198670         0.21266118E-05      0.35943321E-20      0.10163176E-33      0.66479947E-26      0.18797578E-39
    0.677906107068         0.22258916E-05      0.35328864E-20     -0.47301092E-33      0.67760710E-26     -0.90723426E-39
    0.684183015467         0.23283513E-05      0.35255889E-20      0.27610357E-33      0.70084451E-26      0.54886058E-39
    0.690459923866         0.24340282E-05      0.32919698E-20     -0.10016996E-33      0.67788617E-26     -0.20627113E-39
    0.696736832265         0.25429579E-05      0.30794140E-20      0.78914943E-34      0.65652653E-26      0.16824550E-39
    0.703013740663         0.26551734E-05      0.33027116E-20      0.26439198E-33      0.72864086E-26      0.58329889E-39
    0.709290649062         0.27707053E-05      0.35057533E-20      0.19730334E-33      0.79994708E-26      0.45020917E-39
    0.715567557461         0.28895822E-05      0.36714543E-20      0.30370397E-33      0.86603677E-26      0.71638862E-39
    0.721844465860         0.30118296E-05      0.35981800E-20     -0.29908439E-33      0.87696739E-26     -0.72894425E-39
    0.728121374259         0.31374707E-05      0.36015532E-20      0.14765245E-33      0.90652448E-26      0.37164677E-39
    0.734398282657         0.32665259E-05      0.35423692E-20     -0.32474290E-33      0.92036920E-26     -0.84373862E-39
    0.740675191056         0.33990128E-05      0.36100205E-20      0.29708777E-34      0.96771723E-26      0.79638594E-40
    0.746952099455         0.35349461E-05      0.36491504E-20     -0.57616880E-34      0.10087780E-25     -0.15927719E-39
    0.753229007854         0.36743374E-05      0.35986415E-20     -0.36005666E-34      0.10254261E-25     -0.10259747E-39
    0.759505916252         0.38171952E-05      0.36784177E-20      0.21530271E-33      0.10799112E-25      0.63208650E-39
    0.765782824651         0.39635250E-05      0.35480997E-20     -0.92075173E-34      0.10727181E-25     -0.27837635E-39
    0.772059733050         0.41133290E-05      0.35756019E-20      0.35710479E-33      0.11127703E-25      0.11113530E-38
    0.778336641449         0.42666060E-05      0.35621709E-20     -0.13623080E-33      0.11406269E-25     -0.43621861E-39
    0.784613549848         0.44233513E-05      0.36673662E-20     -0.71896064E-35      0.12077129E-25     -0.23676339E-40
    0.790890458246         0.45835571E-05      0.36311930E-20     -0.20218497E-33      0.12292761E-25     -0.68446143E-39
    0.797167366645         0.47472116E-05      0.36973892E-20     -0.71363119E-34      0.12861690E-25     -0.24824283E-39
    0.803444275044         0.49142998E-05      0.36972734E-20     -0.41968863E-34      0.13209952E-25     -0.14995015E-39
    0.809721183443         0.50848028E-05      0.37344658E-20     -0.28399769E-33      0.13698749E-25     -0.10417589E-38
    0.815998091842         0.52586980E-05      0.37782602E-20     -0.66896721E-34      0.14223116E-25     -0.25183015E-39
    0.822275000240         0.54359592E-05      0.37846460E-20     -0.40707092E-33      0.14614978E-25     -0.15719654E-38
    0.828551908639         0.56165561E-05      0.38676697E-20     -0.13861105E-33      0.15314879E-25     -0.54886058E-39
    0.834828817038         0.58004548E-05      0.38534362E-20     -0.31006431E-33      0.15639634E-25     -0.12584333E-38
    0.841105725437         0.59876175E-05      0.39633586E-20     -0.13371651E-33      0.16480889E-25     -0.55603523E-39
    0.847382633835         0.61780022E-05      0.39499005E-20     -0.31907904E-33      0.16821645E-25     -0.13588784E-38
    0.853659542234         0.63715632E-05      0.40738441E-20     -0.21787806E-33      0.17761494E-25     -0.94992341E-39
    0.859936450633         0.65682506E-05      0.40810540E-20      0.10548903E-33      0.18208304E-25      0.47065692E-39
    0.866213359032         0.67680107E-05      0.42087523E-20     -0.14871055E-33      0.19208937E-25     -0.67872171E-39
    0.872490267431         0.69707857E-05      0.42533078E-20     -0.50116792E-34      0.19850057E-25     -0.23389353E-39
    0.878767175829         0.71765137E-05      0.43800403E-20     -0.12332780E-33      0.20894482E-25     -0.58832115E-39
    0.885044084228         0.73851287E-05      0.44754597E-20      0.51518319E-34      0.21814467E-25      0.25111268E-39
    0.891320992627         0.75965609E-05      0.46038088E-20     -0.17870043E-33      0.22919966E-25     -0.88965637E-39
    0.897597901026         0.78107362E-05      0.47621563E-20     -0.11066052E-33      0.24206254E-25     -0.56249241E-39
    0.903874809424         0.80275766E-05      0.48994525E-20      0.25446523E-34      0.25417775E-25      0.13201353E-39
    0.910151717823         0.82470002E-05      0.51397798E-20     -0.12985842E-33      0.27204486E-25     -0.68733129E-39
    0.916428626222         0.84689209E-05      0.52889084E-20     -0.11430253E-34      0.28550208E-25     -0.61701974E-40
    0.922705534621         0.86932488E-05      0.56817961E-20     -0.39214407E-33      0.31269319E-25     -0.21581342E-38
    0.928982443020         0.89198899E-05      0.57624523E-20     -0.24969775E-33      0.32320133E-25     -0.14004913E-38
    0.935259351418         0.91487464E-05      0.53671092E-20     -0.42640762E-33      0.30667881E-25     -0.24365105E-38
    0.941536259817         0.93797169E-05      0.61804355E-20     -0.10997627E-33      0.35965455E-25     -0.63997861E-39
    0.947813168216         0.96126957E-05      0.71194723E-20     -0.25965048E-33      0.42177814E-25     -0.15382446E-38
    0.954090076615         0.98475739E-05      0.75430049E-20     -0.22609999E-33      0.45477655E-25     -0.13631831E-38
    0.960366985013         0.10084238E-04      0.83355326E-20     -0.23862233E-34      0.51127322E-25     -0.14636282E-39
    0.966643893412         0.10322573E-04      0.91702076E-20     -0.42924672E-33      0.57202423E-25     -0.26775787E-38
    0.972920801811         0.10562458E-04      0.10314215E-19     -0.30139326E-33      0.65408998E-25     -0.19113263E-38
    0.979197710210         0.10803769E-04      0.11906460E-19     -0.71513402E-33      0.76736387E-25     -0.46089940E-38
    0.985474618609         0.11046380E-04      0.13872300E-19     -0.57680385E-33      0.90831568E-25     -0.37767348E-38
    0.991751527007         0.11290161E-04      0.18317874E-19     -0.13171465E-32      0.12181089E-24     -0.87588104E-38
    0.998028435406         0.11534978E-04      0.26269160E-19     -0.14809865E-32      0.17735108E-24     -0.99985896E-38
    1.004305343805         0.11780695E-04      0.24103108E-19     -0.21930134E-32      0.16515510E-24     -0.15026583E-37
    1.010582252204         0.12027173E-04      0.31745122E-19     -0.22655258E-32      0.22069002E-24     -0.15749788E-37
    1.016859160602         0.12274269E-04      0.74649298E-19     -0.37054777E-32      0.52634969E-24     -0.26127199E-37
