
 # six columns.
 # Omega (column 1); |pulse ft|^2 (2); cross section (Mb) (3); flux (column 5)

  0.0000      0.183498E-13      0.000000E+00     -0.000000E+00      0.322892E-06     -0.135525E-19
  0.0063      0.245581E-13      0.106904E+06     -0.575707E-09      0.325920E-06     -0.175517E-20
  0.0125      0.485015E-13      0.109296E+06      0.518401E-08      0.329044E-06      0.156068E-19
  0.0188      0.105851E-12      0.758324E+05     -0.341434E-08      0.332164E-06     -0.149556E-19
  0.0251      0.221788E-12      0.487236E+05     -0.315977E-08      0.335384E-06     -0.217499E-19
  0.0314      0.429632E-12      0.317422E+05     -0.181450E-08      0.338599E-06     -0.193556E-19
  0.0376      0.768987E-12      0.214897E+05     -0.155646E-08      0.341918E-06     -0.247645E-19
  0.0439      0.128348E-11      0.151670E+05     -0.390691E-09      0.345235E-06     -0.889302E-20
  0.0502      0.201818E-11      0.111328E+05     -0.470060E-09      0.348658E-06     -0.147213E-19
  0.0565      0.301674E-11      0.846100E+04      0.335050E-09      0.352080E-06      0.139421E-19
  0.0627      0.431848E-11      0.663318E+04     -0.359178E-09      0.355612E-06     -0.192559E-19
  0.0690      0.595542E-11      0.534347E+04     -0.330311E-09      0.359142E-06     -0.222007E-19
  0.0753      0.794944E-11      0.441137E+04     -0.662234E-10      0.362788E-06     -0.544616E-20
  0.0816      0.103097E-10      0.372193E+04     -0.356239E-09      0.366432E-06     -0.350725E-19
  0.0878      0.130303E-10      0.320392E+04     -0.584603E-10      0.370195E-06     -0.675476E-20
  0.0941      0.160887E-10      0.280847E+04     -0.805602E-10      0.373958E-06     -0.107269E-19
  0.1004      0.194445E-10      0.250446E+04     -0.133286E-09      0.377845E-06     -0.201088E-19
  0.1067      0.230388E-10      0.226895E+04     -0.108549E-09      0.381733E-06     -0.182625E-19
  0.1129      0.267948E-10      0.208739E+04      0.223151E-09      0.385749E-06      0.412383E-19
  0.1192      0.306186E-10      0.194827E+04     -0.470282E-10      0.389768E-06     -0.940835E-20
  0.1255      0.344014E-10      0.184475E+04     -0.572074E-10      0.393919E-06     -0.122158E-19
  0.1317      0.380221E-10      0.177102E+04     -0.460896E-10      0.398074E-06     -0.103596E-19
  0.1380      0.413513E-10      0.172438E+04     -0.428230E-11      0.402368E-06     -0.999234E-21
  0.1443      0.442556E-10      0.170245E+04     -0.307226E-10      0.406665E-06     -0.733875E-20
  0.1506      0.466028E-10      0.170542E+04     -0.525696E-11      0.411107E-06     -0.126724E-20
  0.1568      0.482681E-10      0.173374E+04     -0.536713E-10      0.415555E-06     -0.128643E-19
  0.1631      0.491401E-10      0.179069E+04     -0.220284E-09      0.420152E-06     -0.516856E-19
  0.1694      0.491274E-10      0.188043E+04     -0.728149E-10      0.424758E-06     -0.164477E-19
  0.1757      0.481660E-10      0.201129E+04     -0.334043E-10      0.429518E-06     -0.713361E-20
  0.1819      0.462254E-10      0.219468E+04     -0.258502E-10      0.434288E-06     -0.511528E-20
  0.1882      0.433154E-10      0.245040E+04      0.998649E-11      0.439219E-06      0.179002E-20
  0.1945      0.394919E-10      0.280848E+04     -0.621365E-10      0.444162E-06     -0.982691E-20
  0.2008      0.348617E-10      0.332191E+04     -0.188548E-09      0.449273E-06     -0.255003E-19
  0.2070      0.295871E-10      0.408248E+04     -0.266679E-09      0.454398E-06     -0.296825E-19
  0.2133      0.238877E-10      0.527051E+04     -0.243922E-09      0.459698E-06     -0.212751E-19
  0.2196      0.180423E-10      0.726637E+04     -0.375516E-09      0.465013E-06     -0.240313E-19
  0.2259      0.123876E-10      0.110144E+05     -0.158938E-09      0.470512E-06     -0.678950E-20
  0.2321      0.731587E-11      0.193930E+05     -0.860394E-09      0.476029E-06     -0.211196E-19
  0.2384      0.326987E-11      0.450961E+05     -0.558141E-09      0.481737E-06     -0.596232E-20
  0.2447      0.736039E-12      0.208058E+06     -0.750591E-08      0.487466E-06     -0.175859E-19
  0.2510      0.234946E-12      0.676648E+06     -0.676924E-07      0.493394E-06     -0.493595E-19
  0.2572      0.230973E-11      0.714005E+05     -0.153381E-08      0.499346E-06     -0.107269E-19
  0.2635      0.751222E-11      0.227659E+05     -0.700947E-09      0.505507E-06     -0.155642E-19
  0.2698      0.163870E-10      0.108157E+05      0.268557E-10      0.511695E-06      0.127055E-20
  0.2760      0.294538E-10      0.623451E+04     -0.138796E-09      0.518100E-06     -0.115342E-19
  0.2823      0.471878E-10      0.402935E+04     -0.694892E-10      0.524537E-06     -0.904605E-20
  0.2886      0.700000E-10      0.281187E+04     -0.317011E-10      0.531201E-06     -0.598879E-20
  0.2949      0.982154E-10      0.207347E+04     -0.115298E-10      0.537902E-06     -0.299109E-20
  0.3011      0.132052E-09      0.159529E+04     -0.252662E-10      0.544839E-06     -0.862915E-20
  0.3074      0.171602E-09      0.126925E+04     -0.281283E-10      0.551819E-06     -0.122290E-19
  0.3137      0.216807E-09      0.103853E+04     -0.321097E-10      0.559045E-06     -0.172848E-19
  0.3200      0.267450E-09      0.869894E+03     -0.256862E-10      0.566320E-06     -0.167223E-19
  0.3262      0.323129E-09      0.743882E+03     -0.667380E-11      0.573853E-06     -0.514837E-20
  0.3325      0.383258E-09      0.647689E+03     -0.783583E-11      0.581440E-06     -0.703434E-20
  0.3388      0.447050E-09      0.573389E+03     -0.139271E-10      0.589299E-06     -0.143135E-19
  0.3451      0.513522E-09      0.515244E+03     -0.154261E-10      0.597218E-06     -0.178803E-19
  0.3513      0.581498E-09      0.469649E+03     -0.202975E-10      0.605421E-06     -0.261654E-19
  0.3576      0.649619E-09      0.433755E+03     -0.458362E-12      0.613695E-06     -0.648510E-21
  0.3639      0.716361E-09      0.405833E+03      0.693983E-11      0.622265E-06      0.106409E-19
  0.3702      0.780065E-09      0.384386E+03     -0.543876E-11      0.630914E-06     -0.892693E-20
  0.3764      0.838966E-09      0.368619E+03     -0.261516E-11      0.639875E-06     -0.453957E-20
  0.3827      0.891241E-09      0.357772E+03      0.321058E-12      0.648926E-06      0.582335E-21
  0.3890      0.935056E-09      0.351606E+03      0.200120E-10      0.658302E-06      0.374680E-19
  0.3952      0.968624E-09      0.349862E+03     -0.685769E-11      0.667783E-06     -0.130893E-19
  0.4015      0.990278E-09      0.352756E+03      0.699335E-11      0.677603E-06      0.134334E-19
  0.4078      0.998537E-09      0.360516E+03     -0.791135E-12      0.687542E-06     -0.150878E-20
  0.4141      0.992186E-09      0.373922E+03     -0.143890E-10      0.697836E-06     -0.268536E-19
  0.4203      0.970361E-09      0.393927E+03     -0.484356E-11      0.708268E-06     -0.870856E-20
  0.4266      0.932633E-09      0.422323E+03      0.706576E-11      0.719069E-06      0.120305E-19
  0.4329      0.879094E-09      0.461563E+03      0.905394E-11      0.730031E-06      0.143202E-19
  0.4392      0.810440E-09      0.515812E+03     -0.744021E-11      0.741375E-06     -0.106938E-19
  0.4454      0.728052E-09      0.591444E+03     -0.135364E-10      0.752907E-06     -0.172318E-19
  0.4517      0.634067E-09      0.699587E+03      0.198777E-10      0.764836E-06      0.217317E-19
  0.4580      0.531441E-09      0.859717E+03      0.185102E-10      0.776983E-06      0.167289E-19
  0.4643      0.423997E-09      0.111001E+04     -0.351664E-11      0.789552E-06     -0.250139E-20
  0.4705      0.316455E-09      0.153183E+04      0.257718E-11      0.802392E-06      0.134996E-20
  0.4768      0.214450E-09      0.232835E+04      0.359684E-10      0.815615E-06      0.125996E-19
  0.4831      0.124512E-09      0.413047E+04      0.660607E-10      0.829171E-06      0.132614E-19
  0.4894      0.540328E-10      0.980411E+04      0.122657E-09      0.843129E-06      0.105482E-19
  0.4956      0.111953E-10      0.487419E+05      0.124880E-09      0.857505E-06      0.219699E-20
  0.5019      0.487533E-11      0.115291E+06      0.135402E-08      0.872232E-06      0.102438E-19
  0.5082      0.445050E-10      0.130110E+05      0.124374E-09      0.887480E-06      0.848356E-20
  0.5144      0.139903E-09      0.426154E+04     -0.637983E-10      0.902617E-06     -0.135128E-19
  0.5207      0.301067E-09      0.204376E+04     -0.112861E-10      0.920319E-06     -0.508220E-20
  0.5270      0.537928E-09      0.118188E+04      0.805744E-11      0.939600E-06      0.640569E-20
  0.5333      0.860073E-09      0.768859E+03      0.116108E-10      0.965800E-06      0.145848E-19
  0.5395      0.127643E-08      0.530004E+03      0.314898E-10      0.976563E-06      0.580218E-19
  0.5458      0.179491E-08      0.376536E+03     -0.713103E-12      0.964393E-06     -0.182641E-20
  0.5521      0.242207E-08      0.287159E+03     -0.319168E-11      0.981182E-06     -0.109055E-19
  0.5584      0.316268E-08      0.231736E+03      0.775217E-11      0.102231E-05      0.341990E-19
  0.5646      0.401936E-08      0.192700E+03      0.212935E-11      0.106836E-05      0.118055E-19
  0.5709      0.499214E-08      0.164482E+03     -0.217655E-11      0.112018E-05     -0.148231E-19
  0.5772      0.607809E-08      0.142594E+03      0.493786E-11      0.116951E-05      0.404988E-19
  0.5835      0.727091E-08      0.125292E+03      0.211632E-11      0.121606E-05      0.205405E-19
  0.5897      0.856065E-08      0.110109E+03      0.576650E-11      0.124488E-05      0.651951E-19
  0.5960      0.993334E-08      0.976926E+02      0.182506E-11      0.126811E-05      0.236905E-19
  0.6023      0.113708E-07      0.877595E+02     -0.142211E-12      0.129044E-05     -0.209111E-20
  0.6086      0.128506E-07      0.790140E+02      0.259280E-11      0.129951E-05      0.426428E-19
  0.6148      0.143459E-07      0.740182E+02      0.158472E-11      0.134513E-05      0.287991E-19
  0.6211      0.158256E-07      0.700732E+02      0.106706E-13      0.139060E-05      0.211758E-21
  0.6274      0.172547E-07      0.806568E+02      0.342789E-11      0.172771E-05      0.734272E-19
  0.6337      0.185944E-07      0.100078E+03      0.138283E-11      0.228730E-05      0.316049E-19
  0.6399      0.198035E-07      0.905296E+02      0.395355E-13      0.218200E-05      0.952912E-21
  0.6462      0.208383E-07      0.659934E+02      0.201928E-11      0.165748E-05      0.507161E-19
  0.6525      0.216545E-07      0.573585E+02      0.794644E-12      0.148265E-05      0.205405E-19
  0.6587      0.222084E-07      0.583178E+02      0.286701E-11      0.153127E-05      0.752801E-19
  0.6650      0.224582E-07      0.615329E+02      0.167058E-11      0.161845E-05      0.439398E-19
  0.6713      0.223666E-07      0.663862E+02      0.261126E-12      0.172273E-05      0.677626E-20
  0.6776      0.219030E-07      0.704877E+02      0.308676E-11      0.177467E-05      0.777153E-19
  0.6838      0.210461E-07      0.782368E+02      0.145986E-11      0.187534E-05      0.349930E-19
  0.6901      0.197871E-07      0.938179E+02     -0.184910E-12      0.209508E-05     -0.412929E-20
  0.6964      0.181332E-07      0.105132E+03      0.372503E-11      0.213212E-05      0.755448E-19
  0.7027      0.161114E-07      0.116837E+03      0.147629E-11      0.208650E-05      0.263639E-19
  0.7089      0.137728E-07      0.143488E+03     -0.247711E-11      0.217112E-05     -0.374812E-19
  0.7152      0.111976E-07      0.185619E+03      0.641234E-11      0.226343E-05      0.781917E-19
  0.7215      0.849960E-08      0.243220E+03      0.223866E-11      0.223164E-05      0.205405E-19
  0.7278      0.583195E-08      0.349260E+03      0.159463E-10      0.217986E-05      0.995264E-19
  0.7340      0.339288E-08      0.608188E+03      0.121319E-10      0.218949E-05      0.436751E-19
  0.7403      0.143171E-08      0.145749E+04     -0.439333E-11      0.219534E-05     -0.661744E-20
  0.7466      0.255274E-09      0.840099E+04      0.270555E-09      0.223725E-05      0.720507E-19
  0.7529      0.234472E-09      0.969223E+04      0.168049E-09      0.235103E-05      0.407635E-19
  0.7591      0.181107E-08      0.135385E+04      0.341891E-12      0.251562E-05      0.635275E-21
  0.7654      0.550462E-08      0.487344E+03      0.143470E-10      0.272978E-05      0.803623E-19
  0.7717      0.119194E-07      0.256859E+03      0.335321E-11      0.309007E-05      0.403399E-19
  0.7779      0.217515E-07      0.167061E+03      0.766744E-11      0.363803E-05      0.166971E-18
  0.7842      0.357955E-07      0.123607E+03      0.376457E-11      0.439425E-05      0.133831E-18
  0.7905      0.549514E-07      0.995270E+02      0.136109E-11      0.538856E-05      0.736919E-19
  0.7968      0.802307E-07      0.859965E+02      0.415815E-11      0.674437E-05      0.326108E-18
  0.8030      0.112763E-06      0.775157E+02      0.205629E-11      0.847753E-05      0.224887E-18
  0.8093      0.153801E-06      0.716422E+02      0.457823E-12      0.106038E-04      0.677626E-19
  0.8156      0.204726E-06      0.674592E+02      0.288334E-11      0.131885E-04      0.563700E-18
  0.8219      0.267051E-06      0.639747E+02      0.146598E-11      0.161903E-04      0.371000E-18
  0.8281      0.342427E-06      0.614589E+02      0.113097E-12      0.197926E-04      0.364224E-19
  0.8344      0.432643E-06      0.587884E+02      0.228416E-11      0.237407E-04      0.922419E-18
  0.8407      0.539627E-06      0.565042E+02      0.101827E-11      0.282484E-04      0.509067E-18
  0.8470      0.665449E-06      0.537807E+02      0.290265E-11      0.329103E-04      0.177623E-17
  0.8532      0.812319E-06      0.513389E+02      0.169978E-11      0.380678E-04      0.126039E-17
  0.8595      0.982584E-06      0.486464E+02      0.633581E-12      0.433135E-04      0.564124E-18
  0.8658      0.117872E-05      0.461548E+02      0.224785E-11      0.489411E-04      0.238355E-17
  0.8721      0.140335E-05      0.435678E+02      0.122862E-11      0.546060E-04      0.153991E-17
  0.8783      0.165920E-05      0.410371E+02      0.310886E-12      0.603768E-04      0.457398E-18
  0.8846      0.194910E-05      0.386130E+02      0.170681E-11      0.662632E-04      0.292904E-17
  0.8909      0.227602E-05      0.361579E+02      0.836045E-12      0.719474E-04      0.166357E-17
  0.8971      0.264300E-05      0.340155E+02      0.201562E-11      0.780479E-04      0.462480E-17
  0.9034      0.305314E-05      0.317270E+02      0.122801E-11      0.835096E-04      0.323228E-17
  0.9097      0.350963E-05      0.298281E+02      0.542361E-12      0.896278E-04      0.162969E-17
  0.9160      0.401569E-05      0.274085E+02      0.148344E-11      0.935872E-04      0.506526E-17
  0.9222      0.457457E-05      0.255304E+02      0.859468E-12      0.986312E-04      0.332037E-17
  0.9285      0.518953E-05      0.225164E+02      0.295770E-12      0.980140E-04      0.128749E-17
  0.9348      0.586379E-05      0.256416E+02      0.126494E-11      0.125274E-03      0.617995E-17
  0.9411      0.660056E-05      0.322801E+02      0.922890E-12      0.176339E-03      0.504154E-17
  0.9473      0.740296E-05      0.301760E+02      0.241601E-12      0.183659E-03      0.147045E-17
  0.9536      0.827401E-05      0.269127E+02      0.118626E-11      0.181867E-03      0.801632E-17
  0.9599      0.921663E-05      0.257075E+02      0.604382E-12      0.192249E-03      0.451977E-17
  0.9662      0.102336E-04      0.245241E+02      0.146129E-11      0.202313E-03      0.120550E-16
  0.9724      0.113274E-04      0.238603E+02      0.928407E-12      0.216470E-03      0.842290E-17
  0.9787      0.125005E-04      0.232182E+02      0.427101E-12      0.230970E-03      0.424872E-17
  0.9850      0.137550E-04      0.228775E+02      0.124979E-11      0.248825E-03      0.135932E-16
  0.9913      0.150928E-04      0.226191E+02      0.769130E-12      0.268233E-03      0.912085E-17
  0.9975      0.165153E-04      0.232009E+02      0.306895E-12      0.299170E-03      0.395734E-17
  1.0038      0.180239E-04      0.229362E+02      0.113579E-11      0.320755E-03      0.158836E-16
  1.0101      0.196193E-04      0.219542E+02      0.633372E-12      0.332122E-03      0.958164E-17
  1.0164      0.213020E-04      0.219929E+02      0.181817E-12      0.359014E-03      0.296800E-17
  1.0226      0.230722E-04      0.220510E+02      0.979489E-12      0.387482E-03      0.172117E-16
  1.0289      0.249293E-04      0.217846E+02      0.517804E-12      0.411093E-03      0.977137E-17
  1.0352      0.268726E-04      0.220319E+02      0.690412E-13      0.445453E-03      0.139591E-17
  1.0414      0.289007E-04      0.225571E+02     -0.396290E-12      0.487536E-03     -0.856520E-17
  1.0477      0.310118E-04      0.226357E+02      0.171190E-11      0.521828E-03      0.394650E-16
  1.0540      0.332035E-04      0.225752E+02      0.123949E-11      0.553899E-03      0.304119E-16
  1.0603      0.354730E-04      0.225416E+02      0.771826E-12      0.587379E-03      0.201120E-16
  1.0665      0.378168E-04      0.223977E+02      0.303284E-12      0.618532E-03      0.837546E-17
  1.0728      0.402310E-04      0.222874E+02     -0.156837E-12      0.650951E-03     -0.458075E-17
  1.0791      0.427110E-04      0.222209E+02      0.191062E-11      0.685009E-03      0.588993E-16
  1.0854      0.452519E-04      0.220852E+02      0.144405E-11      0.717160E-03      0.468917E-16
  1.0916      0.478480E-04      0.219476E+02      0.978984E-12      0.749246E-03      0.334205E-16
  1.0979      0.504932E-04      0.218289E+02      0.525917E-12      0.781899E-03      0.188380E-16
  1.1042      0.531809E-04      0.216972E+02      0.729802E-13      0.813899E-03      0.273761E-17
  1.1105      0.559040E-04      0.215419E+02     -0.371220E-12      0.844652E-03     -0.145554E-16
  1.1167      0.586550E-04      0.213530E+02      0.161737E-11      0.873509E-03      0.661634E-16
  1.1230      0.614257E-04      0.211929E+02      0.116752E-11      0.902840E-03      0.497378E-16
  1.1293      0.642079E-04      0.210136E+02      0.724707E-12      0.930551E-03      0.320924E-16
  1.1356      0.669926E-04      0.208241E+02      0.289051E-12      0.956839E-03      0.132815E-16
  1.1418      0.697709E-04      0.206099E+02     -0.142385E-12      0.980847E-03     -0.677626E-17
  1.1481      0.725332E-04      0.203879E+02      0.175834E-11      0.100319E-02      0.865193E-16
  1.1544      0.752700E-04      0.201491E+02      0.132259E-11      0.102325E-02      0.671663E-16
  1.1606      0.779713E-04      0.199041E+02      0.894138E-12      0.104143E-02      0.467833E-16
  1.1669      0.806272E-04      0.196456E+02      0.475477E-12      0.105720E-02      0.255872E-16
  1.1732      0.832277E-04      0.193776E+02      0.686797E-13      0.107066E-02      0.379471E-17
  1.1795      0.857627E-04      0.190972E+02      0.184458E-11      0.108152E-02      0.104463E-15
  1.1857      0.882220E-04      0.188111E+02      0.142757E-11      0.109007E-02      0.827246E-16
  1.1920      0.905958E-04      0.185252E+02      0.102570E-11      0.109658E-02      0.607153E-16
  1.1983      0.928742E-04      0.182582E+02      0.634015E-12      0.110216E-02      0.382723E-16
  1.2046      0.950476E-04      0.180458E+02      0.250516E-12      0.110902E-02      0.153957E-16
  1.2108      0.971068E-04      0.179730E+02     -0.120637E-12      0.112263E-02     -0.753521E-17
  1.2171      0.990428E-04      0.182498E+02      0.157638E-11      0.115665E-02      0.999092E-16
  1.2234      0.100847E-03      0.193040E+02      0.127161E-11      0.123936E-02      0.816404E-16
  1.2297      0.102511E-03      0.216792E+02      0.978519E-12      0.140761E-02      0.635342E-16
  1.2359      0.104028E-03      0.244913E+02      0.595397E-12      0.160553E-02      0.390313E-16
  1.2422      0.105390E-03      0.256119E+02      0.968067E-13      0.169238E-02      0.639679E-17
  1.2485      0.106591E-03      0.246602E+02      0.238868E-11      0.163978E-02      0.158836E-15
  1.2548      0.107625E-03      0.230453E+02      0.175522E-11      0.153953E-02      0.117256E-15
