 
 # Omega; pulse ft; projected flux at t=    500.250000000000     
    0.000000000000         0.61823026E-09      0.00000000E+00      0.00000000E+00      0.94269197E-22      0.15046328E-34
    0.006276908399         0.61747610E-09      0.16633305E-14      0.26593674E-27      0.95579929E-22      0.15281518E-34
    0.012553816798         0.61521579E-09      0.33828955E-14      0.50645305E-27      0.96839841E-22      0.14497886E-34
    0.018830725196         0.61145675E-09      0.51775895E-14      0.45463584E-27      0.98206473E-22      0.86233531E-35
    0.025107633595         0.60621417E-09      0.70571270E-14      0.11401386E-26      0.99531841E-22      0.16080212E-34
    0.031384541994         0.59951527E-09      0.90473731E-14     -0.73858144E-28      0.10095335E-21     -0.82413174E-36
    0.037661450393         0.59140524E-09      0.11158084E-13      0.61600104E-27      0.10235087E-21      0.56504544E-35
    0.043938358791         0.58195487E-09      0.13420257E-13      0.29015542E-26      0.10382934E-21      0.22448636E-34
    0.050215267190         0.57126980E-09      0.15846623E-13      0.30418858E-26      0.10530670E-21      0.20214462E-34
    0.056492175589         0.55950140E-09      0.18468629E-13      0.25322695E-26      0.10684676E-21      0.14649966E-34
    0.062769083988         0.54685933E-09      0.21302013E-13      0.29854339E-26      0.10840874E-21      0.15193264E-34
    0.069045992387         0.53362554E-09      0.24367829E-13      0.40959495E-26      0.11000914E-21      0.18491261E-34
    0.075322900785         0.52016993E-09      0.27681200E-13      0.54200274E-27      0.11166496E-21      0.21864195E-35
    0.081599809184         0.50696746E-09      0.31228239E-13      0.23189475E-26      0.11333192E-21      0.84158049E-35
    0.087876717583         0.49461670E-09      0.35004143E-13      0.49701060E-26      0.11508751E-21      0.16340841E-34
    0.094153625982         0.48385983E-09      0.38915380E-13      0.62592152E-26      0.11682011E-21      0.18789543E-34
    0.100430534380         0.47560399E-09      0.42902522E-13      0.52533137E-26      0.11867967E-21      0.14532049E-34
    0.106707442779         0.47094388E-09      0.46740830E-13      0.65057775E-26      0.12049934E-21      0.16772100E-34
    0.112984351178         0.47118573E-09      0.50270497E-13      0.10446378E-25      0.12246185E-21      0.25447983E-34
    0.119261259577         0.47787234E-09      0.53137942E-13      0.17935542E-26      0.12437441E-21      0.41979842E-35
    0.125538167976         0.49280933E-09      0.55141827E-13      0.77381426E-26      0.12644396E-21      0.17744087E-34
    0.131815076374         0.51809239E-09      0.55952435E-13      0.12671844E-26      0.12846207E-21      0.29093485E-35
    0.138091984773         0.55613556E-09      0.55535405E-13      0.78612624E-26      0.13064595E-21      0.18493465E-34
    0.144368893172         0.60970041E-09      0.53823767E-13      0.48722235E-27      0.13277942E-21      0.12019430E-35
    0.150645801571         0.68192607E-09      0.51084649E-13      0.10185890E-26      0.13507795E-21      0.26933514E-35
    0.156922709970         0.77635999E-09      0.47523333E-13      0.51952364E-26      0.13734031E-21      0.15014002E-34
    0.163199618368         0.89698941E-09      0.43531342E-13     -0.74187646E-27      0.13976037E-21     -0.23818454E-35
    0.169476526767         0.10482735E-08      0.39347489E-13      0.45153567E-26      0.14216604E-21      0.16314392E-34
    0.175753435166         0.12351757E-08      0.35252240E-13     -0.90089685E-27      0.14471895E-21     -0.36983991E-35
    0.182030343565         0.14631970E-08      0.31366562E-13     -0.25535709E-27      0.14727863E-21     -0.11990042E-35
    0.188307251963         0.17384091E-08      0.27810485E-13     -0.23912690E-26      0.14997100E-21     -0.12895173E-34
    0.194584160362         0.20674879E-08      0.24602757E-13     -0.31771212E-27      0.15269790E-21     -0.19718918E-35
    0.200861068761         0.24577476E-08      0.21762042E-13      0.25096882E-26      0.15554461E-21      0.17938044E-34
    0.207137977160         0.29171738E-08      0.19261069E-13     -0.24559351E-26      0.15845165E-21     -0.20203809E-34
    0.213414885559         0.34544578E-08      0.17077517E-13      0.12385681E-26      0.16147069E-21      0.11710862E-34
    0.219691793957         0.40790298E-08      0.15173485E-13      0.11057840E-26      0.16456678E-21      0.11992981E-34
    0.225968702356         0.48010926E-08      0.13518139E-13     -0.11697200E-27      0.16777317E-21     -0.14517355E-35
    0.232245610755         0.56316541E-08      0.12077910E-13      0.42863597E-27      0.17107796E-21      0.60714283E-35
    0.238522519154         0.65825603E-08      0.10824070E-13      0.83565286E-27      0.17448972E-21      0.13471165E-34
    0.244799427552         0.76665268E-08      0.97311227E-14      0.58425413E-27      0.17801845E-21      0.10688182E-34
    0.251076335951         0.88971707E-08      0.87754327E-14     -0.45459216E-27      0.18164711E-21     -0.94098323E-35
    0.257353244350         0.10289041E-07      0.79398959E-14      0.96339289E-27      0.18542738E-21      0.22498962E-34
    0.263630152749         0.11857647E-07      0.72053733E-14      0.28891342E-27      0.18931008E-21      0.75907548E-35
    0.269907061148         0.13619491E-07      0.65597378E-14      0.30139654E-27      0.19335122E-21      0.88837986E-35
    0.276183969546         0.15592091E-07      0.59891554E-14     -0.45982286E-28      0.19750827E-21     -0.15163877E-35
    0.282460877945         0.17794010E-07      0.54850049E-14     -0.18687322E-28      0.20183959E-21     -0.68766420E-36
    0.288737786344         0.20244883E-07      0.50370365E-14      0.88958353E-27      0.20630063E-21      0.36434447E-34
    0.295014694743         0.22965437E-07      0.46392470E-14     -0.20641945E-27      0.21095623E-21     -0.93863224E-35
    0.301291603141         0.25977515E-07      0.42837050E-14      0.89239527E-27      0.21574659E-21      0.44945027E-34
    0.307568511540         0.29304101E-07      0.39665269E-14     -0.17984769E-27      0.22075510E-21     -0.10009334E-34
    0.313845419939         0.32969333E-07      0.36815633E-14     -0.34490978E-27      0.22591259E-21     -0.21164776E-34
    0.320122328338         0.36998524E-07      0.34262246E-14     -0.17759817E-27      0.23131195E-21     -0.11990042E-34
    0.326399236737         0.41418179E-07      0.31957624E-14     -0.15319409E-27      0.23688096E-21     -0.11355275E-34
    0.332676145135         0.46256007E-07      0.29884017E-14      0.17939354E-27      0.24271647E-21      0.14570252E-34
    0.338953053534         0.51540931E-07      0.28003977E-14     -0.28188608E-27      0.24874034E-21     -0.25038030E-34
    0.345229961933         0.57303105E-07      0.26305797E-14      0.37704871E-28      0.25505564E-21      0.36557874E-35
    0.351506870332         0.63573913E-07      0.24760835E-14      0.17301829E-27      0.26159186E-21      0.18278937E-34
    0.357783778731         0.70385980E-07      0.23360118E-14      0.46338229E-28      0.26844440E-21      0.53249894E-35
    0.364060687129         0.77773174E-07      0.22082019E-14      0.26069838E-27      0.27555521E-21      0.32531806E-34
    0.370337595528         0.85770606E-07      0.20919533E-14     -0.74290312E-29      0.28301305E-21     -0.10050477E-35
    0.376614503927         0.94414629E-07      0.19855581E-14      0.18510741E-27      0.29076267E-21      0.27106900E-34
    0.382891412326         0.10374284E-06      0.18885634E-14      0.12551943E-28      0.29890133E-21      0.19865855E-35
    0.389168320724         0.11379405E-06      0.17996038E-14      0.28017268E-27      0.30737800E-21      0.47854375E-34
    0.395445229123         0.12460831E-06      0.17183125E-14     -0.72228516E-28      0.31628355E-21     -0.13294841E-34
    0.401722137522         0.13622687E-06      0.16436520E-14      0.46762308E-28      0.32558224E-21      0.92628955E-35
    0.407999045921         0.14869219E-06      0.15752599E-14     -0.92213435E-29      0.33534748E-21     -0.19630756E-35
    0.414275954320         0.16204789E-06      0.15125245E-14     -0.10510453E-27      0.34559693E-21     -0.24015350E-34
    0.420552862718         0.17633876E-06      0.14549595E-14      0.10054572E-27      0.35636242E-21      0.24626607E-34
    0.426829771117         0.19161071E-06      0.14021352E-14      0.41241029E-28      0.36767897E-21      0.10814548E-34
    0.433106679516         0.20791078E-06      0.13536805E-14      0.33536258E-28      0.37958768E-21      0.94039548E-35
    0.439383587915         0.22528707E-06      0.13092755E-14     -0.25628753E-28      0.39213652E-21     -0.76759781E-35
    0.445660496313         0.24378875E-06      0.12686119E-14      0.95278957E-29      0.40537045E-21      0.30445304E-35
    0.451937404712         0.26346597E-06      0.12314540E-14      0.41768211E-29      0.41935152E-21      0.14223482E-35
    0.458214313111         0.28436989E-06      0.11975464E-14     -0.79475835E-28      0.43413132E-21     -0.28811367E-34
    0.464491221510         0.30655259E-06      0.11667169E-14      0.25399447E-28      0.44978686E-21      0.97918679E-35
    0.470768129909         0.33006704E-06      0.11384356E-14      0.30883315E-28      0.46624842E-21      0.12648319E-34
    0.477045038307         0.35496707E-06      0.11131091E-14     -0.12764978E-28      0.48381599E-21     -0.55483333E-35
    0.483321946706         0.38130728E-06      0.10903510E-14     -0.20406013E-29      0.50247991E-21     -0.94039548E-36
    0.489598855105         0.40914305E-06      0.10701170E-14      0.15459911E-28      0.52237197E-21      0.75466737E-35
    0.495875763504         0.43853041E-06      0.10521507E-14     -0.20934748E-29      0.54352384E-21     -0.10814548E-35
    0.502152671902         0.46952606E-06      0.10365525E-14     -0.70032619E-28      0.56614679E-21     -0.38250586E-34
    0.508429580301         0.50218725E-06      0.10230755E-14      0.20373792E-29      0.59027767E-21      0.11754944E-35
    0.514706488700         0.53657174E-06      0.10118298E-14      0.29341491E-28      0.61615421E-21      0.17867514E-34
    0.520983397099         0.57273772E-06      0.10030191E-14     -0.39685707E-28      0.64410242E-21     -0.25484718E-34
    0.527260305498         0.61074378E-06      0.99617778E-15     -0.25677172E-28      0.67403839E-21     -0.17373807E-34
    0.533537213896         0.65064880E-06      0.99138300E-15      0.10362975E-28      0.70621541E-21      0.73821045E-35
    0.539814122295         0.69251188E-06      0.98879689E-15     -0.47780826E-28      0.74097556E-21     -0.35805558E-34
    0.546091030694         0.73639228E-06      0.98878430E-15     -0.37725902E-28      0.77886026E-21     -0.29716497E-34
    0.552367939093         0.78234932E-06      0.99086733E-15     -0.60696793E-28      0.81978800E-21     -0.50217119E-34
    0.558644847491         0.83044233E-06      0.99576085E-15     -0.31839804E-28      0.86465435E-21     -0.27647627E-34
    0.564921755890         0.88073054E-06      0.10025911E-14     -0.90096395E-28      0.91304547E-21     -0.82049506E-34
    0.571198664289         0.93327299E-06      0.10132992E-14     -0.54635732E-28      0.96710366E-21     -0.52144929E-34
    0.577475572688         0.98812849E-06      0.10256412E-14     -0.82605971E-28      0.10251539E-20     -0.82566723E-34
    0.583752481087         0.10453555E-05      0.10431471E-14     -0.25936257E-28      0.10911755E-20     -0.27130410E-34
    0.590029389485         0.11050119E-05      0.10617489E-14     -0.11604787E-29      0.11615260E-20     -0.12695339E-35
    0.596306297884         0.11671553E-05      0.10879683E-14     -0.26607972E-28      0.12439109E-20     -0.30421794E-34
    0.602583206283         0.12318424E-05      0.11133577E-14     -0.57094809E-29      0.13294948E-20     -0.68178672E-35
    0.608860114682         0.12991293E-05      0.11512724E-14     -0.45421175E-28      0.14349169E-20     -0.56611808E-34
    0.615137023081         0.13690713E-05      0.11810695E-14      0.73057346E-29      0.15354775E-20      0.94979944E-35
    0.621413931479         0.14417228E-05      0.12339254E-14     -0.36013332E-28      0.16722589E-20     -0.48806525E-34
    0.627690839878         0.15171371E-05      0.12229842E-14     -0.34435647E-28      0.17266873E-20     -0.48618446E-34
    0.633967748277         0.15953663E-05      0.66721585E-15     -0.34577945E-28      0.98078408E-21     -0.50828376E-34
    0.640244656676         0.16764615E-05      0.91188296E-15     -0.32892956E-28      0.13947633E-20     -0.50311158E-34
    0.646521565074         0.17604722E-05      0.15758264E-14     -0.23057657E-28      0.25065036E-20     -0.36675424E-34
    0.652798473473         0.18474468E-05      0.16825002E-14     -0.95681928E-28      0.27813890E-20     -0.15817452E-33
    0.659075381872         0.19374318E-05      0.18815347E-14     -0.46331436E-28      0.32308542E-20     -0.79557458E-34
    0.665352290271         0.20304724E-05      0.20645847E-14     -0.14064084E-27      0.36803738E-20     -0.25070944E-33
    0.671629198670         0.21266118E-05      0.24306256E-14      0.46776303E-29      0.44956297E-20      0.86516384E-35
    0.677906107068         0.22258916E-05      0.27097295E-14     -0.60503071E-28      0.51972572E-20     -0.11604480E-33
    0.684183015467         0.23283513E-05      0.36637225E-14     -0.30086913E-28      0.72830382E-20     -0.59809153E-34
    0.690459923866         0.24340282E-05      0.28463776E-14      0.29044688E-28      0.58612932E-20      0.59809153E-34
    0.696736832265         0.25429579E-05      0.60927832E-14     -0.16337940E-27      0.12989724E-19     -0.34832249E-33
    0.703013740663         0.26551734E-05      0.15383277E-13     -0.89342673E-28      0.33938429E-19     -0.19710689E-33
    0.709290649062         0.27707053E-05      0.40285673E-13     -0.17118090E-26      0.91924342E-19     -0.39060267E-32
    0.715567557461         0.28895822E-05      0.91051443E-13     -0.19901550E-26      0.21477565E-18     -0.46944542E-32
    0.721844465860         0.30118296E-05      0.11805625E-12     -0.68599695E-26      0.28773292E-18     -0.16719479E-31
    0.728121374259         0.31374707E-05      0.10313945E-12     -0.38640449E-26      0.25960588E-18     -0.97259462E-32
    0.734398282657         0.32665259E-05      0.98394713E-13     -0.72829074E-26      0.25564660E-18     -0.18922262E-31
    0.740675191056         0.33990128E-05      0.11298900E-12     -0.59766765E-26      0.30288304E-18     -0.16021330E-31
    0.746952099455         0.35349461E-05      0.11643164E-12     -0.37446834E-26      0.32186583E-18     -0.10351873E-31
    0.753229007854         0.36743374E-05      0.11714335E-12     -0.79754776E-26      0.33379777E-18     -0.22725973E-31
    0.759505916252         0.38171952E-05      0.11491269E-12      0.11070246E-26      0.33736111E-18      0.32500068E-32
    0.765782824651         0.39635250E-05      0.95952422E-13     -0.25600102E-26      0.29009867E-18     -0.77398310E-32
    0.772059733050         0.41133290E-05      0.93168361E-13     -0.54922778E-27      0.28995113E-18     -0.17092628E-32
    0.778336641449         0.42666060E-05      0.10495647E-12     -0.44734089E-26      0.33607645E-18     -0.14324104E-31
    0.784613549848         0.44233513E-05      0.10751773E-12     -0.23100860E-26      0.35407031E-18     -0.76074233E-32
    0.790890458246         0.45835571E-05      0.10746619E-12     -0.62010734E-26      0.36380777E-18     -0.20992636E-31
    0.797167366645         0.47472116E-05      0.10662284E-12     -0.39378565E-26      0.37089685E-18     -0.13698177E-31
    0.803444275044         0.49142998E-05      0.10497321E-12     -0.16642852E-26      0.37505775E-18     -0.59463087E-32
    0.809721183443         0.50848028E-05      0.10346533E-12     -0.54012953E-26      0.37953099E-18     -0.19813004E-31
    0.815998091842         0.52586980E-05      0.10125137E-12     -0.31975520E-26      0.38115690E-18     -0.12037062E-31
    0.822275000240         0.54359592E-05      0.98596779E-13     -0.67266533E-26      0.38074625E-18     -0.25975980E-31
    0.828551908639         0.56165561E-05      0.95275218E-13     -0.44868617E-26      0.37726293E-18     -0.17766704E-31
    0.834828817038         0.58004548E-05      0.91305724E-13     -0.75687254E-26      0.37057526E-18     -0.30718583E-31
    0.841105725437         0.59876175E-05      0.87157758E-13     -0.54130850E-26      0.36242931E-18     -0.22509306E-31
    0.847382633835         0.61780022E-05      0.82481623E-13     -0.80722835E-26      0.35126874E-18     -0.34377850E-31
    0.853659542234         0.63715632E-05      0.77954823E-13     -0.16123460E-26      0.33987411E-18     -0.70296443E-32
    0.859936450633         0.65682506E-05      0.72998983E-13      0.10791538E-28      0.32569716E-18      0.48148249E-34
    0.866213359032         0.67680107E-05      0.68261766E-13     -0.24949490E-26      0.31154980E-18     -0.11387061E-31
    0.872490267431         0.69707857E-05      0.63272340E-13     -0.98009722E-27      0.29529007E-18     -0.45740836E-32
    0.878767175829         0.71765137E-05      0.58485329E-13     -0.29976674E-26      0.27899758E-18     -0.14300030E-31
    0.885044084228         0.73851287E-05      0.53725357E-13     -0.16323564E-26      0.26187032E-18     -0.79564981E-32
    0.891320992627         0.75965609E-05      0.49081490E-13     -0.32495489E-26      0.24435117E-18     -0.16177812E-31
    0.897597901026         0.78107362E-05      0.44744698E-13     -0.20507582E-26      0.22743931E-18     -0.10424096E-31
    0.903874809424         0.80275766E-05      0.40312005E-13     -0.10116191E-26      0.20913387E-18     -0.52481591E-32
    0.910151717823         0.82470002E-05      0.36429027E-13     -0.22491622E-26      0.19281623E-18     -0.11904654E-31
    0.916428626222         0.84689209E-05      0.31986123E-13     -0.12955477E-26      0.17266521E-18     -0.69935331E-32
    0.922705534621         0.86932488E-05      0.28460703E-13     -0.21762601E-26      0.15663125E-18     -0.11976877E-31
    0.928982443020         0.89198899E-05      0.24161836E-13     -0.13413272E-26      0.13551761E-18     -0.75231638E-32
    0.935259351418         0.91487464E-05      0.28272164E-13     -0.25805558E-26      0.16154830E-18     -0.14745401E-31
    0.941536259817         0.93797169E-05      0.35019404E-13     -0.49850677E-27      0.20378642E-18     -0.29009320E-32
    0.947813168216         0.96126957E-05      0.29196533E-13     -0.14690025E-26      0.17296871E-18     -0.87027959E-32
    0.954090076615         0.98475739E-05      0.23556873E-13     -0.70675696E-27      0.14202713E-18     -0.42611200E-32
    0.960366985013         0.10084238E-04      0.21071386E-13     -0.18839616E-27      0.12924471E-18     -0.11555580E-32
    0.966643893412         0.10322573E-04      0.18349124E-13     -0.82686778E-27      0.11445917E-18     -0.51578811E-32
    0.972920801811         0.10562458E-04      0.16682264E-13     -0.40334636E-27      0.10579284E-18     -0.25578757E-32
    0.979197710210         0.10803769E-04      0.14831312E-13     -0.88901431E-27      0.95586876E-19     -0.57296416E-32
    0.985474618609         0.11046380E-04      0.13720306E-13     -0.54047983E-27      0.89836357E-19     -0.35388963E-32
    0.991751527007         0.11290161E-04      0.13062004E-13     -0.98923533E-27      0.86860207E-19     -0.65782545E-32
    0.998028435406         0.11534978E-04      0.16604482E-13     -0.91998882E-27      0.11210191E-18     -0.62111241E-32
    1.004305343805         0.11780695E-04      0.18081404E-13     -0.16504347E-26      0.12389424E-18     -0.11308820E-31
    1.010582252204         0.12027173E-04      0.12535598E-13     -0.88478084E-27      0.87146661E-19     -0.61509388E-32
    1.016859160602         0.12274269E-04      0.91061642E-14     -0.45495566E-27      0.64207258E-19     -0.32078771E-32
