 
 # Omega; pulse ft; proj flux t=    2000.05000000000     
    0.000000000000         0.15753149E-11      0.00000000E+00      0.00000000E+00      0.00000000E+00      0.00000000E+00      0.00000000E+00      0.00000000E+00
    0.001570600002         0.18069754E-11      0.42066245E-17     -0.27750719E-24      0.29995981E-27     -0.19788076E-34      0.47111688E-30     -0.31079152E-37
    0.003141200004         0.25019713E-11      0.98648407E-17     -0.47985482E-24      0.48698938E-27     -0.23688593E-34      0.12359824E-29     -0.68284457E-37
    0.004711800005         0.36603453E-11      0.52802688E-17     -0.51349821E-24      0.25423416E-27     -0.24723891E-34      0.16352826E-29     -0.10711580E-36
    0.006282400007         0.52821684E-11      0.28512954E-17     -0.52289517E-24      0.14858383E-27     -0.27248586E-34      0.18686483E-29     -0.14991243E-36
    0.007853000009         0.73675403E-11      0.73896004E-18     -0.40897897E-24      0.42968536E-28     -0.23781025E-34      0.19361347E-29     -0.18726291E-36
    0.009423600011         0.99165891E-11     -0.15021220E-17     -0.38250361E-24     -0.97970054E-28     -0.24947308E-34      0.17822630E-29     -0.22644515E-36
    0.010994200013         0.12929471E-10     -0.32751204E-17     -0.31778160E-24     -0.23871905E-27     -0.23162666E-34      0.14073308E-29     -0.26282443E-36
    0.012564800014         0.16406372E-10     -0.38355185E-17     -0.28602061E-24     -0.31040144E-27     -0.23147120E-34      0.91981430E-30     -0.29917930E-36
    0.014135400016         0.20347504E-10     -0.42807276E-17     -0.25103888E-24     -0.38191201E-27     -0.22396838E-34      0.31998330E-30     -0.33435577E-36
    0.015706000018         0.24753111E-10     -0.39152241E-17     -0.24320629E-24     -0.38244016E-27     -0.23756457E-34     -0.28067722E-30     -0.37166766E-36
    0.017276600020         0.29623462E-10     -0.36029449E-17     -0.22027352E-24     -0.38289334E-27     -0.23408980E-34     -0.88204951E-30     -0.40843381E-36
    0.018847200022         0.34958856E-10     -0.31187188E-17     -0.18992684E-24     -0.35853311E-27     -0.21834306E-34     -0.14451616E-29     -0.44272677E-36
    0.020417800023         0.40759620E-10     -0.27004384E-17     -0.18531970E-24     -0.33411667E-27     -0.22929018E-34     -0.19699252E-29     -0.47873909E-36
    0.021988400025         0.47026112E-10     -0.22673434E-17     -0.17505090E-24     -0.30054218E-27     -0.23203444E-34     -0.24419568E-29     -0.51518242E-36
    0.023559000027         0.53758715E-10     -0.18879055E-17     -0.17389834E-24     -0.26700226E-27     -0.24594055E-34     -0.28613105E-29     -0.55380984E-36
    0.025129600029         0.60957842E-10     -0.15937083E-17     -0.15063062E-24     -0.23960480E-27     -0.22646440E-34     -0.32376338E-29     -0.58937834E-36
    0.026700200031         0.68623934E-10     -0.13323035E-17     -0.14462145E-24     -0.21223008E-27     -0.23037560E-34     -0.35709624E-29     -0.62556113E-36
    0.028270800032         0.76757463E-10     -0.11509103E-17     -0.14337605E-24     -0.19367193E-27     -0.24126915E-34     -0.38751435E-29     -0.66345486E-36
    0.029841400034         0.85358926E-10     -0.98779288E-18     -0.13706138E-24     -0.17512104E-27     -0.24298952E-34     -0.41501886E-29     -0.70161880E-36
    0.031412000036         0.94428851E-10     -0.87834494E-18     -0.12717615E-24     -0.16365033E-27     -0.23695041E-34     -0.44072179E-29     -0.73883423E-36
    0.032982600038         0.10396779E-09     -0.77890154E-18     -0.11586049E-24     -0.15217355E-27     -0.22635598E-34     -0.46462216E-29     -0.77438570E-36
    0.034553200039         0.11397634E-09     -0.71650939E-18     -0.11066484E-24     -0.14648427E-27     -0.22624488E-34     -0.48762898E-29     -0.80991972E-36
    0.036123800041         0.12445510E-09     -0.65926739E-18     -0.11184680E-24     -0.14077435E-27     -0.23882814E-34     -0.50973900E-29     -0.84743007E-36
    0.037694400043         0.13540471E-09     -0.61197340E-18     -0.10355498E-24     -0.13624864E-27     -0.23055292E-34     -0.53113821E-29     -0.88364071E-36
    0.039265000045         0.14682586E-09     -0.56845593E-18     -0.10397443E-24     -0.13174569E-27     -0.24097177E-34     -0.55183019E-29     -0.92148773E-36
    0.040835600047         0.15871923E-09     -0.54919013E-18     -0.96048029E-25     -0.13229883E-27     -0.23137782E-34     -0.57260905E-29     -0.95782794E-36
    0.042406200048         0.17108555E-09     -0.53129519E-18     -0.94082816E-25     -0.13285030E-27     -0.23525397E-34     -0.59347451E-29     -0.99477692E-36
    0.043976800050         0.18392558E-09     -0.54428838E-18     -0.89278699E-25     -0.14108806E-27     -0.23142435E-34     -0.61563380E-29     -0.10311244E-35
    0.045547400052         0.19724011E-09     -0.55625076E-18     -0.84977485E-25     -0.14929489E-27     -0.22807527E-34     -0.63908206E-29     -0.10669459E-35
    0.047118000054         0.21102995E-09     -0.59556676E-18     -0.82425084E-25     -0.16532189E-27     -0.22880174E-34     -0.66504752E-29     -0.11028815E-35
    0.048688600056         0.22529594E-09     -0.63204198E-18     -0.81912286E-25     -0.18126530E-27     -0.23491881E-34     -0.69351704E-29     -0.11397779E-35
    0.050259200057         0.24003895E-09     -0.70346834E-18     -0.77981943E-25     -0.20823483E-27     -0.23083565E-34     -0.72622241E-29     -0.11760329E-35
    0.051829800059         0.25525989E-09     -0.76996658E-18     -0.75434804E-25     -0.23502691E-27     -0.23025946E-34     -0.76313573E-29     -0.12121975E-35
    0.053400400061         0.27095967E-09     -0.91946974E-18     -0.73818035E-25     -0.28916137E-27     -0.23214819E-34     -0.80855142E-29     -0.12486587E-35
    0.054971000063         0.28713927E-09     -0.10574290E-17     -0.71919954E-25     -0.34233621E-27     -0.23283648E-34     -0.86231874E-29     -0.12852280E-35
    0.056541600065         0.30379966E-09     -0.70263194E-18     -0.68885747E-25     -0.23398594E-27     -0.22939885E-34     -0.89906857E-29     -0.13212574E-35
    0.058112200066         0.32094187E-09     -0.36750435E-18     -0.67425035E-25     -0.12579524E-27     -0.23079315E-34     -0.91882597E-29     -0.13575057E-35
    0.059682800068         0.33856693E-09      0.46961758E-18     -0.66019446E-25      0.16511342E-27     -0.23211858E-34     -0.89289326E-29     -0.13939623E-35
    0.061253400070         0.35667593E-09      0.12547991E-17     -0.63045997E-25      0.45285637E-27     -0.22753268E-34     -0.82176764E-29     -0.14296986E-35
    0.062824000072         0.37526995E-09      0.90319002E-18     -0.62911307E-25      0.33437978E-27     -0.23291078E-34     -0.76924995E-29     -0.14662795E-35
    0.064394600074         0.39435014E-09      0.57398860E-18     -0.60275909E-25      0.21786050E-27     -0.22878049E-34     -0.73503278E-29     -0.15022118E-35
    0.065965200075         0.41391766E-09      0.46361902E-18     -0.58721338E-25      0.18030302E-27     -0.22836928E-34     -0.70671439E-29     -0.15380795E-35
    0.067535800077         0.43397368E-09      0.35866549E-18     -0.56344574E-25      0.14284387E-27     -0.22440065E-34     -0.68427933E-29     -0.15733238E-35
    0.069106400079         0.45451945E-09      0.30192950E-18     -0.55244685E-25      0.12307857E-27     -0.22519947E-34     -0.66494861E-29     -0.16086937E-35
    0.070677000081         0.47555619E-09      0.24800572E-18     -0.55393642E-25      0.10342561E-27     -0.23100763E-34     -0.64870458E-29     -0.16449757E-35
    0.072247600083         0.49708519E-09      0.23761596E-18     -0.54420244E-25      0.10132712E-27     -0.23206549E-34     -0.63279015E-29     -0.16814239E-35
    0.073818200084         0.51910775E-09      0.22741626E-18     -0.52852289E-25      0.99119303E-28     -0.23035653E-34     -0.61722247E-29     -0.17176037E-35
    0.075388800086         0.54162521E-09      0.21142924E-18     -0.51748764E-25      0.94145543E-28     -0.23042770E-34     -0.60243597E-29     -0.17537947E-35
    0.076959400088         0.56463893E-09      0.19603781E-18     -0.51254563E-25      0.89143908E-28     -0.23306891E-34     -0.58843503E-29     -0.17904005E-35
    0.078530000090         0.58815031E-09      0.18446220E-18     -0.50931911E-25      0.85625434E-28     -0.23642064E-34     -0.57498670E-29     -0.18275327E-35
    0.080100600092         0.61216077E-09      0.17354658E-18     -0.48898783E-25      0.82203148E-28     -0.23161701E-34     -0.56207587E-29     -0.18639105E-35
    0.081671200093         0.63667176E-09      0.17418445E-18     -0.47033112E-25      0.84158638E-28     -0.22724432E-34     -0.54885792E-29     -0.18996015E-35
    0.083241800095         0.66168477E-09      0.17468293E-18     -0.46543148E-25      0.86060292E-28     -0.22930214E-34     -0.53534129E-29     -0.19356157E-35
    0.084812400097         0.68720130E-09      0.17712555E-18     -0.45961468E-25      0.88950524E-28     -0.23081349E-34     -0.52137072E-29     -0.19718673E-35
    0.086383000099         0.71322290E-09      0.17944332E-18     -0.46076290E-25      0.91826274E-28     -0.23578554E-34     -0.50694848E-29     -0.20088997E-35
    0.087953600101         0.73975113E-09      0.17929146E-18     -0.44568401E-25      0.93461831E-28     -0.23232810E-34     -0.49226937E-29     -0.20453892E-35
    0.089524200102         0.76678760E-09      0.17908736E-18     -0.43854861E-25      0.95069726E-28     -0.23280647E-34     -0.47733772E-29     -0.20819538E-35
    0.091094800104         0.79433393E-09      0.17573306E-18     -0.43335193E-25      0.94974206E-28     -0.23420326E-34     -0.46242107E-29     -0.21187377E-35
    0.092665400106         0.82239179E-09      0.17249536E-18     -0.42499130E-25      0.94881435E-28     -0.23376736E-34     -0.44751899E-29     -0.21554532E-35
    0.094236000108         0.85096285E-09      0.16726868E-18     -0.41873805E-25      0.93616214E-28     -0.23435750E-34     -0.43281563E-29     -0.21922614E-35
    0.095806600109         0.88004885E-09      0.16218482E-18     -0.40372756E-25      0.92334551E-28     -0.22984890E-34     -0.41831356E-29     -0.22283615E-35
    0.097377200111         0.90965153E-09      0.15653723E-18     -0.39997426E-25      0.90631275E-28     -0.23157543E-34     -0.40407901E-29     -0.22647327E-35
    0.098947800113         0.93977266E-09      0.15113497E-18     -0.38299618E-25      0.88966050E-28     -0.22545184E-34     -0.39010601E-29     -0.23001422E-35
    0.100518400115         0.97041405E-09      0.14550410E-18     -0.37865616E-25      0.87062157E-28     -0.22656833E-34     -0.37643202E-29     -0.23357270E-35
    0.102089000117         0.10015775E-08      0.13998469E-18     -0.37416304E-25      0.85119458E-28     -0.22751456E-34     -0.36306316E-29     -0.23714604E-35
    0.103659600118         0.10332650E-08      0.13470957E-18     -0.36743934E-25      0.83222991E-28     -0.22700244E-34     -0.34999216E-29     -0.24071135E-35
    0.105230200120         0.10654783E-08      0.12964064E-18     -0.36431854E-25      0.81355717E-28     -0.22862735E-34     -0.33721443E-29     -0.24430217E-35
    0.106800800122         0.10982195E-08      0.12422689E-18     -0.35701392E-25      0.79172238E-28     -0.22753199E-34     -0.32477964E-29     -0.24787578E-35
    0.108371400124         0.11314903E-08      0.11893371E-18     -0.35082664E-25      0.76963321E-28     -0.22702381E-34     -0.31269178E-29     -0.25144142E-35
    0.109942000126         0.11652929E-08      0.11329082E-18     -0.34444119E-25      0.74423292E-28     -0.22627117E-34     -0.30100286E-29     -0.25499523E-35
    0.111512600127         0.11996293E-08      0.10785335E-18     -0.33937997E-25      0.71911682E-28     -0.22628304E-34     -0.28970841E-29     -0.25854924E-35
    0.113083200129         0.12345014E-08      0.10157327E-18     -0.33465496E-25      0.68725139E-28     -0.22642973E-34     -0.27891444E-29     -0.26210554E-35
    0.114653800131         0.12699115E-08      0.95410167E-19     -0.33407238E-25      0.65497137E-28     -0.22933389E-34     -0.26862746E-29     -0.26570746E-35
    0.116224400133         0.13058615E-08      0.87560589E-19     -0.32945513E-25      0.60974907E-28     -0.22942395E-34     -0.25905074E-29     -0.26931079E-35
    0.117795000135         0.13423536E-08      0.80002306E-19     -0.31870572E-25      0.56504790E-28     -0.22509851E-34     -0.25017610E-29     -0.27284619E-35
    0.119365600136         0.13793901E-08      0.74054204E-19     -0.32063795E-25      0.53039607E-28     -0.22964950E-34     -0.24184570E-29     -0.27645306E-35
    0.120936200138         0.14169730E-08      0.68303529E-19     -0.31601170E-25      0.49601073E-28     -0.22948330E-34     -0.23405535E-29     -0.28005733E-35
    0.122506800140         0.14551046E-08      0.65316722E-19     -0.30898031E-25      0.48084055E-28     -0.22746130E-34     -0.22650327E-29     -0.28362984E-35
    0.124077400142         0.14937873E-08      0.62356111E-19     -0.30529341E-25      0.46528362E-28     -0.22780129E-34     -0.21919552E-29     -0.28720768E-35
    0.125648000144         0.15330232E-08      0.59529538E-19     -0.29861106E-25      0.45016147E-28     -0.22580924E-34     -0.21212529E-29     -0.29075424E-35
    0.127218600145         0.15728147E-08      0.56761268E-19     -0.30080743E-25      0.43493234E-28     -0.23049323E-34     -0.20529424E-29     -0.29437437E-35
    0.128789200147         0.16131641E-08      0.44482725E-19     -0.29669596E-25      0.34532909E-28     -0.23033154E-34     -0.19987050E-29     -0.29799196E-35
    0.130359800149         0.16540739E-08      0.32648151E-19     -0.29101046E-25      0.25675120E-28     -0.22885610E-34     -0.19583797E-29     -0.30158637E-35
    0.131930400151         0.16955464E-08      0.34220311E-19     -0.28504320E-25      0.27257839E-28     -0.22704825E-34     -0.19155685E-29     -0.30515239E-35
    0.133501000153         0.17375841E-08      0.35690940E-19     -0.28217082E-25      0.28791345E-28     -0.22762297E-34     -0.18703488E-29     -0.30872744E-35
    0.135071600154         0.17801894E-08      0.33350165E-19     -0.28120772E-25      0.27242241E-28     -0.22970586E-34     -0.18275622E-29     -0.31233520E-35
    0.136642200156         0.18233649E-08      0.31073958E-19     -0.27262750E-25      0.25699697E-28     -0.22547640E-34     -0.17871982E-29     -0.31587653E-35
    0.138212800158         0.18671131E-08      0.31493556E-19     -0.27591665E-25      0.26368580E-28     -0.23101648E-34     -0.17457837E-29     -0.31950487E-35
    0.139783400160         0.19114366E-08      0.31852121E-19     -0.27024468E-25      0.26995125E-28     -0.22903620E-34     -0.17033852E-29     -0.32310212E-35
    0.141354000162         0.19563380E-08      0.31585244E-19     -0.26837466E-25      0.27093349E-28     -0.23020776E-34     -0.16608324E-29     -0.32671776E-35
    0.142924600163         0.20018198E-08      0.31249595E-19     -0.26395786E-25      0.27127207E-28     -0.22913703E-34     -0.16182264E-29     -0.33031659E-35
    0.144495200165         0.20478848E-08      0.30668138E-19     -0.26081161E-25      0.26939045E-28     -0.22909822E-34     -0.15759159E-29     -0.33391480E-35
    0.146065800167         0.20945357E-08      0.30176879E-19     -0.25681949E-25      0.26819842E-28     -0.22824952E-34     -0.15337927E-29     -0.33749969E-35
    0.147636400169         0.21417752E-08      0.29447912E-19     -0.25553571E-25      0.26477539E-28     -0.22976015E-34     -0.14922071E-29     -0.34110830E-35
    0.149207000170         0.21896059E-08      0.28483173E-19     -0.25269158E-25      0.25906444E-28     -0.22983185E-34     -0.14515184E-29     -0.34471804E-35
    0.150777600172         0.22380308E-08      0.27851533E-19     -0.24782423E-25      0.25622472E-28     -0.22798993E-34     -0.14112757E-29     -0.34829885E-35
    0.152348200174         0.22870527E-08      0.26911265E-19     -0.24677074E-25      0.25038922E-28     -0.22960174E-34     -0.13719496E-29     -0.35190498E-35
    0.153918800176         0.23366743E-08      0.22610234E-19     -0.24376972E-25      0.21274250E-28     -0.22936595E-34     -0.13385363E-29     -0.35550740E-35
    0.155489400178         0.23868986E-08      0.21205866E-19     -0.23929685E-25      0.20175851E-28     -0.22767368E-34     -0.13068481E-29     -0.35908324E-35
    0.157060000179         0.24377285E-08      0.23587983E-19     -0.23715704E-25      0.22690979E-28     -0.22813842E-34     -0.12712096E-29     -0.36266638E-35
    0.158630600181         0.24891669E-08      0.23277393E-19     -0.23427711E-25      0.22638313E-28     -0.22784504E-34     -0.12356539E-29     -0.36624492E-35
    0.160201200183         0.25412168E-08      0.22425237E-19     -0.23114487E-25      0.22047313E-28     -0.22724947E-34     -0.12010264E-29     -0.36981410E-35
    0.161771800185         0.25938812E-08      0.21918813E-19     -0.22973299E-25      0.21782462E-28     -0.22830389E-34     -0.11668148E-29     -0.37339984E-35
    0.163342400187         0.26471632E-08      0.21280870E-19     -0.22600439E-25      0.21375380E-28     -0.22700809E-34     -0.11332427E-29     -0.37696523E-35
    0.164913000188         0.27010658E-08      0.20767237E-19     -0.22522541E-25      0.21081508E-28     -0.22863375E-34     -0.11001321E-29     -0.38055615E-35
    0.166483600190         0.27555922E-08      0.19871601E-19     -0.22086225E-25      0.20385389E-28     -0.22657273E-34     -0.10681148E-29     -0.38411470E-35
    0.168054200192         0.28107454E-08      0.18940432E-19     -0.21753731E-25      0.19633815E-28     -0.22550105E-34     -0.10372779E-29     -0.38765642E-35
    0.169624800194         0.28665287E-08      0.18178943E-19     -0.21895007E-25      0.19040495E-28     -0.22932674E-34     -0.10073729E-29     -0.39125823E-35
    0.171195400196         0.29229452E-08      0.17539203E-19     -0.21691638E-25      0.18560134E-28     -0.22954276E-34     -0.97822235E-30     -0.39486342E-35
    0.172766000197         0.29799981E-08      0.17903246E-19     -0.21258727E-25      0.19139570E-28     -0.22726766E-34     -0.94816174E-30     -0.39843289E-35
    0.174336600199         0.30376909E-08      0.18350069E-19     -0.21216802E-25      0.19816885E-28     -0.22912770E-34     -0.91703734E-30     -0.40203157E-35
    0.175907200201         0.30960266E-08      0.19449471E-19     -0.21014376E-25      0.21216393E-28     -0.22923464E-34     -0.88371487E-30     -0.40563193E-35
    0.177477800203         0.31550088E-08      0.20334862E-19     -0.20795181E-25      0.22404767E-28     -0.22911943E-34     -0.84852595E-30     -0.40923048E-35
    0.179048400205         0.32146406E-08      0.20403448E-19     -0.20591402E-25      0.22704305E-28     -0.22913455E-34     -0.81286656E-30     -0.41282927E-35
    0.180619000206         0.32749256E-08      0.20617345E-19     -0.20256444E-25      0.23169327E-28     -0.22763754E-34     -0.77647682E-30     -0.41640454E-35
    0.182189600208         0.33358672E-08      0.21217064E-19     -0.20115189E-25      0.24077597E-28     -0.22827164E-34     -0.73866055E-30     -0.41998978E-35
    0.183760200210         0.33974688E-08      0.21770545E-19     -0.19926421E-25      0.24946866E-28     -0.22833684E-34     -0.69947900E-30     -0.42357603E-35
    0.185330800212         0.34597339E-08      0.22480976E-19     -0.19920589E-25      0.26010754E-28     -0.23048355E-34     -0.65862651E-30     -0.42719601E-35
    0.186901400214         0.35226661E-08      0.23098999E-19     -0.19587271E-25      0.26983281E-28     -0.22881028E-34     -0.61624657E-30     -0.43078970E-35
    0.188472000215         0.35862688E-08      0.23763587E-19     -0.19397486E-25      0.28025326E-28     -0.22876212E-34     -0.57222999E-30     -0.43438264E-35
    0.190042600217         0.36505458E-08      0.24517478E-19     -0.19332439E-25      0.29189409E-28     -0.23016334E-34     -0.52638510E-30     -0.43799759E-35
    0.191613200219         0.37155006E-08      0.25251902E-19     -0.19065825E-25      0.30347903E-28     -0.22913434E-34     -0.47872069E-30     -0.44159637E-35
