 
 # Omega; pulse ft; projected flux at t=    500.250000000000     
    0.000000000000         0.10341091E-10      0.00000000E+00      0.00000000E+00      0.50119883E-12     -0.14772929E-22
    0.006276908399         0.40699280E-10      0.12058785E-03     -0.39092866E-14      0.45672870E-12     -0.14806494E-22
    0.012553816798         0.13187398E-09      0.64588666E-04     -0.24124810E-14      0.39632682E-12     -0.14803385E-22
    0.018830725196         0.28416575E-09      0.43456815E-04     -0.16739956E-14      0.38306845E-12     -0.14756141E-22
    0.025107633595         0.49807598E-09      0.33141834E-04     -0.12739506E-14      0.38404327E-12     -0.14762375E-22
    0.031384541994         0.77430759E-09      0.26717996E-04     -0.10279845E-14      0.38504847E-12     -0.14814878E-22
    0.037661450393         0.11137660E-08      0.22488320E-04     -0.85345440E-15      0.38847917E-12     -0.14743176E-22
    0.043938358791         0.15175606E-08      0.19355668E-04     -0.72971704E-15      0.39050280E-12     -0.14722125E-22
    0.050215267190         0.19870057E-08      0.17195379E-04     -0.63679009E-15      0.39745584E-12     -0.14718835E-22
    0.056492175589         0.25236231E-08      0.15458299E-04     -0.56636509E-15      0.40337754E-12     -0.14779049E-22
    0.062769083988         0.31291437E-08      0.14028721E-04     -0.50573710E-15      0.40851836E-12     -0.14727137E-22
    0.069045992387         0.38055096E-08      0.12850810E-04     -0.45807212E-15      0.41373157E-12     -0.14747622E-22
    0.075322900785         0.45548772E-08      0.11865587E-04     -0.41862193E-15      0.41913377E-12     -0.14787182E-22
    0.081599809184         0.53796196E-08      0.11021267E-04     -0.38195075E-15      0.42443163E-12     -0.14709015E-22
    0.087876717583         0.62823298E-08      0.10309759E-04     -0.35273013E-15      0.43053577E-12     -0.14730018E-22
    0.094153625982         0.72658239E-08      0.96852153E-05     -0.32769753E-15      0.43658710E-12     -0.14771846E-22
    0.100430534380         0.83331444E-08      0.91325881E-05     -0.30547492E-15      0.44264015E-12     -0.14805821E-22
    0.106707442779         0.94875639E-08      0.86413462E-05     -0.28391021E-15      0.44880244E-12     -0.14745341E-22
    0.112984351178         0.10732589E-07      0.82054796E-05     -0.26580955E-15      0.45530664E-12     -0.14749272E-22
    0.119261259577         0.12071965E-07      0.78137488E-05     -0.25048953E-15      0.46201047E-12     -0.14810917E-22
    0.125538167976         0.13509678E-07      0.74547404E-05     -0.23354477E-15      0.46861429E-12     -0.14680916E-22
    0.131815076374         0.15049961E-07      0.71341336E-05     -0.22166421E-15      0.47580097E-12     -0.14783582E-22
    0.138091984773         0.16697298E-07      0.68139828E-05     -0.20997093E-15      0.48127418E-12     -0.14830326E-22
    0.144368893172         0.18456429E-07      0.65177233E-05     -0.19789657E-15      0.48672513E-12     -0.14778356E-22
    0.150645801571         0.20332352E-07      0.62838450E-05     -0.18718944E-15      0.49541581E-12     -0.14757940E-22
    0.156922709970         0.22330332E-07      0.60591031E-05     -0.17741467E-15      0.50365312E-12     -0.14747307E-22
    0.163199618368         0.24455902E-07      0.58395855E-05     -0.16879511E-15      0.51116412E-12     -0.14775365E-22
    0.169476526767         0.26714868E-07      0.56347093E-05     -0.15974311E-15      0.51883443E-12     -0.14708873E-22
    0.175753435166         0.29113317E-07      0.54483207E-05     -0.15371709E-15      0.52718656E-12     -0.14873865E-22
    0.182030343565         0.31657619E-07      0.52692110E-05     -0.14681020E-15      0.53529583E-12     -0.14914356E-22
    0.188307251963         0.34354433E-07      0.51253642E-05     -0.13958670E-15      0.54620324E-12     -0.14875569E-22
    0.194584160362         0.37210710E-07      0.49978915E-05     -0.13295320E-15      0.55829161E-12     -0.14851594E-22
    0.200861068761         0.40233700E-07      0.48159298E-05     -0.12626994E-15      0.56349252E-12     -0.14774336E-22
    0.207137977160         0.43430955E-07      0.46578734E-05     -0.12165481E-15      0.57048094E-12     -0.14899879E-22
    0.213414885559         0.46810335E-07      0.45252464E-05     -0.11526073E-15      0.57979314E-12     -0.14767678E-22
    0.219691793957         0.50380010E-07      0.43980828E-05     -0.10974503E-15      0.58914421E-12     -0.14700871E-22
    0.225968702356         0.54148468E-07      0.42791387E-05     -0.10536508E-15      0.59897411E-12     -0.14748518E-22
    0.232245610755         0.58124513E-07      0.41666788E-05     -0.10091977E-15      0.60913792E-12     -0.14753731E-22
    0.238522519154         0.62317278E-07      0.40568654E-05     -0.96401165E-16      0.61913234E-12     -0.14712117E-22
    0.244799427552         0.66736218E-07      0.39532088E-05     -0.92062837E-16      0.62952757E-12     -0.14660519E-22
    0.251076335951         0.71391124E-07      0.38573103E-05     -0.89158284E-16      0.64067358E-12     -0.14808598E-22
    0.257353244350         0.76292116E-07      0.37665975E-05     -0.85097872E-16      0.65224841E-12     -0.14736098E-22
    0.263630152749         0.81449655E-07      0.36799284E-05     -0.82035661E-16      0.66412119E-12     -0.14805076E-22
    0.269907061148         0.86874540E-07      0.35983487E-05     -0.79362417E-16      0.67654286E-12     -0.14921310E-22
    0.276183969546         0.92577913E-07      0.35210175E-05     -0.75908035E-16      0.68943116E-12     -0.14863137E-22
    0.282460877945         0.98571259E-07      0.34497855E-05     -0.72579213E-16      0.70323081E-12     -0.14795105E-22
    0.288737786344         0.10486641E-06      0.33815347E-05     -0.69523724E-16      0.71739843E-12     -0.14749578E-22
    0.295014694743         0.11147554E-06      0.33229481E-05     -0.66793749E-16      0.73345473E-12     -0.14742990E-22
    0.301291603141         0.11841119E-06      0.32657198E-05     -0.64153123E-16      0.74971885E-12     -0.14727781E-22
    0.307568511540         0.12568621E-06      0.32321485E-05     -0.61931547E-16      0.77152656E-12     -0.14783304E-22
    0.313845419939         0.13331385E-06      0.32172713E-05     -0.59656805E-16      0.79829050E-12     -0.14802438E-22
    0.320122328338         0.14130766E-06      0.34671924E-05     -0.57227309E-16      0.89400818E-12     -0.14755940E-22
    0.326399236737         0.14968158E-06      0.33060130E-05     -0.55220670E-16      0.88559994E-12     -0.14792265E-22
    0.332676145135         0.15844985E-06      0.28328070E-05     -0.52969522E-16      0.78813564E-12     -0.14737032E-22
    0.338953053534         0.16762710E-06      0.27993502E-05     -0.51321060E-16      0.80867818E-12     -0.14825663E-22
    0.345229961933         0.17722828E-06      0.27841457E-05     -0.49136391E-16      0.83489200E-12     -0.14734710E-22
    0.351506870332         0.18726866E-06      0.27497699E-05     -0.47463192E-16      0.85573923E-12     -0.14770733E-22
    0.357783778731         0.19776389E-06      0.27194995E-05     -0.45881241E-16      0.87806999E-12     -0.14814101E-22
    0.364060687129         0.20872991E-06      0.26880749E-05     -0.44292823E-16      0.90025609E-12     -0.14833993E-22
    0.370337595528         0.22018301E-06      0.26593728E-05     -0.42628361E-16      0.92358957E-12     -0.14804660E-22
    0.376614503927         0.23213979E-06      0.26257298E-05     -0.40730788E-16      0.94540173E-12     -0.14665240E-22
    0.382891412326         0.24461718E-06      0.25964760E-05     -0.39536877E-16      0.96896803E-12     -0.14754602E-22
    0.389168320724         0.25763241E-06      0.25692783E-05     -0.38208264E-16      0.99354597E-12     -0.14775226E-22
    0.395445229123         0.27120301E-06      0.25449433E-05     -0.36886089E-16      0.10195302E-11     -0.14776942E-22
    0.401722137522         0.28534681E-06      0.25205537E-05     -0.35648602E-16      0.10458202E-11     -0.14791205E-22
    0.407999045921         0.30008192E-06      0.24999686E-05     -0.34471205E-16      0.10740612E-11     -0.14809860E-22
    0.414275954320         0.31542674E-06      0.24797086E-05     -0.33379720E-16      0.11028672E-11     -0.14845857E-22
    0.420552862718         0.33139993E-06      0.24641655E-05     -0.32004397E-16      0.11342675E-11     -0.14731782E-22
    0.426829771117         0.34802041E-06      0.24479332E-05     -0.30996119E-16      0.11659056E-11     -0.14762882E-22
    0.433106679516         0.36530735E-06      0.24388439E-05     -0.29913581E-16      0.12016039E-11     -0.14738244E-22
    0.439383587915         0.38328015E-06      0.24273893E-05     -0.29071903E-16      0.12368747E-11     -0.14813571E-22
    0.445660496313         0.40195843E-06      0.24299605E-05     -0.28259877E-16      0.12802359E-11     -0.14888847E-22
    0.451937404712         0.42136202E-06      0.24253947E-05     -0.27283614E-16      0.13209103E-11     -0.14859110E-22
    0.458214313111         0.44151098E-06      0.24774516E-05     -0.26525356E-16      0.13944144E-11     -0.14929590E-22
    0.464491221510         0.46242550E-06      0.23909487E-05     -0.25338702E-16      0.13904275E-11     -0.14735417E-22
    0.470768129909         0.48412598E-06      0.22274007E-05     -0.24582010E-16      0.13380227E-11     -0.14766668E-22
    0.477045038307         0.50663295E-06      0.22782057E-05     -0.23797303E-16      0.14133209E-11     -0.14763033E-22
    0.483321946706         0.52996708E-06      0.23289133E-05     -0.23092999E-16      0.14916932E-11     -0.14791306E-22
    0.489598855105         0.55414917E-06      0.23390745E-05     -0.22426682E-16      0.15464794E-11     -0.14827404E-22
    0.495875763504         0.57920011E-06      0.23615489E-05     -0.21693833E-16      0.16112633E-11     -0.14801504E-22
    0.502152671902         0.60514088E-06      0.23732070E-05     -0.21151720E-16      0.16705910E-11     -0.14889503E-22
    0.508429580301         0.63199252E-06      0.24045967E-05     -0.20298234E-16      0.17459716E-11     -0.14738497E-22
    0.514706488700         0.65977612E-06      0.24528484E-05     -0.19711352E-16      0.18366291E-11     -0.14759348E-22
    0.520983397099         0.68851279E-06      0.24647992E-05     -0.19207750E-16      0.19027577E-11     -0.14827859E-22
    0.527260305498         0.71822366E-06      0.24316273E-05     -0.18667639E-16      0.19348417E-11     -0.14853809E-22
    0.533537213896         0.74892983E-06      0.24811326E-05     -0.18081522E-16      0.20344180E-11     -0.14826041E-22
    0.539814122295         0.78065236E-06      0.25254684E-05     -0.17693205E-16      0.21333847E-11     -0.14946301E-22
    0.546091030694         0.81341227E-06      0.25701708E-05     -0.17100775E-16      0.22362557E-11     -0.14879053E-22
    0.552367939093         0.84723047E-06      0.25759140E-05     -0.16564067E-16      0.23079068E-11     -0.14840682E-22
    0.558644847491         0.88212778E-06      0.26504665E-05     -0.16040305E-16      0.24447352E-11     -0.14795244E-22
    0.564921755890         0.91812490E-06      0.26778178E-05     -0.15652962E-16      0.25421917E-11     -0.14860170E-22
    0.571198664289         0.95524236E-06      0.27569134E-05     -0.15334185E-16      0.26931672E-11     -0.14979623E-22
    0.577475572688         0.99350052E-06      0.27750925E-05     -0.14961170E-16      0.27888538E-11     -0.15035361E-22
    0.583752481087         0.10329195E-05      0.28950054E-05     -0.14327504E-16      0.29922710E-11     -0.14808876E-22
    0.590029389485         0.10735193E-05      0.28888423E-05     -0.13895687E-16      0.30702509E-11     -0.14768284E-22
    0.596306297884         0.11153196E-05      0.30461641E-05     -0.13574672E-16      0.33281050E-11     -0.14831090E-22
    0.602583206283         0.11583396E-05      0.29739829E-05     -0.13201446E-16      0.33394209E-11     -0.14823618E-22
    0.608860114682         0.12025986E-05      0.31944128E-05     -0.12926466E-16      0.36855985E-11     -0.14914091E-22
    0.615137023081         0.12481153E-05      0.28551044E-05     -0.12490600E-16      0.33839086E-11     -0.14804029E-22
    0.621413931479         0.12949080E-05      0.32550495E-05     -0.12302448E-16      0.39621356E-11     -0.14974877E-22
    0.627690839878         0.13429948E-05      0.13025243E-05     -0.11941050E-16      0.16279016E-11     -0.14923986E-22
    0.633967748277         0.13923932E-05      0.31609396E-05     -0.11658087E-16      0.40553162E-11     -0.14956702E-22
    0.640244656676         0.14431204E-05      0.13138531E-04     -0.11726242E-16      0.17298850E-10     -0.15439358E-22
    0.646521565074         0.14951931E-05      0.12977739E-04     -0.11193218E-16      0.17531823E-10     -0.15121088E-22
    0.652798473473         0.15486273E-05      0.10467514E-04     -0.11254692E-16      0.14505248E-10     -0.15596070E-22
    0.659075381872         0.16034389E-05      0.12384968E-04     -0.10812483E-16      0.17600540E-10     -0.15365849E-22
    0.665352290271         0.16596427E-05      0.13254477E-04     -0.11060291E-16      0.19312538E-10     -0.16115482E-22
    0.671629198670         0.17172535E-05      0.20579718E-04     -0.97289200E-17      0.30736757E-10     -0.14530591E-22
    0.677906107068         0.17762849E-05      0.38579678E-04     -0.10846699E-16      0.59049400E-10     -0.16601773E-22
    0.684183015467         0.18367504E-05      0.10277999E-03     -0.10586754E-16      0.16117595E-09     -0.16601773E-22
    0.690459923866         0.18986625E-05      0.30291928E-03     -0.67106305E-17      0.48657525E-09     -0.10779197E-22
    0.696736832265         0.19620330E-05      0.37003192E-03     -0.19218765E-16      0.60868211E-09     -0.31613809E-22
    0.703013740663         0.20268732E-05      0.18332202E-03     -0.10015077E-16      0.30873880E-09     -0.16866730E-22
    0.709290649062         0.20931935E-05      0.11828984E-03     -0.13630611E-16      0.20391369E-09     -0.23497099E-22
    0.715567557461         0.21610035E-05      0.16947547E-03     -0.12088870E-16      0.29896852E-09     -0.21325750E-22
    0.721844465860         0.22303120E-05      0.20296081E-03     -0.19994014E-16      0.36630932E-09     -0.36085754E-22
    0.728121374259         0.23011271E-05      0.20890120E-03     -0.15808610E-16      0.38564842E-09     -0.29183966E-22
    0.734398282657         0.23734559E-05      0.19970810E-03     -0.22606542E-16      0.37701532E-09     -0.42677350E-22
    0.740675191056         0.24473047E-05      0.21226455E-03     -0.18884063E-16      0.40968638E-09     -0.36447646E-22
    0.746952099455         0.25226788E-05      0.23030226E-03     -0.14858686E-16      0.45434026E-09     -0.29313213E-22
    0.753229007854         0.25995828E-05      0.26097291E-03     -0.25221117E-16      0.52612125E-09     -0.50845758E-22
    0.759505916252         0.26780200E-05      0.28836752E-03     -0.44177036E-17      0.59394030E-09     -0.90989867E-23
    0.765782824651         0.27579930E-05      0.24351455E-03     -0.13528086E-16      0.51230223E-09     -0.28460183E-22
    0.772059733050         0.28395032E-05      0.21527178E-03     -0.81578327E-17      0.46247938E-09     -0.17525889E-22
    0.778336641449         0.29225512E-05      0.25580920E-03     -0.17642646E-16      0.56107978E-09     -0.38696543E-22
    0.784613549848         0.30071363E-05      0.27419093E-03     -0.12504540E-16      0.61385275E-09     -0.27994894E-22
    0.790890458246         0.30932570E-05      0.29077157E-03     -0.23285323E-16      0.66430177E-09     -0.53198053E-22
    0.797167366645         0.31809104E-05      0.30258855E-03     -0.17566685E-16      0.70529079E-09     -0.40945440E-22
    0.803444275044         0.32700927E-05      0.31377178E-03     -0.11307474E-16      0.74598826E-09     -0.26883370E-22
    0.809721183443         0.33607990E-05      0.32092405E-03     -0.22901493E-16      0.77807795E-09     -0.55524499E-22
    0.815998091842         0.34530231E-05      0.32648573E-03     -0.16292723E-16      0.80702755E-09     -0.40273356E-22
    0.822275000240         0.35467578E-05      0.32876469E-03     -0.28274916E-16      0.82834913E-09     -0.71240930E-22
    0.828551908639         0.36419946E-05      0.32943023E-03     -0.21302602E-16      0.84585676E-09     -0.54697318E-22
    0.834828817038         0.37387238E-05      0.32777136E-03     -0.32825416E-16      0.85745385E-09     -0.85871687E-22
    0.841105725437         0.38369346E-05      0.32456919E-03     -0.25726238E-16      0.86487812E-09     -0.68552593E-22
    0.847382633835         0.39366149E-05      0.31951684E-03     -0.36768888E-16      0.86706354E-09     -0.99778661E-22
    0.853659542234         0.40377513E-05      0.31279684E-03     -0.11807040E-16      0.86423336E-09     -0.32621935E-22
    0.859936450633         0.41403294E-05      0.30451665E-03     -0.52205513E-17      0.85643297E-09     -0.14682456E-22
    0.866213359032         0.42443332E-05      0.29459817E-03     -0.15895150E-16      0.84319581E-09     -0.45494934E-22
    0.872490267431         0.43497456E-05      0.28357712E-03     -0.94621646E-17      0.82582546E-09     -0.27555454E-22
    0.878767175829         0.44565484E-05      0.27125251E-03     -0.18865462E-16      0.80354902E-09     -0.55886390E-22
    0.885044084228         0.45647219E-05      0.25829696E-03     -0.12784196E-16      0.77818439E-09     -0.38515597E-22
    0.891320992627         0.46742450E-05      0.24443115E-03     -0.21011573E-16      0.74876871E-09     -0.64364991E-22
    0.897597901026         0.47850957E-05      0.23002629E-03     -0.15273747E-16      0.71630846E-09     -0.47562885E-22
    0.903874809424         0.48972503E-05      0.21494440E-03     -0.10046104E-16      0.68027412E-09     -0.31794755E-22
    0.910151717823         0.50106841E-05      0.19847032E-03     -0.16847855E-16      0.63825263E-09     -0.54180330E-22
    0.916428626222         0.51253709E-05      0.18175944E-03     -0.11916120E-16      0.59379622E-09     -0.38929188E-22
    0.922705534621         0.52412834E-05      0.16041141E-03     -0.16710496E-16      0.53225967E-09     -0.55446950E-22
    0.928982443020         0.53583927E-05      0.17659615E-03     -0.14208575E-16      0.59500699E-09     -0.47873078E-22
    0.935259351418         0.54766690E-05      0.33238560E-03     -0.34732189E-16      0.11369476E-08     -0.11880382E-21
    0.941536259817         0.55960809E-05      0.37335512E-03     -0.95599288E-17      0.12962323E-08     -0.33190622E-22
    0.947813168216         0.57165958E-05      0.26098036E-03     -0.17315452E-16      0.91946750E-09     -0.61004570E-22
    0.954090076615         0.58381799E-05      0.21355136E-03     -0.10558478E-16      0.76331579E-09     -0.37740115E-22
    0.960366985013         0.59607981E-05      0.18922972E-03     -0.57607726E-17      0.68607301E-09     -0.20886310E-22
    0.966643893412         0.60844141E-05      0.17099501E-03     -0.11740884E-16      0.62870873E-09     -0.43168488E-22
    0.972920801811         0.62089900E-05      0.15737468E-03     -0.77662455E-17      0.58666766E-09     -0.28951321E-22
    0.979197710210         0.63344872E-05      0.14457322E-03     -0.12573060E-16      0.54631451E-09     -0.47511186E-22
    0.985474618609         0.64608656E-05      0.13394086E-03     -0.91594870E-17      0.51294660E-09     -0.35077628E-22
    0.991751527007         0.65880838E-05      0.12057362E-03     -0.12930219E-16      0.46786692E-09     -0.50173674E-22
    0.998028435406         0.67160994E-05      0.11901657E-03     -0.10363789E-16      0.46783793E-09     -0.40738645E-22
    1.004305343805         0.68448687E-05      0.13122618E-03     -0.15699778E-16      0.52243664E-09     -0.62503835E-22
    1.010582252204         0.69743470E-05      0.13144711E-03     -0.12946161E-16      0.52990341E-09     -0.52189927E-22
    1.016859160602         0.71044882E-05      0.12014051E-03     -0.96020458E-17      0.49031509E-09     -0.39187682E-22
