 
 # Omega; pulse ft; projected flux at t=    500.250000000000     
    0.000000000000         0.10341091E-10      0.00000000E+00      0.00000000E+00      0.83806905E-08      0.97302910E-19
    0.006276908399         0.40699280E-10      0.21448883E+01      0.26002269E-10      0.81238039E-08      0.98484069E-19
    0.012553816798         0.13187398E-09      0.12817507E+01      0.16147795E-10      0.78650357E-08      0.99085562E-19
    0.018830725196         0.28416575E-09      0.89662240E+00      0.11104266E-10      0.79036569E-08      0.97883242E-19
    0.025107633595         0.49807598E-09      0.68953386E+00      0.84461288E-11      0.79902288E-08      0.97872643E-19
    0.031384541994         0.77430759E-09      0.56167301E+00      0.67705318E-11      0.80945941E-08      0.97574044E-19
    0.037661450393         0.11137660E-08      0.47471236E+00      0.56195137E-11      0.82005178E-08      0.97075461E-19
    0.043938358791         0.15175606E-08      0.41226697E+00      0.48471907E-11      0.83175333E-08      0.97792627E-19
    0.050215267190         0.19870057E-08      0.36477772E+00      0.43095706E-11      0.84315116E-08      0.99611881E-19
    0.056492175589         0.25236231E-08      0.32792534E+00      0.37916879E-11      0.85570680E-08      0.98942433E-19
    0.062769083988         0.31291437E-08      0.29794611E+00      0.33975221E-11      0.86762334E-08      0.98936333E-19
    0.069045992387         0.38055096E-08      0.27358007E+00      0.30661151E-11      0.88079047E-08      0.98713511E-19
    0.075322900785         0.45548772E-08      0.25293289E+00      0.27813245E-11      0.89344691E-08      0.98246051E-19
    0.081599809184         0.53796196E-08      0.23564127E+00      0.25422717E-11      0.90746019E-08      0.97903495E-19
    0.087876717583         0.62823298E-08      0.22046869E+00      0.23464355E-11      0.92067772E-08      0.97987195E-19
    0.094153625982         0.72658239E-08      0.20750778E+00      0.21828892E-11      0.93539706E-08      0.98399596E-19
    0.100430534380         0.83331444E-08      0.19585636E+00      0.20371656E-11      0.94928062E-08      0.98737758E-19
    0.106707442779         0.94875639E-08      0.18575429E+00      0.19095808E-11      0.96474527E-08      0.99177198E-19
    0.112984351178         0.10732589E-07      0.17650463E+00      0.17827900E-11      0.97939102E-08      0.98923667E-19
    0.119261259577         0.12071965E-07      0.16839314E+00      0.16508197E-11      0.99567306E-08      0.97609484E-19
    0.125538167976         0.13509678E-07      0.16084812E+00      0.15565336E-11      0.10111114E-07      0.97845644E-19
    0.131815076374         0.15049961E-07      0.15416990E+00      0.14617838E-11      0.10282144E-07      0.97491610E-19
    0.138091984773         0.16697298E-07      0.14789221E+00      0.13950722E-11      0.10445682E-07      0.98534478E-19
    0.144368893172         0.18456429E-07      0.14228959E+00      0.13077672E-11      0.10625784E-07      0.97660355E-19
    0.150645801571         0.20332352E-07      0.13697511E+00      0.12396940E-11      0.10799062E-07      0.97736973E-19
    0.156922709970         0.22330332E-07      0.13219648E+00      0.11868694E-11      0.10988618E-07      0.98656591E-19
    0.163199618368         0.24455902E-07      0.12763370E+00      0.11070638E-11      0.11172328E-07      0.96906070E-19
    0.169476526767         0.26714868E-07      0.12349954E+00      0.10642062E-11      0.11371627E-07      0.97990297E-19
    0.175753435166         0.29113317E-07      0.11954449E+00      0.10034282E-11      0.11567280E-07      0.97093013E-19
    0.182030343565         0.31657619E-07      0.11593215E+00      0.95815207E-12      0.11777474E-07      0.97338065E-19
    0.188307251963         0.34354433E-07      0.11247009E+00      0.90333372E-12      0.11985787E-07      0.96267073E-19
    0.194584160362         0.37210710E-07      0.10928285E+00      0.87657632E-12      0.12207488E-07      0.97918332E-19
    0.200861068761         0.40233700E-07      0.10623123E+00      0.83623166E-12      0.12429688E-07      0.97844093E-19
    0.207137977160         0.43430955E-07      0.10339818E+00      0.78805973E-12      0.12663867E-07      0.96518949E-19
    0.213414885559         0.46810335E-07      0.10069510E+00      0.76252705E-12      0.12901469E-07      0.97698095E-19
    0.219691793957         0.50380010E-07      0.98165330E-01      0.72334347E-12      0.13149715E-07      0.96895317E-19
    0.225968702356         0.54148468E-07      0.95756299E-01      0.69648592E-12      0.13403525E-07      0.97490887E-19
    0.232245610755         0.58124513E-07      0.93486466E-01      0.67494841E-12      0.13667037E-07      0.98672514E-19
    0.238522519154         0.62317278E-07      0.91329471E-01      0.64385256E-12      0.13938108E-07      0.98260578E-19
    0.244799427552         0.66736218E-07      0.89285142E-01      0.62853013E-12      0.14218186E-07      0.10009009E-18
    0.251076335951         0.71391124E-07      0.87348531E-01      0.58370737E-12      0.14508010E-07      0.96949910E-19
    0.257353244350         0.76292116E-07      0.85502715E-01      0.57808764E-12      0.14806204E-07      0.10010540E-18
    0.263630152749         0.81449655E-07      0.83760930E-01      0.54367494E-12      0.15116438E-07      0.98117683E-19
    0.269907061148         0.86874540E-07      0.82093882E-01      0.52414261E-12      0.15434866E-07      0.98546576E-19
    0.276183969546         0.92577913E-07      0.80523685E-01      0.50427491E-12      0.15766902E-07      0.98739309E-19
    0.282460877945         0.98571259E-07      0.79017678E-01      0.48684908E-12      0.16107571E-07      0.99243062E-19
    0.288737786344         0.10486641E-06      0.77604521E-01      0.46587259E-12      0.16463933E-07      0.98835675E-19
    0.295014694743         0.11147554E-06      0.76248772E-01      0.44348080E-12      0.16829941E-07      0.97886899E-19
    0.301291603141         0.11841119E-06      0.74973161E-01      0.43634356E-12      0.17211762E-07      0.10017240E-18
    0.307568511540         0.12568621E-06      0.73751532E-01      0.40492717E-12      0.17604781E-07      0.96657709E-19
    0.313845419939         0.13331385E-06      0.72611338E-01      0.38983504E-12      0.18016802E-07      0.96728433E-19
    0.320122328338         0.14130766E-06      0.71524801E-01      0.37885730E-12      0.18442518E-07      0.97687549E-19
    0.326399236737         0.14968158E-06      0.70494248E-01      0.35987498E-12      0.18883683E-07      0.96401697E-19
    0.332676145135         0.15844985E-06      0.69525408E-01      0.35013115E-12      0.19343165E-07      0.97412511E-19
    0.338953053534         0.16762710E-06      0.68608600E-01      0.32899594E-12      0.19819699E-07      0.95040571E-19
    0.345229961933         0.17722828E-06      0.67756601E-01      0.32949312E-12      0.20318421E-07      0.98806311E-19
    0.351506870332         0.18726866E-06      0.66941551E-01      0.31518983E-12      0.20832475E-07      0.98088318E-19
    0.357783778731         0.19776389E-06      0.66201643E-01      0.30337369E-12      0.21375137E-07      0.97953074E-19
    0.364060687129         0.20872991E-06      0.65479706E-01      0.29268805E-12      0.21929636E-07      0.98023384E-19
    0.370337595528         0.22018301E-06      0.64843438E-01      0.27847701E-12      0.22519868E-07      0.96713957E-19
    0.376614503927         0.23213979E-06      0.64223581E-01      0.27814913E-12      0.23123889E-07      0.10014841E-18
    0.382891412326         0.24461718E-06      0.63702208E-01      0.26598458E-12      0.23772761E-07      0.99261674E-19
    0.389168320724         0.25763241E-06      0.63166401E-01      0.26014853E-12      0.24426596E-07      0.10060005E-18
    0.395445229123         0.27120301E-06      0.62751678E-01      0.24320681E-12      0.25138960E-07      0.97431123E-19
    0.401722137522         0.28534681E-06      0.62300233E-01      0.23578376E-12      0.25849415E-07      0.97830651E-19
    0.407999045921         0.30008192E-06      0.61994481E-01      0.22896060E-12      0.26634682E-07      0.98368318E-19
    0.414275954320         0.31542674E-06      0.61626948E-01      0.21633023E-12      0.27409004E-07      0.96214340E-19
    0.420552862718         0.33139993E-06      0.61437083E-01      0.21507184E-12      0.28279792E-07      0.98998630E-19
    0.426829771117         0.34802041E-06      0.61150618E-01      0.20911127E-12      0.29124915E-07      0.99595854E-19
    0.433106679516         0.36530735E-06      0.61086633E-01      0.19975972E-12      0.30097022E-07      0.98420431E-19
    0.439383587915         0.38328015E-06      0.60880639E-01      0.19035647E-12      0.31021693E-07      0.96996026E-19
    0.445660496313         0.40195843E-06      0.60970311E-01      0.18425469E-12      0.32122491E-07      0.97075435E-19
    0.451937404712         0.42136202E-06      0.60850749E-01      0.18100820E-12      0.33140331E-07      0.98580077E-19
    0.458214313111         0.44151098E-06      0.61273247E-01      0.16912723E-12      0.34487170E-07      0.95191945E-19
    0.464491221510         0.46242550E-06      0.61116812E-01      0.16873667E-12      0.35541746E-07      0.98126782E-19
    0.470768129909         0.48412598E-06      0.60756331E-01      0.16762821E-12      0.36496959E-07      0.10069600E-18
    0.477045038307         0.50663295E-06      0.60757430E-01      0.15765033E-12      0.37691832E-07      0.97800873E-19
    0.483321946706         0.52996708E-06      0.61420304E-01      0.15054572E-12      0.39340343E-07      0.96426098E-19
    0.489598855105         0.55414917E-06      0.61484941E-01      0.14543812E-12      0.40650778E-07      0.96156437E-19
    0.495875763504         0.57920011E-06      0.62209279E-01      0.14309458E-12      0.42444823E-07      0.97632128E-19
    0.502152671902         0.60514088E-06      0.62288542E-01      0.13375886E-12      0.43847283E-07      0.94157969E-19
    0.508429580301         0.63199252E-06      0.63244356E-01      0.13428602E-12      0.45921567E-07      0.97504742E-19
    0.514706488700         0.65977612E-06      0.63228354E-01      0.13365706E-12      0.47343747E-07      0.10007893E-18
    0.520983397099         0.68851279E-06      0.64239150E-01      0.12474582E-12      0.49590869E-07      0.96300367E-19
    0.527260305498         0.71822366E-06      0.64318450E-01      0.11972885E-12      0.51178082E-07      0.95268046E-19
    0.533537213896         0.74892983E-06      0.65933168E-01      0.11733489E-12      0.54062256E-07      0.96209377E-19
    0.539814122295         0.78065236E-06      0.65860391E-01      0.11238127E-12      0.55635442E-07      0.94933865E-19
    0.546091030694         0.81341227E-06      0.67792614E-01      0.10871379E-12      0.58985037E-07      0.94589757E-19
    0.552367939093         0.84723047E-06      0.67338925E-01      0.10489455E-12      0.60332745E-07      0.93980952E-19
    0.558644847491         0.88212778E-06      0.69756020E-01      0.10415680E-12      0.64341502E-07      0.96072065E-19
    0.564921755890         0.91812490E-06      0.68598596E-01      0.97991093E-13      0.65124215E-07      0.93028040E-19
    0.571198664289         0.95524236E-06      0.71788821E-01      0.94772727E-13      0.70128898E-07      0.92581363E-19
    0.577475572688         0.99350052E-06      0.69068268E-01      0.89418181E-13      0.69410768E-07      0.89861593E-19
    0.583752481087         0.10329195E-05      0.73304778E-01      0.91537466E-13      0.75767653E-07      0.94612918E-19
    0.590029389485         0.10735193E-05      0.67200583E-01      0.91304622E-13      0.71420529E-07      0.97038212E-19
    0.596306297884         0.11153196E-05      0.72899502E-01      0.86712852E-13      0.79646792E-07      0.94738650E-19
    0.602583206283         0.11583396E-05      0.58106188E-01      0.86587129E-13      0.65246178E-07      0.97226809E-19
    0.608860114682         0.12025986E-05      0.65973597E-01      0.81427282E-13      0.76117960E-07      0.93947865E-19
    0.615137023081         0.12481153E-05      0.21790334E-01      0.82746422E-13      0.25826200E-07      0.98072188E-19
    0.621413931479         0.12949080E-05      0.30969136E-01      0.78602133E-13      0.37696482E-07      0.95676673E-19
    0.627690839878         0.13429948E-05     -0.22113281E+00      0.84070532E-13     -0.27637294E-06      0.10507179E-18
    0.633967748277         0.13923932E-05     -0.80223380E+00      0.12886761E-12     -0.10292230E-05      0.16533024E-18
    0.640244656676         0.14431204E-05     -0.54756743E-01      0.77329581E-13     -0.72095476E-07      0.10181601E-18
    0.646521565074         0.14951931E-05      0.52100857E+00      0.61760169E-13      0.70383834E-06      0.83432745E-19
    0.652798473473         0.15486273E-05      0.37433278E+00      0.49224709E-13      0.51872772E-06      0.68212622E-19
    0.659075381872         0.16034389E-05      0.43447083E+00      0.53512450E-13      0.61743570E-06      0.76047677E-19
    0.665352290271         0.16596427E-05      0.46036996E+00      0.32681707E-13      0.67078560E-06      0.47619134E-19
    0.671629198670         0.17172535E-05      0.60874924E+00      0.67665550E-13      0.90919507E-06      0.10106162E-18
    0.677906107068         0.17762849E-05      0.74531868E+00      0.40917414E-13      0.11407721E-05      0.62627499E-19
    0.684183015467         0.18367504E-05      0.15541912E+01      0.44224197E-13      0.24372278E-05      0.69350823E-19
    0.690459923866         0.18986625E-05      0.37294149E+01      0.91490644E-13      0.59905100E-05      0.14696022E-18
    0.696736832265         0.19620330E-05      0.63475761E+01     -0.11585945E-12      0.10441413E-04     -0.19058241E-18
    0.703013740663         0.20268732E-05      0.66370177E+01      0.13328142E-13      0.11177625E-04      0.22446373E-19
    0.709290649062         0.20931935E-05      0.70567256E+01     -0.24518952E-12      0.12164722E-04     -0.42266944E-18
    0.715567557461         0.21610035E-05      0.10444832E+02     -0.17237573E-12      0.18425534E-04     -0.30408483E-18
    0.721844465860         0.22303120E-05      0.14343740E+02     -0.78000167E-12      0.25887982E-04     -0.14077688E-17
    0.728121374259         0.23011271E-05      0.14828693E+02     -0.50287522E-12      0.27374960E-04     -0.92834811E-18
    0.734398282657         0.23734559E-05      0.13641844E+02     -0.95838110E-12      0.25753508E-04     -0.18092624E-17
    0.740675191056         0.24473047E-05      0.13434482E+02     -0.66004583E-12      0.25929549E-04     -0.12739376E-17
    0.746952099455         0.25226788E-05      0.13330546E+02     -0.37869178E-12      0.26298498E-04     -0.74708306E-18
    0.753229007854         0.25995828E-05      0.14221117E+02     -0.92014019E-12      0.28669765E-04     -0.18550022E-17
    0.759505916252         0.26780200E-05      0.14383648E+02      0.18588412E-12      0.29625487E-04      0.38285889E-18
    0.765782824651         0.27579930E-05      0.12236558E+02     -0.27942061E-12      0.25743086E-04     -0.58784087E-18
    0.772059733050         0.28395032E-05      0.11682037E+02     -0.26021898E-13      0.25097118E-04     -0.55904175E-19
    0.778336641449         0.29225512E-05      0.13034077E+02     -0.50976003E-12      0.28588326E-04     -0.11180835E-17
    0.784613549848         0.30071363E-05      0.13116372E+02     -0.23760131E-12      0.29364651E-04     -0.53193669E-18
    0.790890458246         0.30932570E-05      0.13176628E+02     -0.71778138E-12      0.30103552E-04     -0.16398558E-17
    0.797167366645         0.31809104E-05      0.13100399E+02     -0.43971365E-12      0.30535164E-04     -0.10249099E-17
    0.803444275044         0.32700927E-05      0.12984072E+02     -0.16531040E-12      0.30869460E-04     -0.39302329E-18
    0.809721183443         0.33607990E-05      0.12795394E+02     -0.62815837E-12      0.31022337E-04     -0.15229652E-17
    0.815998091842         0.34530231E-05      0.12490791E+02     -0.35500618E-12      0.30875507E-04     -0.87752613E-18
    0.822275000240         0.35467578E-05      0.12152495E+02     -0.78935096E-12      0.30619190E-04     -0.19888334E-17
    0.828551908639         0.36419946E-05      0.11684268E+02     -0.51198665E-12      0.30000941E-04     -0.13145951E-17
    0.834828817038         0.37387238E-05      0.11233151E+02     -0.89430204E-12      0.29386060E-04     -0.23395050E-17
    0.841105725437         0.38369346E-05      0.10667154E+02     -0.62557270E-12      0.28424720E-04     -0.16669608E-17
    0.847382633835         0.39366149E-05      0.10147709E+02     -0.95700736E-12      0.27537543E-04     -0.25970030E-17
    0.853659542234         0.40377513E-05      0.95305644E+01     -0.16186970E-12      0.26332209E-04     -0.44723340E-18
    0.859936450633         0.41403294E-05      0.89705031E+01      0.34936223E-13      0.25228948E-04      0.98255822E-19
    0.866213359032         0.42443332E-05      0.83340788E+01     -0.27048806E-12      0.23853713E-04     -0.77418811E-18
    0.872490267431         0.43497456E-05      0.77602860E+01     -0.86094407E-13      0.22599290E-04     -0.25072175E-18
    0.878767175829         0.44565484E-05      0.71352744E+01     -0.33225217E-12      0.21137289E-04     -0.98425228E-18
    0.885044084228         0.45647219E-05      0.65770116E+01     -0.16644042E-12      0.19814897E-04     -0.50144350E-18
    0.891320992627         0.46742450E-05      0.59875077E+01     -0.36333273E-12      0.18341601E-04     -0.11130013E-17
    0.897597901026         0.47850957E-05      0.54663926E+01     -0.21950845E-12      0.17022503E-04     -0.68355559E-18
    0.903874809424         0.48972503E-05      0.49187555E+01     -0.92601619E-13      0.15567291E-04     -0.29307340E-18
    0.910151717823         0.50106841E-05      0.44404721E+01     -0.24311120E-12      0.14279933E-04     -0.78181141E-18
    0.916428626222         0.51253709E-05      0.39084496E+01     -0.12885944E-12      0.12768650E-04     -0.42097537E-18
    0.922705534621         0.52412834E-05      0.34615858E+01     -0.23511028E-12      0.11485857E-04     -0.78011734E-18
    0.928982443020         0.53583927E-05      0.29983537E+01     -0.13776536E-12      0.10102380E-04     -0.46417406E-18
    0.935259351418         0.54766690E-05      0.35105451E+01     -0.29220260E-12      0.12008058E-04     -0.99949888E-18
    0.941536259817         0.55960809E-05      0.42522351E+01     -0.31960301E-13      0.14763115E-04     -0.11096132E-18
    0.947813168216         0.57165958E-05      0.35181541E+01     -0.14954164E-12      0.12394911E-04     -0.52685449E-18
    0.954090076615         0.58381799E-05      0.28593245E+01     -0.58058323E-13      0.10220340E-04     -0.20752307E-18
    0.960366985013         0.59607981E-05      0.25394032E+01      0.43220624E-14      0.92068836E-05      0.15670110E-19
    0.966643893412         0.60844141E-05      0.22248085E+01     -0.73604627E-13      0.81801015E-05     -0.27062703E-18
    0.972920801811         0.62089900E-05      0.20076672E+01     -0.22267379E-13      0.74842625E-05     -0.83009229E-19
    0.979197710210         0.63344872E-05      0.17943065E+01     -0.81816009E-13      0.67803407E-05     -0.30916703E-18
    0.985474618609         0.64608656E-05      0.16482681E+01     -0.39922566E-13      0.63122898E-05     -0.15288945E-18
    0.991751527007         0.65880838E-05      0.15723327E+01     -0.94191359E-13      0.61011890E-05     -0.36549472E-18
    0.998028435406         0.67160994E-05      0.20206798E+01     -0.87054989E-13      0.79430172E-05     -0.34220131E-18
    1.004305343805         0.68448687E-05      0.22285471E+01     -0.17914275E-12      0.88722744E-05     -0.71320174E-18
    1.010582252204         0.69743470E-05      0.15218691E+01     -0.83310130E-13      0.61351188E-05     -0.33584856E-18
    1.016859160602         0.71044882E-05      0.11150560E+01     -0.31962094E-13      0.45507447E-05     -0.13044307E-18
