 
 # Omega; pulse ft; projected flux at t=    500.250000000000     
    0.000000000000         0.10341091E-10      0.00000000E+00      0.00000000E+00      0.84366246E-09     -0.84041550E-20
    0.006276908399         0.40699280E-10      0.19898961E+00     -0.22292371E-11      0.75367678E-09     -0.84432765E-20
    0.012553816798         0.13187398E-09      0.10620154E+00     -0.13752197E-11      0.65167035E-09     -0.84385775E-20
    0.018830725196         0.28416575E-09      0.72331183E-01     -0.95059161E-12      0.63759376E-09     -0.83793913E-20
    0.025107633595         0.49807598E-09      0.55045873E-01     -0.72100149E-12      0.63786443E-09     -0.83548715E-20
    0.031384541994         0.77430759E-09      0.44528737E-01     -0.58839420E-12      0.64172935E-09     -0.84796886E-20
    0.037661450393         0.11137660E-08      0.37452531E-01     -0.49179040E-12      0.64698157E-09     -0.84955359E-20
    0.043938358791         0.15175606E-08      0.32357538E-01     -0.41635066E-12      0.65281703E-09     -0.83999222E-20
    0.050215267190         0.19870057E-08      0.28564068E-01     -0.36272341E-12      0.66023295E-09     -0.83840280E-20
    0.056492175589         0.25236231E-08      0.25591448E-01     -0.32407941E-12      0.66779762E-09     -0.84567101E-20
    0.062769083988         0.31291437E-08      0.23191041E-01     -0.28988151E-12      0.67532645E-09     -0.84413911E-20
    0.069045992387         0.38055096E-08      0.21217341E-01     -0.25878255E-12      0.68309184E-09     -0.83314988E-20
    0.075322900785         0.45548772E-08      0.19571680E-01     -0.23900150E-12      0.69133978E-09     -0.84423637E-20
    0.081599809184         0.53796196E-08      0.18170615E-01     -0.22083139E-12      0.69975474E-09     -0.85042697E-20
    0.087876717583         0.62823298E-08      0.16962948E-01     -0.20339566E-12      0.70837307E-09     -0.84938072E-20
    0.094153625982         0.72658239E-08      0.15910809E-01     -0.18764094E-12      0.71722246E-09     -0.84584194E-20
    0.100430534380         0.83331444E-08      0.14984089E-01     -0.17488920E-12      0.72625191E-09     -0.84765656E-20
    0.106707442779         0.94875639E-08      0.14162002E-01     -0.16246282E-12      0.73552671E-09     -0.84377722E-20
    0.112984351178         0.10732589E-07      0.13426832E-01     -0.15052914E-12      0.74502965E-09     -0.83525790E-20
    0.119261259577         0.12071965E-07      0.12765250E-01     -0.14296683E-12      0.75478229E-09     -0.84533270E-20
    0.125538167976         0.13509678E-07      0.12165978E-01     -0.13598964E-12      0.76476854E-09     -0.85484787E-20
    0.131815076374         0.15049961E-07      0.11620382E-01     -0.12717138E-12      0.77500500E-09     -0.84815158E-20
    0.138091984773         0.16697298E-07      0.11122132E-01     -0.11815915E-12      0.78556036E-09     -0.83456255E-20
    0.144368893172         0.18456429E-07      0.10664183E-01     -0.11419873E-12      0.79637100E-09     -0.85280382E-20
    0.150645801571         0.20332352E-07      0.10242330E-01     -0.10744849E-12      0.80750115E-09     -0.84711954E-20
    0.156922709970         0.22330332E-07      0.98518421E-02     -0.10042215E-12      0.81891840E-09     -0.83474285E-20
    0.163199618368         0.24455902E-07      0.94893664E-02     -0.95995067E-13      0.83064520E-09     -0.84028626E-20
    0.169476526767         0.26714868E-07      0.91519305E-02     -0.92287946E-13      0.84269417E-09     -0.84977169E-20
    0.175753435166         0.29113317E-07      0.88369290E-02     -0.88272256E-13      0.85507269E-09     -0.85413378E-20
    0.182030343565         0.31657619E-07      0.85421941E-02     -0.84406594E-13      0.86779612E-09     -0.85748127E-20
    0.188307251963         0.34354433E-07      0.82661834E-02     -0.79714856E-13      0.88091617E-09     -0.84951061E-20
    0.194584160362         0.37210710E-07      0.80068408E-02     -0.76008220E-13      0.89440757E-09     -0.84905308E-20
    0.200861068761         0.40233700E-07      0.77630655E-02     -0.71744980E-13      0.90832498E-09     -0.83945907E-20
    0.207137977160         0.43430955E-07      0.75334871E-02     -0.69503253E-13      0.92267659E-09     -0.85125286E-20
    0.213414885559         0.46810335E-07      0.73161633E-02     -0.67384621E-13      0.93737688E-09     -0.86335942E-20
    0.219691793957         0.50380010E-07      0.71112110E-02     -0.62498208E-13      0.95258071E-09     -0.83719338E-20
    0.225968702356         0.54148468E-07      0.69168276E-02     -0.59872368E-13      0.96818563E-09     -0.83806579E-20
    0.232245610755         0.58124513E-07      0.67330261E-02     -0.57255917E-13      0.98431910E-09     -0.83703957E-20
    0.238522519154         0.62317278E-07      0.65591869E-02     -0.55536736E-13      0.10010203E-08     -0.84756544E-20
    0.244799427552         0.66736218E-07      0.63945830E-02     -0.51845788E-13      0.10183035E-08     -0.82561672E-20
    0.251076335951         0.71391124E-07      0.62378051E-02     -0.50849865E-13      0.10360579E-08     -0.84458242E-20
    0.257353244350         0.76292116E-07      0.60895094E-02     -0.48457741E-13      0.10544989E-08     -0.83912562E-20
    0.263630152749         0.81449655E-07      0.59481557E-02     -0.46576290E-13      0.10734709E-08     -0.84056801E-20
    0.269907061148         0.86874540E-07      0.58145572E-02     -0.44595215E-13      0.10932229E-08     -0.83845612E-20
    0.276183969546         0.92577913E-07      0.56867339E-02     -0.42792168E-13      0.11134882E-08     -0.83789002E-20
    0.282460877945         0.98571259E-07      0.55662426E-02     -0.41722675E-13      0.11346657E-08     -0.85050711E-20
    0.288737786344         0.10486641E-06      0.54502450E-02     -0.39480957E-13      0.11562789E-08     -0.83759533E-20
    0.295014694743         0.11147554E-06      0.53414129E-02     -0.38120239E-13      0.11789785E-08     -0.84140553E-20
    0.301291603141         0.11841119E-06      0.52346760E-02     -0.36963800E-13      0.12017367E-08     -0.84858650E-20
    0.307568511540         0.12568621E-06      0.51352059E-02     -0.35284654E-13      0.12257938E-08     -0.84225856E-20
    0.313845419939         0.13331385E-06      0.50285716E-02     -0.33805428E-13      0.12477222E-08     -0.83880250E-20
    0.320122328338         0.14130766E-06      0.49258762E-02     -0.33089202E-13      0.12701267E-08     -0.85319803E-20
    0.326399236737         0.14968158E-06      0.49239036E-02     -0.31647414E-13      0.13189932E-08     -0.84775673E-20
    0.332676145135         0.15844985E-06      0.48808854E-02     -0.29884679E-13      0.13579463E-08     -0.83144318E-20
    0.338953053534         0.16762710E-06      0.47747535E-02     -0.29651838E-13      0.13793340E-08     -0.85658430E-20
    0.345229961933         0.17722828E-06      0.47027476E-02     -0.28008067E-13      0.14102302E-08     -0.83988817E-20
    0.351506870332         0.18726866E-06      0.46368829E-02     -0.26962769E-13      0.14430163E-08     -0.83909201E-20
    0.357783778731         0.19776389E-06      0.45799006E-02     -0.26273606E-13      0.14787549E-08     -0.84832025E-20
    0.364060687129         0.20872991E-06      0.45270800E-02     -0.25386804E-13      0.15161524E-08     -0.85022276E-20
    0.370337595528         0.22018301E-06      0.44824089E-02     -0.24514409E-13      0.15567227E-08     -0.85137565E-20
    0.376614503927         0.23213979E-06      0.44358754E-02     -0.23314592E-13      0.15971500E-08     -0.83944874E-20
    0.382891412326         0.24461718E-06      0.43985187E-02     -0.22864561E-13      0.16414648E-08     -0.85327299E-20
    0.389168320724         0.25763241E-06      0.43648851E-02     -0.22192642E-13      0.16879114E-08     -0.85819472E-20
    0.395445229123         0.27120301E-06      0.43403195E-02     -0.21152346E-13      0.17387761E-08     -0.84738450E-20
    0.401722137522         0.28534681E-06      0.43169450E-02     -0.20475079E-13      0.17911732E-08     -0.84954551E-20
    0.407999045921         0.30008192E-06      0.43056242E-02     -0.19700850E-13      0.18498249E-08     -0.84640739E-20
    0.414275954320         0.31542674E-06      0.42941228E-02     -0.19195389E-13      0.19098403E-08     -0.85372794E-20
    0.420552862718         0.33139993E-06      0.43005045E-02     -0.18223993E-13      0.19795434E-08     -0.83885937E-20
    0.426829771117         0.34802041E-06      0.43022590E-02     -0.17822171E-13      0.20490869E-08     -0.84883723E-20
    0.433106679516         0.36530735E-06      0.43365277E-02     -0.17270982E-13      0.21365815E-08     -0.85093104E-20
    0.439383587915         0.38328015E-06      0.43550602E-02     -0.16642656E-13      0.22191183E-08     -0.84802556E-20
    0.445660496313         0.40195843E-06      0.44559408E-02     -0.16108371E-13      0.23476330E-08     -0.84867697E-20
    0.451937404712         0.42136202E-06      0.45090952E-02     -0.15708699E-13      0.24557283E-08     -0.85552189E-20
    0.458214313111         0.44151098E-06      0.50695411E-02     -0.15129671E-13      0.28533517E-08     -0.85156176E-20
    0.464491221510         0.46242550E-06      0.75123537E-02     -0.14470093E-13      0.43687188E-08     -0.84149084E-20
    0.470768129909         0.48412598E-06      0.66579684E-02     -0.13953698E-13      0.39995108E-08     -0.83821313E-20
    0.477045038307         0.50663295E-06      0.46675751E-02     -0.13685100E-13      0.28956040E-08     -0.84897682E-20
    0.483321946706         0.52996708E-06      0.47967257E-02     -0.13175107E-13      0.30723527E-08     -0.84387932E-20
    0.489598855105         0.55414917E-06      0.49788077E-02     -0.12974935E-13      0.32917394E-08     -0.85783799E-20
    0.495875763504         0.57920011E-06      0.51938407E-02     -0.12616401E-13      0.35437101E-08     -0.86080550E-20
    0.502152671902         0.60514088E-06      0.58599976E-02     -0.12167027E-13      0.41250760E-08     -0.85648349E-20
    0.508429580301         0.63199252E-06      0.72002569E-02     -0.11601188E-13      0.52280884E-08     -0.84235938E-20
    0.514706488700         0.65977612E-06      0.16858564E-01     -0.11488466E-13      0.12623255E-07     -0.86022648E-20
    0.520983397099         0.68851279E-06      0.32137526E-01     -0.12138126E-13      0.24809292E-07     -0.93703020E-20
    0.527260305498         0.71822366E-06      0.29248411E-01     -0.11056820E-13      0.23272911E-07     -0.87978930E-20
    0.533537213896         0.74892983E-06      0.29072860E-01     -0.10248519E-13      0.23838448E-07     -0.84033278E-20
    0.539814122295         0.78065236E-06      0.36932275E-01     -0.11237343E-13      0.31198470E-07     -0.94927247E-20
    0.546091030694         0.81341227E-06      0.45333448E-01     -0.10318835E-13      0.39443753E-07     -0.89782184E-20
    0.552367939093         0.84723047E-06      0.50044298E-01     -0.11699266E-13      0.44837512E-07     -0.10482033E-19
    0.558644847491         0.88212778E-06      0.53931557E-01     -0.10698707E-13      0.49745347E-07     -0.98682647E-20
    0.564921755890         0.91812490E-06      0.57287539E-01     -0.12606124E-13      0.54386040E-07     -0.11967649E-19
    0.571198664289         0.95524236E-06      0.60860210E-01     -0.11265290E-13      0.59452982E-07     -0.11004811E-19
    0.577475572688         0.99350052E-06      0.67291835E-01     -0.13805016E-13      0.67625526E-07     -0.13873473E-19
    0.583752481087         0.10329195E-05      0.73839141E-01     -0.83422499E-14      0.76319970E-07     -0.86225307E-20
    0.590029389485         0.10735193E-05      0.85876829E-01     -0.63260704E-14      0.91269573E-07     -0.67233240E-20
    0.596306297884         0.11153196E-05      0.94694901E-01     -0.92124645E-14      0.10345949E-06     -0.10065134E-19
    0.602583206283         0.11583396E-05      0.11570088E+00     -0.72899969E-14      0.12991801E-06     -0.81857793E-20
    0.608860114682         0.12025986E-05      0.13077035E+00     -0.11723418E-13      0.15087812E-06     -0.13526057E-19
    0.615137023081         0.12481153E-05      0.18477819E+00     -0.95140031E-14      0.21900163E-06     -0.11276126E-19
    0.621413931479         0.12949080E-05      0.23796076E+00     -0.18614542E-13      0.28965237E-06     -0.22658131E-19
    0.627690839878         0.13429948E-05      0.63033992E+00     -0.24504246E-13      0.78780212E-06     -0.30625535E-19
    0.633967748277         0.13923932E-05      0.10850269E+01     -0.76544802E-13      0.13920314E-05     -0.98202882E-19
    0.640244656676         0.14431204E-05      0.73203165E+00     -0.38358206E-13      0.96382961E-06     -0.50504339E-19
    0.646521565074         0.14951931E-05      0.21580121E+00     -0.11286122E-13      0.29152911E-06     -0.15246593E-19
    0.652798473473         0.15486273E-05      0.85564952E-01     -0.11069351E-13      0.11857073E-06     -0.15339237E-19
    0.659075381872         0.16034389E-05      0.77214858E-01     -0.88473421E-14      0.10973167E-06     -0.12573145E-19
    0.665352290271         0.16596427E-05      0.81833767E-01     -0.11849163E-13      0.11923652E-06     -0.17264914E-19
    0.671629198670         0.17172535E-05      0.94109513E-01     -0.52104954E-14      0.14055690E-06     -0.77821152E-20
    0.677906107068         0.17762849E-05      0.99695211E-01     -0.87074885E-14      0.15259180E-06     -0.13327534E-19
    0.684183015467         0.18367504E-05      0.16246339E+00     -0.71990916E-14      0.25476935E-06     -0.11289361E-19
    0.690459923866         0.18986625E-05      0.27632735E+00     -0.28838009E-14      0.44386098E-06     -0.46322114E-20
    0.696736832265         0.19620330E-05      0.19702862E+00     -0.10523900E-13      0.32410122E-06     -0.17311236E-19
    0.703013740663         0.20268732E-05      0.88990024E-01     -0.55953048E-14      0.14987110E-06     -0.94232415E-20
    0.709290649062         0.20931935E-05      0.94104402E-01     -0.89404809E-14      0.16222168E-06     -0.15412029E-19
    0.715567557461         0.21610035E-05      0.10693943E+00     -0.70897924E-14      0.18864986E-06     -0.12506971E-19
    0.721844465860         0.22303120E-05      0.11068400E+00     -0.11116901E-13      0.19976557E-06     -0.20064093E-19
    0.728121374259         0.23011271E-05      0.10288058E+00     -0.83234222E-14      0.18992584E-06     -0.15365707E-19
    0.734398282657         0.23734559E-05      0.97615041E-01     -0.11637645E-13      0.18428079E-06     -0.21969917E-19
    0.740675191056         0.24473047E-05      0.99335575E-01     -0.95726395E-14      0.19172505E-06     -0.18475906E-19
    0.746952099455         0.25226788E-05      0.10239273E+00     -0.75539778E-14      0.20200036E-06     -0.14902486E-19
    0.753229007854         0.25995828E-05      0.10707426E+00     -0.11475493E-13      0.21586165E-06     -0.23134587E-19
    0.759505916252         0.26780200E-05      0.10236927E+00     -0.31036376E-14      0.21084633E-06     -0.63924518E-20
    0.765782824651         0.27579930E-05      0.10039234E+00     -0.67187773E-14      0.21120389E-06     -0.14134862E-19
    0.772059733050         0.28395032E-05      0.11919034E+00     -0.46018840E-14      0.25606269E-06     -0.98864627E-20
    0.778336641449         0.29225512E-05      0.12818061E+00     -0.92623301E-14      0.28114526E-06     -0.20315556E-19
    0.784613549848         0.30071363E-05      0.12955789E+00     -0.65264691E-14      0.29005141E-06     -0.14611318E-19
    0.790890458246         0.30932570E-05      0.13442648E+00     -0.11557124E-13      0.30711308E-06     -0.26403605E-19
    0.797167366645         0.31809104E-05      0.13894606E+00     -0.88635461E-14      0.32386347E-06     -0.20659663E-19
    0.803444275044         0.32700927E-05      0.14488693E+00     -0.59898299E-14      0.34446675E-06     -0.14240741E-19
    0.809721183443         0.33607990E-05      0.15051124E+00     -0.11441706E-13      0.36491337E-06     -0.27740329E-19
    0.815998091842         0.34530231E-05      0.15672562E+00     -0.84382501E-14      0.38740404E-06     -0.20858186E-19
    0.822275000240         0.35467578E-05      0.16256563E+00     -0.14539791E-13      0.40959721E-06     -0.36634175E-19
    0.828551908639         0.36419946E-05      0.16868669E+00     -0.11298675E-13      0.43312593E-06     -0.29010878E-19
    0.834828817038         0.37387238E-05      0.17464842E+00     -0.17666675E-13      0.45688239E-06     -0.46216235E-19
    0.841105725437         0.38369346E-05      0.18074020E+00     -0.14403589E-13      0.48161762E-06     -0.38381180E-19
    0.847382633835         0.39366149E-05      0.18686217E+00     -0.21459314E-13      0.50708244E-06     -0.58233515E-19
    0.853659542234         0.40377513E-05      0.19282194E+00     -0.70511421E-14      0.53275205E-06     -0.19481758E-19
    0.859936450633         0.41403294E-05      0.19885422E+00     -0.29740966E-14      0.55926437E-06     -0.83644504E-20
    0.866213359032         0.42443332E-05      0.20429138E+00     -0.10385602E-13      0.58472065E-06     -0.29725562E-19
    0.872490267431         0.43497456E-05      0.20982166E+00     -0.61353172E-14      0.61103682E-06     -0.17867101E-19
    0.878767175829         0.44565484E-05      0.21431252E+00     -0.13814056E-13      0.63487198E-06     -0.40922279E-19
    0.885044084228         0.45647219E-05      0.21901150E+00     -0.94536469E-14      0.65982707E-06     -0.28481483E-19
    0.891320992627         0.46742450E-05      0.22220322E+00     -0.17437344E-13      0.68067765E-06     -0.53416015E-19
    0.897597901026         0.47850957E-05      0.22581969E+00     -0.13022264E-13      0.70320898E-06     -0.40551702E-19
    0.903874809424         0.48972503E-05      0.22710699E+00     -0.83134040E-14      0.71876732E-06     -0.26310961E-19
    0.910151717823         0.50106841E-05      0.22904851E+00     -0.16692495E-13      0.73658775E-06     -0.53680713E-19
    0.916428626222         0.51253709E-05      0.22599316E+00     -0.11699763E-13      0.73830488E-06     -0.38222362E-19
    0.922705534621         0.52412834E-05      0.22276439E+00     -0.19560614E-13      0.73915255E-06     -0.64903900E-19
    0.928982443020         0.53583927E-05      0.19493440E+00     -0.13324022E-13      0.65679422E-06     -0.44892746E-19
    0.935259351418         0.54766690E-05      0.20512544E+00     -0.21218737E-13      0.70164553E-06     -0.72580136E-19
    0.941536259817         0.55960809E-05      0.27272169E+00     -0.63127694E-14      0.94684831E-06     -0.21916978E-19
    0.947813168216         0.57165958E-05      0.28434020E+00     -0.16664156E-13      0.10017672E-05     -0.58709971E-19
    0.954090076615         0.58381799E-05      0.27562002E+00     -0.10589720E-13      0.98517335E-06     -0.37851785E-19
    0.960366985013         0.59607981E-05      0.27575397E+00     -0.47747109E-14      0.99977616E-06     -0.17311236E-19
    0.966643893412         0.60844141E-05      0.27385409E+00     -0.14628776E-13      0.10068975E-05     -0.53786592E-19
    0.972920801811         0.62089900E-05      0.27438968E+00     -0.89325137E-14      0.10228808E-05     -0.33298983E-19
    0.979197710210         0.63344872E-05      0.27403953E+00     -0.18688794E-13      0.10355429E-05     -0.70621372E-19
    0.985474618609         0.64608656E-05      0.27438014E+00     -0.13049481E-13      0.10507799E-05     -0.49974944E-19
    0.991751527007         0.65880838E-05      0.27426402E+00     -0.22974833E-13      0.10642383E-05     -0.89150218E-19
    0.998028435406         0.67160994E-05      0.26415699E+00     -0.16807646E-13      0.10383651E-05     -0.66068570E-19
    1.004305343805         0.68448687E-05      0.24873348E+00     -0.24812973E-13      0.99025581E-06     -0.98785217E-19
    1.010582252204         0.69743470E-05      0.25801879E+00     -0.20275984E-13      0.10401525E-05     -0.81738679E-19
    1.016859160602         0.71044882E-05      0.27288786E+00     -0.15669728E-13      0.11137046E-05     -0.63950988E-19
