 
 # Omega; pulse ft; projected flux at t=    500.250000000000     
    0.000000000000         0.61823026E-09      0.00000000E+00      0.00000000E+00      0.88775898E-10     -0.33087225E-23
    0.006276908399         0.61747610E-09      0.15569570E-02     -0.13795810E-16      0.89467392E-10     -0.79274841E-24
    0.012553816798         0.61521579E-09      0.31518191E-02     -0.65015923E-15      0.90224977E-10     -0.18611665E-22
    0.018830725196         0.61145675E-09      0.47945514E-02     -0.32595839E-15      0.90941158E-10     -0.61826500E-23
    0.025107633595         0.60621417E-09      0.65029568E-02     -0.31488449E-15      0.91715972E-10     -0.44410471E-23
    0.031384541994         0.59951527E-09      0.82866451E-02     -0.17590095E-14      0.92464918E-10     -0.19627566E-22
    0.037661450393         0.59140524E-09      0.10166389E-01      0.42457861E-15      0.93254251E-10      0.38945747E-23
    0.043938358791         0.58195487E-09      0.12154596E-01     -0.27123046E-14      0.94037226E-10     -0.20984457E-22
    0.050215267190         0.57126980E-09      0.14271614E-01     -0.36886568E-15      0.94840184E-10     -0.24512496E-23
    0.056492175589         0.55950140E-09      0.16535372E-01     -0.27268027E-14      0.95662262E-10     -0.15775401E-22
    0.062769083988         0.54685933E-09      0.18958516E-01     -0.20634792E-17      0.96482373E-10     -0.10501316E-25
    0.069045992387         0.53362554E-09      0.21561240E-01     -0.19402511E-14      0.97338727E-10     -0.87593095E-23
    0.075322900785         0.52016993E-09      0.24335597E-01     -0.26280559E-14      0.98168921E-10     -0.10601483E-22
    0.081599809184         0.50696746E-09      0.27296115E-01      0.33579154E-14      0.99061657E-10      0.12186374E-22
    0.087876717583         0.49461670E-09      0.30386193E-01     -0.51064699E-14      0.99904500E-10     -0.16789181E-22
    0.094153625982         0.48385983E-09      0.33589803E-01     -0.62914185E-14      0.10083325E-09     -0.18886214E-22
    0.100430534380         0.47560399E-09      0.36765465E-01     -0.54458092E-14      0.10170296E-09     -0.15064542E-22
    0.106707442779         0.47094388E-09      0.39825403E-01     -0.20993601E-14      0.10267115E-09     -0.54122169E-23
    0.112984351178         0.47118573E-09      0.42513990E-01     -0.94750999E-14      0.10356655E-09     -0.23081893E-22
    0.119261259577         0.47787234E-09      0.44674637E-01     -0.39029977E-14      0.10456524E-09     -0.91353374E-23
    0.125538167976         0.49280933E-09      0.46004408E-01     -0.30873497E-14      0.10549124E-09     -0.70795028E-23
    0.131815076374         0.51809239E-09      0.46397337E-01     -0.66251358E-15      0.10652437E-09     -0.15210753E-23
    0.138091984773         0.55613556E-09      0.45691141E-01     -0.61973137E-14      0.10748751E-09     -0.14579058E-22
    0.144368893172         0.60970041E-09      0.44002578E-01     -0.79242669E-16      0.10855124E-09     -0.19548604E-24
    0.150645801571         0.68192607E-09      0.41432297E-01      0.10534743E-13      0.10955522E-09      0.27855953E-22
    0.156922709970         0.77635999E-09      0.38288266E-01     -0.82139058E-14      0.11065138E-09     -0.23737822E-22
    0.163199618368         0.89698941E-09      0.34790818E-01      0.15257297E-14      0.11169831E-09      0.48984602E-23
    0.169476526767         0.10482735E-08      0.31227276E-01      0.26287846E-14      0.11282697E-09      0.94980368E-23
    0.175753435166         0.12351757E-08      0.27749997E-01     -0.57996364E-14      0.11392044E-09     -0.23808908E-22
    0.182030343565         0.14631970E-08      0.24510494E-01     -0.31328351E-14      0.11508663E-09     -0.14709921E-22
    0.188307251963         0.17384091E-08      0.21552945E-01     -0.32871343E-14      0.11622655E-09     -0.17726222E-22
    0.194584160362         0.20674879E-08      0.18920235E-01     -0.14912825E-14      0.11742913E-09     -0.92556987E-23
    0.200861068761         0.24577476E-08      0.16595680E-01     -0.36020887E-14      0.11861794E-09     -0.25745997E-22
    0.207137977160         0.29171738E-08      0.14570161E-01     -0.25775870E-14      0.11986178E-09     -0.21204581E-22
    0.213414885559         0.34544578E-08      0.12807999E-01     -0.14317052E-14      0.12110170E-09     -0.13537005E-22
    0.219691793957         0.40790298E-08      0.11284437E-01      0.44718191E-15      0.12238741E-09      0.48499926E-23
    0.225968702356         0.48010926E-08      0.99654403E-02     -0.11063502E-14      0.12368074E-09     -0.13730875E-22
    0.232245610755         0.56316541E-08      0.88255943E-02     -0.47744939E-15      0.12501042E-09     -0.67628477E-23
    0.238522519154         0.65825603E-08      0.78384186E-02      0.80977150E-15      0.12635945E-09      0.13053944E-22
    0.244799427552         0.76665268E-08      0.69825101E-02     -0.39387932E-16      0.12773610E-09     -0.72055186E-24
    0.251076335951         0.88971707E-08      0.62390753E-02     -0.14673317E-16      0.12914576E-09     -0.30373038E-24
    0.257353244350         0.10289041E-07      0.55909991E-02     -0.13143921E-16      0.13057152E-09     -0.30696156E-24
    0.263630152749         0.11857647E-07      0.50257053E-02     -0.48578067E-15      0.13204266E-09     -0.12763138E-22
    0.269907061148         0.13619491E-07      0.45298652E-02     -0.65839310E-15      0.13351981E-09     -0.19406433E-22
    0.276183969546         0.15592091E-07      0.40953343E-02     -0.43689609E-15      0.13505450E-09     -0.14407806E-22
    0.282460877945         0.17794010E-07      0.37117580E-02      0.32971673E-15      0.13658688E-09      0.12133059E-22
    0.288737786344         0.20244883E-07      0.33740317E-02     -0.16314939E-15      0.13818936E-09     -0.66820684E-23
    0.295014694743         0.22965437E-07      0.30740669E-02     -0.11795697E-15      0.13978423E-09     -0.53637493E-23
    0.301291603141         0.25977515E-07      0.28085493E-02      0.35721956E-15      0.14145113E-09      0.17991178E-22
    0.307568511540         0.29304101E-07      0.25714039E-02     -0.23054724E-15      0.14311021E-09     -0.12830993E-22
    0.313845419939         0.32969333E-07      0.23605041E-02     -0.46242963E-15      0.14484814E-09     -0.28376172E-22
    0.320122328338         0.36998524E-07      0.21711969E-02     -0.67244144E-16      0.14658227E-09     -0.45397998E-23
    0.326399236737         0.41418179E-07      0.20019624E-02     -0.12815987E-16      0.14839238E-09     -0.94996523E-24
    0.332676145135         0.46256007E-07      0.18493823E-02     -0.73400070E-16      0.15020589E-09     -0.59615165E-23
    0.338953053534         0.51540931E-07      0.17122566E-02     -0.10629530E-15      0.15208814E-09     -0.94414912E-23
    0.345229961933         0.57303105E-07      0.15881399E-02     -0.26627089E-16      0.15398281E-09     -0.25817082E-23
    0.351506870332         0.63573913E-07      0.14760549E-02     -0.23134120E-15      0.15594141E-09     -0.24440602E-22
    0.357783778731         0.70385980E-07      0.13742741E-02     -0.12737355E-15      0.15792565E-09     -0.14637219E-22
    0.364060687129         0.77773174E-07      0.12819319E-02     -0.67685575E-16      0.15996861E-09     -0.84462895E-23
    0.370337595528         0.85770606E-07      0.11978263E-02      0.31049117E-16      0.16204974E-09      0.42005265E-23
    0.376614503927         0.94414629E-07      0.11211615E-02     -0.10767730E-15      0.16418150E-09     -0.15768130E-22
    0.382891412326         0.10374284E-06      0.10511541E-02     -0.30705200E-16      0.16636527E-09     -0.48596861E-23
    0.389168320724         0.11379405E-06      0.98706589E-03     -0.11641850E-15      0.16859396E-09     -0.19884646E-22
    0.395445229123         0.12460831E-06      0.92836444E-03     -0.13120156E-15      0.17088068E-09     -0.24149796E-22
    0.401722137522         0.13622687E-06      0.87441855E-03     -0.16638330E-15      0.17320889E-09     -0.32957978E-22
    0.407999045921         0.14869219E-06      0.82489819E-03     -0.12242660E-15      0.17560754E-09     -0.26062652E-22
    0.414275954320         0.16204789E-06      0.77921398E-03     -0.55349505E-16      0.17804271E-09     -0.12646816E-22
    0.420552862718         0.17633876E-06      0.73718243E-03     -0.90736404E-16      0.18055768E-09     -0.22224017E-22
    0.426829771117         0.19161071E-06      0.69827912E-03     -0.90492829E-16      0.18310826E-09     -0.23729744E-22
    0.433106679516         0.20791078E-06      0.66241082E-03     -0.56577785E-16      0.18574766E-09     -0.15865066E-22
    0.439383587915         0.22528707E-06      0.62910928E-03     -0.11155131E-16      0.18842231E-09     -0.33410342E-23
    0.445660496313         0.24378875E-06      0.59835316E-03     -0.85608193E-16      0.19119692E-09     -0.27355121E-22
    0.451937404712         0.26346597E-06      0.56971309E-03      0.13283985E-17      0.19400648E-09      0.45236440E-24
    0.458214313111         0.28436989E-06      0.54320737E-03      0.29752123E-16      0.19692208E-09      0.10785660E-22
    0.464491221510         0.30655259E-06      0.51850998E-03     -0.29284782E-16      0.19989338E-09     -0.11289723E-22
    0.470768129909         0.33006704E-06      0.49556970E-03     -0.25562097E-16      0.20296149E-09     -0.10469005E-22
    0.477045038307         0.35496707E-06      0.47407687E-03     -0.39370042E-16      0.20605884E-09     -0.17112299E-22
    0.483321946706         0.38130728E-06      0.45413265E-03     -0.70675441E-17      0.20928356E-09     -0.32570237E-23
    0.489598855105         0.40914305E-06      0.43544335E-03     -0.42323778E-16      0.21255937E-09     -0.20660128E-22
    0.495875763504         0.43853041E-06      0.41801719E-03     -0.82314365E-17      0.21594084E-09     -0.42522253E-23
    0.502152671902         0.46952606E-06      0.40169620E-03     -0.12352451E-16      0.21939941E-09     -0.67466919E-23
    0.508429580301         0.50218725E-06      0.38627862E-03     -0.11671036E-16      0.22286883E-09     -0.67337672E-23
    0.514706488700         0.53657174E-06      0.37216457E-03     -0.51363403E-17      0.22662978E-09     -0.31277767E-23
    0.520983397099         0.57273772E-06      0.36017187E-03     -0.25460398E-17      0.23128928E-09     -0.16349742E-23
    0.527260305498         0.61074378E-06      0.34756010E-03     -0.15949940E-16      0.23516771E-09     -0.10792122E-22
    0.533537213896         0.65064880E-06      0.33528201E-03     -0.11103914E-16      0.23883940E-09     -0.79099146E-23
    0.539814122295         0.69251188E-06      0.32393518E-03     -0.31562738E-17      0.24274758E-09     -0.23652196E-23
    0.546091030694         0.73639228E-06      0.31341441E-03     -0.89096823E-17      0.24687490E-09     -0.70181105E-23
    0.552367939093         0.78234932E-06      0.30396087E-03      0.10513550E-16      0.25148016E-09      0.86983211E-23
    0.558644847491         0.83044233E-06      0.29481446E-03      0.14259306E-16      0.25599782E-09      0.12381860E-22
    0.564921755890         0.88073054E-06      0.28639423E-03     -0.75077100E-17      0.26081516E-09     -0.68371648E-23
    0.571198664289         0.93327299E-06      0.27810590E-03      0.69335398E-17      0.26542726E-09      0.66174449E-23
    0.577475572688         0.98812849E-06      0.27071203E-03     -0.15478216E-16      0.27058341E-09     -0.15470862E-22
    0.583752481087         0.10453555E-05      0.26352047E-03      0.23846718E-16      0.27565344E-09      0.24944665E-22
    0.590029389485         0.11050119E-05      0.25696721E-03      0.14189146E-16      0.28111552E-09      0.15522561E-22
    0.596306297884         0.11671553E-05      0.25069248E-03      0.38785380E-16      0.28662518E-09      0.44344636E-22
    0.602583206283         0.12318424E-05      0.24497454E-03      0.22047507E-16      0.29253166E-09      0.26327608E-22
    0.608860114682         0.12991293E-05      0.23958817E-03      0.23000287E-16      0.29861665E-09      0.28666978E-22
    0.615137023081         0.13690713E-05      0.23483797E-03      0.13530395E-16      0.30530670E-09      0.17590513E-22
    0.621413931479         0.14417228E-05      0.23048292E-03     -0.25949818E-16      0.31235850E-09     -0.35168101E-22
    0.627690839878         0.15171371E-05      0.22931179E-03      0.87057874E-17      0.32375704E-09      0.12291387E-22
    0.633967748277         0.15953663E-05      0.22991335E-03      0.61020083E-17      0.33796462E-09      0.89697398E-23
    0.640244656676         0.16764615E-05      0.22188200E-03      0.13646821E-16      0.33937784E-09      0.20873386E-22
    0.646521565074         0.17604722E-05      0.21329047E-03      0.61592753E-17      0.33925903E-09      0.97969204E-23
    0.652798473473         0.18474468E-05      0.20878747E-03      0.16051023E-16      0.34515252E-09      0.26534403E-22
    0.659075381872         0.19374318E-05      0.20588797E-03     -0.28376353E-16      0.35353801E-09     -0.48726108E-22
    0.665352290271         0.20304724E-05      0.20262110E-03     -0.32989257E-16      0.36119682E-09     -0.58807372E-22
    0.671629198670         0.21266118E-05      0.20074088E-03      0.10328145E-16      0.37128575E-09      0.19102702E-22
    0.677906107068         0.22258916E-05      0.19736261E-03     -0.19703776E-16      0.37854120E-09     -0.37791814E-22
    0.684183015467         0.23283513E-05      0.19714959E-03      0.12041244E-16      0.39190959E-09      0.23936539E-22
    0.690459923866         0.24340282E-05      0.18481177E-03      0.13933891E-17      0.38056651E-09      0.28692827E-23
    0.696736832265         0.25429579E-05      0.17232418E-03     -0.17216882E-17      0.36739262E-09     -0.36706140E-23
    0.703013740663         0.26551734E-05      0.18382865E-03      0.15231787E-17      0.40556089E-09      0.33604212E-23
    0.709290649062         0.27707053E-05      0.19497728E-03     -0.13480854E-16      0.44490156E-09     -0.30760779E-22
    0.715567557461         0.28895822E-05      0.20408349E-03      0.40217792E-17      0.48140000E-09      0.94867277E-23
    0.721844465860         0.30118296E-05      0.19983750E-03     -0.13575623E-16      0.48705448E-09     -0.33087225E-22
    0.728121374259         0.31374707E-05      0.19974692E-03      0.15230067E-16      0.50277051E-09      0.38334652E-22
    0.734398282657         0.32665259E-05      0.19675038E-03     -0.93819649E-17      0.51119174E-09     -0.24375979E-22
    0.740675191056         0.33990128E-05      0.20007514E-03     -0.13451966E-16      0.53632981E-09     -0.36059905E-22
    0.746952099455         0.35349461E-05      0.20241283E-03     -0.67138397E-17      0.55955383E-09     -0.18559865E-22
    0.753229007854         0.36743374E-05      0.19947051E-03     -0.19095748E-16      0.56838746E-09     -0.54412975E-22
    0.759505916252         0.38171952E-05      0.20388653E-03      0.46753904E-17      0.59857084E-09      0.13726028E-22
    0.765782824651         0.39635250E-05      0.19699668E-03     -0.97554257E-17      0.59559179E-09     -0.29494159E-22
    0.772059733050         0.41133290E-05      0.19849638E-03      0.16230002E-16      0.61774457E-09      0.50509716E-22
    0.778336641449         0.42666060E-05      0.19767807E-03     -0.46014675E-17      0.63297617E-09     -0.14734155E-22
    0.784613549848         0.44233513E-05      0.20326298E-03     -0.39404394E-17      0.66937228E-09     -0.12976396E-22
    0.790890458246         0.45835571E-05      0.20146168E-03     -0.17333095E-16      0.68201287E-09     -0.58678125E-22
    0.797167366645         0.47472116E-05      0.20489691E-03     -0.14297251E-16      0.71275176E-09     -0.49734234E-22
    0.803444275044         0.49142998E-05      0.20510898E-03     -0.13167462E-17      0.73283189E-09     -0.47045897E-23
    0.809721183443         0.50848028E-05      0.20698437E-03     -0.18702466E-16      0.75925903E-09     -0.68604292E-22
    0.815998091842         0.52586980E-05      0.20957805E-03     -0.10506037E-16      0.78894857E-09     -0.39549573E-22
    0.822275000240         0.54359592E-05      0.20985274E-03     -0.22411087E-16      0.81037782E-09     -0.86543772E-22
    0.828551908639         0.56165561E-05      0.21453473E-03     -0.15132114E-16      0.84949687E-09     -0.59918896E-22
    0.834828817038         0.58004548E-05      0.21380189E-03     -0.24087597E-16      0.86774068E-09     -0.97762409E-22
    0.841105725437         0.59876175E-05      0.21988468E-03     -0.16647295E-16      0.91434952E-09     -0.69224678E-22
    0.847382633835         0.61780022E-05      0.21930740E-03     -0.25941948E-16      0.93397573E-09     -0.11048031E-21
    0.853659542234         0.63715632E-05      0.22610410E-03     -0.83479132E-17      0.98578801E-09     -0.36395947E-22
    0.859936450633         0.65682506E-05      0.22674443E-03      0.10544466E-17      0.10116581E-08      0.47045897E-23
    0.866213359032         0.67680107E-05      0.23373022E-03     -0.83143147E-17      0.10667554E-08     -0.37946911E-22
    0.872490267431         0.69707857E-05      0.23646709E-03     -0.58711245E-17      0.11035846E-08     -0.27400358E-22
    0.878767175829         0.71765137E-05      0.24342465E-03     -0.12322174E-16      0.11612295E-08     -0.58781522E-22
    0.885044084228         0.73851287E-05      0.24896886E-03     -0.60881492E-17      0.12135342E-08     -0.29675104E-22
    0.891320992627         0.75965609E-05      0.25607651E-03     -0.11775971E-16      0.12748715E-08     -0.58626426E-22
    0.897597901026         0.78107362E-05      0.26507347E-03     -0.73840230E-17      0.13473803E-08     -0.37533320E-22
    0.903874809424         0.80275766E-05      0.27276372E-03      0.12356972E-17      0.14150656E-08      0.64106497E-23
    0.910151717823         0.82470002E-05      0.28626560E-03     -0.48056203E-17      0.15151833E-08     -0.25435804E-22
    0.916428626222         0.84689209E-05      0.29474067E-03     -0.35052437E-17      0.15910481E-08     -0.18921757E-22
    0.922705534621         0.86932488E-05      0.31665972E-03     -0.25551505E-16      0.17427120E-08     -0.14062070E-21
    0.928982443020         0.89198899E-05      0.32166473E-03     -0.22195813E-16      0.18041358E-08     -0.12449068E-21
    0.935259351418         0.91487464E-05      0.29949189E-03     -0.28789704E-16      0.17113089E-08     -0.16450554E-21
    0.941536259817         0.93797169E-05      0.34382444E-03     -0.48151871E-17      0.20007979E-08     -0.28020743E-22
    0.947813168216         0.96126957E-05      0.39626391E-03     -0.14171967E-16      0.23475821E-08     -0.83958832E-22
    0.954090076615         0.98475739E-05      0.42042692E-03     -0.72028767E-17      0.25348029E-08     -0.43426982E-22
    0.960366985013         0.10084238E-04      0.46459366E-03     -0.83275571E-17      0.28496595E-08     -0.51078403E-22
    0.966643893412         0.10322573E-04      0.51156328E-03     -0.27217501E-16      0.31910575E-08     -0.16977882E-21
    0.972920801811         0.10562458E-04      0.57532050E-03     -0.22239419E-16      0.36484731E-08     -0.14103429E-21
    0.979197710210         0.10803769E-04      0.66475668E-03     -0.45338152E-16      0.42843152E-08     -0.29220155E-21
    0.985474618609         0.11046380E-04      0.77437106E-03     -0.32972548E-16      0.50703443E-08     -0.21589414E-21
    0.991751527007         0.11290161E-04      0.10238605E-02     -0.76002960E-16      0.68085061E-08     -0.50540735E-21
    0.998028435406         0.11534978E-04      0.14631212E-02     -0.79148959E-16      0.98779755E-08     -0.53435868E-21
    1.004305343805         0.11780695E-04      0.13345464E-02     -0.12180709E-15      0.91443453E-08     -0.83462524E-21
    1.010582252204         0.12027173E-04      0.17634726E-02     -0.12648177E-15      0.12259546E-07     -0.87929299E-21
    1.016859160602         0.12274269E-04      0.41579432E-02     -0.21140073E-15      0.29317518E-07     -0.14905795E-20
