 
 # Omega; pulse ft; proj flux t=    500.250000000000     
    0.000000000000         0.19000442E-09      0.00000000E+00      0.00000000E+00     -0.24646614E-10     -0.24020522E-18     -0.15470454E-12     -0.15077461E-20
    0.006276908399         0.22160172E-09     -0.11554263E-01     -0.10977156E-09     -0.25282047E-10     -0.24019273E-18     -0.31339763E-12     -0.30154139E-20
    0.012553816798         0.31649624E-09     -0.14132554E-01     -0.15375231E-09     -0.22082899E-10     -0.24024651E-18     -0.45200997E-12     -0.45234192E-20
    0.018830725196         0.47499603E-09     -0.13680542E-01     -0.15361360E-09     -0.21387938E-10     -0.24015701E-18     -0.58626009E-12     -0.60308628E-20
    0.025107633595         0.69761494E-09     -0.12505985E-01     -0.13944288E-09     -0.21536275E-10     -0.24013143E-18     -0.72144132E-12     -0.75381458E-20
    0.031384541994         0.98507334E-09     -0.11157200E-01     -0.12350540E-09     -0.21704544E-10     -0.24025996E-18     -0.85767875E-12     -0.90462356E-20
    0.037661450393         0.13382991E-08     -0.10009627E-01     -0.10906222E-09     -0.22045336E-10     -0.24020007E-18     -0.99605530E-12     -0.10553949E-19
    0.043938358791         0.17584287E-08     -0.90318542E-02     -0.96813535E-10     -0.22402709E-10     -0.24013734E-18     -0.11366751E-11     -0.12061269E-19
    0.050215267190         0.22468091E-08     -0.82213136E-02     -0.86596926E-10     -0.22798920E-10     -0.24014610E-18     -0.12797818E-11     -0.13568645E-19
    0.056492175589         0.28049990E-08     -0.75414161E-02     -0.78040004E-10     -0.23208121E-10     -0.24016204E-18     -0.14254570E-11     -0.15076120E-19
    0.062769083988         0.34347712E-08     -0.70020136E-02     -0.70817759E-10     -0.23747486E-10     -0.24018002E-18     -0.15745178E-11     -0.16583708E-19
    0.069045992387         0.41381150E-08     -0.65395083E-02     -0.64641135E-10     -0.24291361E-10     -0.24011303E-18     -0.17269925E-11     -0.18090875E-19
    0.075322900785         0.49172381E-08     -0.61213731E-02     -0.59363015E-10     -0.24767703E-10     -0.24018884E-18     -0.18824571E-11     -0.19598519E-19
    0.081599809184         0.57745703E-08     -0.57558132E-02     -0.54765223E-10     -0.25245263E-10     -0.24020280E-18     -0.20409193E-11     -0.21106250E-19
    0.087876717583         0.67127654E-08     -0.54536169E-02     -0.50720613E-10     -0.25819923E-10     -0.24013464E-18     -0.22029886E-11     -0.22613553E-19
    0.094153625982         0.77347054E-08     -0.51830216E-02     -0.47175382E-10     -0.26389576E-10     -0.24019548E-18     -0.23686335E-11     -0.24121238E-19
    0.100430534380         0.88435030E-08     -0.49534377E-02     -0.44008950E-10     -0.27033852E-10     -0.24018298E-18     -0.25383225E-11     -0.25628844E-19
    0.106707442779         0.10042506E-07     -0.47428804E-02     -0.41164576E-10     -0.27665100E-10     -0.24011191E-18     -0.27119738E-11     -0.27136005E-19
    0.112984351178         0.11335300E-07     -0.45597430E-02     -0.38609024E-10     -0.28352919E-10     -0.24007461E-18     -0.28899425E-11     -0.28642931E-19
    0.119261259577         0.12725715E-07     -0.43887919E-02     -0.36321215E-10     -0.29024881E-10     -0.24020710E-18     -0.30721290E-11     -0.30150689E-19
    0.125538167976         0.14217824E-07     -0.42451027E-02     -0.34213184E-10     -0.29798075E-10     -0.24015603E-18     -0.32591688E-11     -0.31658126E-19
    0.131815076374         0.15815953E-07     -0.41079928E-02     -0.32311094E-10     -0.30549396E-10     -0.24028387E-18     -0.34509246E-11     -0.33166366E-19
    0.138091984773         0.17524683E-07     -0.39874794E-02     -0.30543913E-10     -0.31363378E-10     -0.24024207E-18     -0.36477896E-11     -0.34674344E-19
    0.144368893172         0.19348855E-07     -0.38712042E-02     -0.28924954E-10     -0.32156620E-10     -0.24026858E-18     -0.38496338E-11     -0.36182488E-19
    0.150645801571         0.21293571E-07     -0.37720625E-02     -0.27423336E-10     -0.33045553E-10     -0.24024504E-18     -0.40570577E-11     -0.37690484E-19
    0.156922709970         0.23364205E-07     -0.36745035E-02     -0.26024952E-10     -0.33908342E-10     -0.24015842E-18     -0.42698973E-11     -0.39197936E-19
    0.163199618368         0.25566403E-07     -0.35928058E-02     -0.24748114E-10     -0.34884051E-10     -0.24028977E-18     -0.44888612E-11     -0.40706213E-19
    0.169476526767         0.27906088E-07     -0.35117648E-02     -0.23537988E-10     -0.35839133E-10     -0.24021572E-18     -0.47138202E-11     -0.42214025E-19
    0.175753435166         0.30389467E-07     -0.34412898E-02     -0.22420628E-10     -0.36879344E-10     -0.24027562E-18     -0.49453085E-11     -0.43722213E-19
    0.182030343565         0.33023034E-07     -0.33712398E-02     -0.21371646E-10     -0.37905786E-10     -0.24030004E-18     -0.51832396E-11     -0.45230554E-19
    0.188307251963         0.35813574E-07     -0.33116389E-02     -0.20384418E-10     -0.39036086E-10     -0.24028221E-18     -0.54282655E-11     -0.46738784E-19
    0.194584160362         0.38768170E-07     -0.32523104E-02     -0.19460181E-10     -0.40160812E-10     -0.24030199E-18     -0.56803513E-11     -0.48247137E-19
    0.200861068761         0.41894206E-07     -0.32015037E-02     -0.18582771E-10     -0.41386136E-10     -0.24022121E-18     -0.59401283E-11     -0.49754984E-19
    0.207137977160         0.45199371E-07     -0.31512904E-02     -0.17772504E-10     -0.42619050E-10     -0.24036097E-18     -0.62076441E-11     -0.51263708E-19
    0.213414885559         0.48691666E-07     -0.31052319E-02     -0.16988673E-10     -0.43910324E-10     -0.24023267E-18     -0.64832652E-11     -0.52771626E-19
    0.219691793957         0.52379403E-07     -0.30606391E-02     -0.16256247E-10     -0.45227387E-10     -0.24022028E-18     -0.67671534E-11     -0.54279467E-19
    0.225968702356         0.56271216E-07     -0.30203311E-02     -0.15569430E-10     -0.46616026E-10     -0.24029979E-18     -0.70597579E-11     -0.55787807E-19
    0.232245610755         0.60376060E-07     -0.29821767E-02     -0.14907117E-10     -0.48049990E-10     -0.24018926E-18     -0.73613633E-11     -0.57295453E-19
    0.238522519154         0.64703218E-07     -0.29483067E-02     -0.14292779E-10     -0.49569190E-10     -0.24030116E-18     -0.76725046E-11     -0.58803801E-19
    0.244799427552         0.69262300E-07     -0.29176807E-02     -0.13691159E-10     -0.51164290E-10     -0.24008741E-18     -0.79936581E-11     -0.60310808E-19
    0.251076335951         0.74063251E-07     -0.28902053E-02     -0.13142220E-10     -0.52840675E-10     -0.24027489E-18     -0.83253342E-11     -0.61818991E-19
    0.257353244350         0.79116352E-07     -0.28645434E-02     -0.12601092E-10     -0.54580144E-10     -0.24009741E-18     -0.86679288E-11     -0.63326061E-19
    0.263630152749         0.84432224E-07     -0.28413678E-02     -0.12098401E-10     -0.56400542E-10     -0.24015068E-18     -0.90219498E-11     -0.64833464E-19
    0.269907061148         0.90021830E-07     -0.28228987E-02     -0.11616540E-10     -0.58354125E-10     -0.24013366E-18     -0.93882333E-11     -0.66340761E-19
    0.276183969546         0.95896474E-07     -0.28065391E-02     -0.11160489E-10     -0.60397359E-10     -0.24017626E-18     -0.97673420E-11     -0.67848326E-19
    0.282460877945         0.10206781E-06     -0.27941094E-02     -0.10728690E-10     -0.62577265E-10     -0.24028124E-18     -0.10160134E-10     -0.69356549E-19
    0.288737786344         0.10854784E-06     -0.27810764E-02     -0.10303030E-10     -0.64799721E-10     -0.24006299E-18     -0.10566876E-10     -0.70863403E-19
    0.295014694743         0.11534890E-06     -0.27726491E-02     -0.99121855E-11     -0.67190425E-10     -0.24020492E-18     -0.10988624E-10     -0.72371147E-19
    0.301291603141         0.12248370E-06     -0.27671026E-02     -0.95262272E-11     -0.69720292E-10     -0.24002411E-18     -0.11426252E-10     -0.73877756E-19
    0.307568511540         0.12996528E-06     -0.27658599E-02     -0.91755421E-11     -0.72436647E-10     -0.24030338E-18     -0.11880930E-10     -0.75386118E-19
    0.313845419939         0.13780704E-06     -0.27600607E-02     -0.88337924E-11     -0.75113314E-10     -0.24040609E-18     -0.12352409E-10     -0.76895126E-19
    0.320122328338         0.14602273E-06     -0.27601568E-02     -0.84963760E-11     -0.78033469E-10     -0.24020436E-18     -0.12842218E-10     -0.78402866E-19
    0.326399236737         0.15462643E-06     -0.27623810E-02     -0.81839203E-11     -0.81107467E-10     -0.24029164E-18     -0.13351322E-10     -0.79911155E-19
    0.332676145135         0.16363259E-06     -0.27692001E-02     -0.78786742E-11     -0.84419963E-10     -0.24018394E-18     -0.13881219E-10     -0.81418767E-19
    0.338953053534         0.17305599E-06     -0.27764837E-02     -0.75971916E-11     -0.87858724E-10     -0.24040464E-18     -0.14432700E-10     -0.82927765E-19
    0.345229961933         0.18291177E-06     -0.27895865E-02     -0.73141276E-11     -0.91604258E-10     -0.24018085E-18     -0.15007691E-10     -0.84435359E-19
    0.351506870332         0.19321538E-06     -0.28025906E-02     -0.70473120E-11     -0.95479515E-10     -0.24008998E-18     -0.15607008E-10     -0.85942381E-19
    0.357783778731         0.20398262E-06     -0.28215558E-02     -0.67983040E-11     -0.99701994E-10     -0.24022366E-18     -0.16232828E-10     -0.87450243E-19
    0.364060687129         0.21522964E-06     -0.28449172E-02     -0.65529781E-11     -0.10424149E-09     -0.24010969E-18     -0.16887142E-10     -0.88957390E-19
    0.370337595528         0.22697289E-06     -0.28736324E-02     -0.63241313E-11     -0.10915662E-09     -0.24022585E-18     -0.17572308E-10     -0.90465265E-19
    0.376614503927         0.23922915E-06     -0.28964403E-02     -0.60986643E-11     -0.11403136E-09     -0.24010128E-18     -0.18288073E-10     -0.91972359E-19
    0.382891412326         0.25201552E-06     -0.29263781E-02     -0.58877884E-11     -0.11937813E-09     -0.24018536E-18     -0.19037398E-10     -0.93479981E-19
    0.389168320724         0.26534940E-06     -0.29592553E-02     -0.56816937E-11     -0.12505635E-09     -0.24010496E-18     -0.19822366E-10     -0.94987098E-19
    0.395445229123         0.27924851E-06     -0.29992851E-02     -0.54873563E-11     -0.13126984E-09     -0.24016535E-18     -0.20646334E-10     -0.96494593E-19
    0.401722137522         0.29373083E-06     -0.30416431E-02     -0.52990900E-11     -0.13783982E-09     -0.24014179E-18     -0.21511542E-10     -0.98001941E-19
    0.407999045921         0.30881467E-06     -0.30915142E-02     -0.51195763E-11     -0.14502828E-09     -0.24016818E-18     -0.22421871E-10     -0.99509455E-19
    0.414275954320         0.32451858E-06     -0.31425654E-02     -0.49509126E-11     -0.15257270E-09     -0.24036862E-18     -0.23379556E-10     -0.10101823E-18
    0.420552862718         0.34086139E-06     -0.32017355E-02     -0.47816006E-11     -0.16083677E-09     -0.24020010E-18     -0.24389114E-10     -0.10252594E-18
    0.426829771117         0.35786219E-06     -0.32625512E-02     -0.46217180E-11     -0.16953568E-09     -0.24016362E-18     -0.25453274E-10     -0.10403343E-18
    0.433106679516         0.37554031E-06     -0.33313265E-02     -0.44681555E-11     -0.17902825E-09     -0.24012238E-18     -0.26577018E-10     -0.10554065E-18
    0.439383587915         0.39391532E-06     -0.33992303E-02     -0.43237939E-11     -0.18887840E-09     -0.24025183E-18     -0.27762590E-10     -0.10704869E-18
    0.445660496313         0.41300701E-06     -0.34710248E-02     -0.41812998E-11     -0.19936718E-09     -0.24016364E-18     -0.29014000E-10     -0.10855618E-18
    0.451937404712         0.43283537E-06     -0.35155025E-02     -0.40463774E-11     -0.20867698E-09     -0.24018922E-18     -0.30323846E-10     -0.11006382E-18
    0.458214313111         0.45342059E-06     -0.34432122E-02     -0.39191446E-11     -0.21117332E-09     -0.24036241E-18     -0.31649362E-10     -0.11157255E-18
    0.464491221510         0.47478305E-06     -0.36934017E-02     -0.37898348E-11     -0.23398441E-09     -0.24009364E-18     -0.33118060E-10     -0.11307960E-18
    0.470768129909         0.49694328E-06     -0.42887324E-02     -0.36698631E-11     -0.28058948E-09     -0.24010008E-18     -0.34879295E-10     -0.11458669E-18
    0.477045038307         0.51992196E-06     -0.45096399E-02     -0.35555132E-11     -0.30462344E-09     -0.24017276E-18     -0.36791388E-10     -0.11609423E-18
    0.483321946706         0.54373993E-06     -0.45331533E-02     -0.34450830E-11     -0.31608056E-09     -0.24021331E-18     -0.38775397E-10     -0.11760203E-18
    0.489598855105         0.56841810E-06     -0.46910696E-02     -0.33373192E-11     -0.33755307E-09     -0.24014189E-18     -0.40894187E-10     -0.11910937E-18
    0.495875763504         0.59397753E-06     -0.48823719E-02     -0.32342713E-11     -0.36246883E-09     -0.24011333E-18     -0.43169370E-10     -0.12061654E-18
    0.502152671902         0.62043932E-06     -0.51144669E-02     -0.31389323E-11     -0.39165763E-09     -0.24037437E-18     -0.45627769E-10     -0.12212535E-18
    0.508429580301         0.64782466E-06     -0.53580335E-02     -0.30411671E-11     -0.42313092E-09     -0.24016495E-18     -0.48283723E-10     -0.12363285E-18
    0.514706488700         0.67615476E-06     -0.57713471E-02     -0.29497110E-11     -0.46990096E-09     -0.24016439E-18     -0.51233249E-10     -0.12514034E-18
    0.520983397099         0.70545086E-06     -0.62337161E-02     -0.28620001E-11     -0.52315765E-09     -0.24019016E-18     -0.54517061E-10     -0.12664799E-18
    0.527260305498         0.73573422E-06     -0.66375198E-02     -0.27788144E-11     -0.57404294E-09     -0.24032453E-18     -0.58120276E-10     -0.12815648E-18
    0.533537213896         0.76702604E-06     -0.69913567E-02     -0.26966583E-11     -0.62294475E-09     -0.24027799E-18     -0.62030443E-10     -0.12966468E-18
    0.539814122295         0.79934752E-06     -0.75467683E-02     -0.26177553E-11     -0.69262008E-09     -0.24024985E-18     -0.66377956E-10     -0.13117271E-18
    0.546091030694         0.83271978E-06     -0.81328476E-02     -0.25441692E-11     -0.76863321E-09     -0.24044874E-18     -0.71202596E-10     -0.13268199E-18
    0.552367939093         0.86716384E-06     -0.89853757E-02     -0.24696281E-11     -0.87428216E-09     -0.24029622E-18     -0.76690385E-10     -0.13419030E-18
    0.558644847491         0.90270064E-06     -0.98404614E-02     -0.23990866E-11     -0.98552147E-09     -0.24026834E-18     -0.82876413E-10     -0.13569845E-18
    0.564921755890         0.93935095E-06     -0.11110513E-01     -0.23307786E-11     -0.11450286E-08     -0.24020568E-18     -0.90063653E-10     -0.13720619E-18
    0.571198664289         0.97713540E-06     -0.12312085E-01     -0.22660136E-11     -0.13053947E-08     -0.24025518E-18     -0.98257496E-10     -0.13871425E-18
    0.577475572688         0.10160745E-05     -0.14390779E-01     -0.22025509E-11     -0.15693467E-08     -0.24019311E-18     -0.10810814E-09     -0.14022192E-18
    0.583752481087         0.10561883E-05     -0.16210588E-01     -0.21437970E-11     -0.18178334E-08     -0.24040249E-18     -0.11951852E-09     -0.14173091E-18
    0.590029389485         0.10974971E-05     -0.19918875E-01     -0.20859226E-11     -0.22963454E-08     -0.24047536E-18     -0.13393247E-09     -0.14324035E-18
    0.596306297884         0.11400204E-05     -0.22907731E-01     -0.20287152E-11     -0.27143633E-08     -0.24038479E-18     -0.15097028E-09     -0.14474922E-18
    0.602583206283         0.11837778E-05     -0.30784837E-01     -0.19745050E-11     -0.37482857E-08     -0.24041085E-18     -0.17449792E-09     -0.14625826E-18
    0.608860114682         0.12287883E-05     -0.36004513E-01     -0.19195683E-11     -0.45035933E-08     -0.24010753E-18     -0.20276656E-09     -0.14776539E-18
    0.615137023081         0.12750709E-05     -0.59798866E-01     -0.18684832E-11     -0.76824207E-08     -0.24004592E-18     -0.25098841E-09     -0.14927214E-18
    0.621413931479         0.13226439E-05     -0.64076782E-01     -0.18174363E-11     -0.84528920E-08     -0.23975287E-18     -0.30404644E-09     -0.15077705E-18
    0.627690839878         0.13715254E-05     -0.36335441E+00     -0.17639228E-11     -0.49207486E-07     -0.23888029E-18     -0.61291732E-09     -0.15227648E-18
    0.633967748277         0.14217330E-05     -0.69814875E+00     -0.16826246E-11     -0.97037933E-07     -0.23387338E-18     -0.12220155E-08     -0.15374448E-18
    0.640244656676         0.14732840E-05     -0.22517833E+00     -0.16747103E-11     -0.32115136E-07     -0.23884870E-18     -0.14235993E-08     -0.15524371E-18
    0.646521565074         0.15261949E-05      0.23170249E+00     -0.16468395E-11      0.33900052E-07     -0.24094667E-18     -0.12108118E-08     -0.15675611E-18
    0.652798473473         0.15804821E-05      0.17156939E+00     -0.16102677E-11      0.25745002E-07     -0.24163020E-18     -0.10492128E-08     -0.15827280E-18
    0.659075381872         0.16361611E-05      0.12688725E+00     -0.15652378E-11      0.19523227E-07     -0.24083187E-18     -0.92666726E-09     -0.15978448E-18
    0.665352290271         0.16932470E-05      0.14331875E+00     -0.15335158E-11      0.22605512E-07     -0.24187980E-18     -0.78477453E-09     -0.16130274E-18
    0.671629198670         0.17517545E-05      0.16204778E+00     -0.14855509E-11      0.26195664E-07     -0.24014519E-18     -0.62034674E-09     -0.16281011E-18
    0.677906107068         0.18116973E-05      0.23732459E+00     -0.14567987E-11      0.39309861E-07     -0.24130054E-18     -0.37360234E-09     -0.16432473E-18
    0.684183015467         0.18730887E-05      0.87742740E+00     -0.14258223E-11      0.14888122E-06     -0.24193246E-18      0.56091147E-09     -0.16584332E-18
    0.690459923866         0.19359414E-05      0.26601487E+01     -0.13606725E-11      0.46227703E-06     -0.23645583E-18      0.34625820E-08     -0.16732753E-18
    0.696736832265         0.20002671E-05      0.45026295E+01     -0.14749209E-11      0.80117633E-06     -0.26244036E-18      0.84914925E-08     -0.16897484E-18
    0.703013740663         0.20660771E-05      0.47761988E+01     -0.13506970E-11      0.86997701E-06     -0.24602730E-18      0.13952258E-07     -0.17051913E-18
    0.709290649062         0.21333816E-05      0.51926090E+01     -0.15106779E-11      0.96799390E-06     -0.28161700E-18      0.20028268E-07     -0.17228682E-18
    0.715567557461         0.22021904E-05      0.79132789E+01     -0.14326077E-11      0.15093966E-05     -0.27325882E-18      0.29502612E-07     -0.17400204E-18
    0.721844465860         0.22725123E-05      0.10935165E+02     -0.18668116E-11      0.21336865E-05     -0.36425522E-18      0.42895567E-07     -0.17628843E-18
    0.728121374259         0.23443551E-05      0.11396185E+02     -0.16314557E-11      0.22741640E-05     -0.32556490E-18      0.57170286E-07     -0.17833198E-18
    0.734398282657         0.24177260E-05      0.10459573E+02     -0.19523596E-11      0.21341849E-05     -0.39836201E-18      0.70566369E-07     -0.18083246E-18
    0.740675191056         0.24926312E-05      0.10053389E+02     -0.16836634E-11      0.20969370E-05     -0.35117870E-18      0.83728650E-07     -0.18303677E-18
    0.746952099455         0.25690760E-05      0.10117957E+02     -0.14519961E-11      0.21568487E-05     -0.30952257E-18      0.97266992E-07     -0.18497962E-18
    0.753229007854         0.26470648E-05      0.10833815E+02     -0.18406923E-11      0.23597263E-05     -0.40092340E-18      0.11207878E-06     -0.18749618E-18
    0.759505916252         0.27266009E-05      0.10906406E+02     -0.97425668E-12      0.24266925E-05     -0.21677364E-18      0.12731090E-06     -0.18885685E-18
    0.765782824651         0.28076868E-05      0.93050221E+01     -0.13057342E-11      0.21144778E-05     -0.29671567E-18      0.14058329E-06     -0.19071930E-18
