 
 # six columns.
 # Omega (column 1); |pulse ft|^2 (2); cross section (Mb) (3); flux (column 5)
 
  0.0000      0.618230E-09      0.000000E+00      0.000000E+00      0.131038E-06     -0.338813E-20
  0.0063      0.617476E-09      0.173019E+01     -0.355831E-13      0.132563E-06     -0.272628E-20
  0.0126      0.615216E-09      0.351329E+01     -0.725287E-12      0.134097E-06     -0.276830E-19
  0.0188      0.611457E-09      0.536513E+01      0.640497E-13      0.135685E-06      0.161983E-20
  0.0251      0.606214E-09      0.730058E+01     -0.212129E-12      0.137287E-06     -0.398908E-20
  0.0314      0.599515E-09      0.933885E+01     -0.578419E-12      0.138941E-06     -0.860557E-20
  0.0377      0.591405E-09      0.114973E+02      0.369514E-12      0.140617E-06      0.451930E-20
  0.0439      0.581955E-09      0.137984E+02      0.873634E-13      0.142340E-06      0.901213E-21
  0.0502      0.571270E-09      0.162627E+02     -0.147250E-11      0.144095E-06     -0.130471E-19
  0.0565      0.559501E-09      0.189131E+02     -0.110966E-11      0.145891E-06     -0.855966E-20
  0.0628      0.546859E-09      0.217715E+02     -0.133241E-11      0.147730E-06     -0.904108E-20
  0.0690      0.533626E-09      0.248536E+02     -0.812427E-12      0.149603E-06     -0.489029E-20
  0.0753      0.520170E-09      0.281733E+02     -0.112867E-11      0.151533E-06     -0.607068E-20
  0.0816      0.506967E-09      0.317200E+02      0.249905E-11      0.153489E-06      0.120926E-19
  0.0879      0.494617E-09      0.354751E+02     -0.146538E-11      0.155515E-06     -0.642388E-20
  0.0942      0.483860E-09      0.393647E+02     -0.731447E-11      0.157558E-06     -0.292764E-19
  0.1004      0.475604E-09      0.432947E+02     -0.544927E-11      0.159686E-06     -0.200988E-19
  0.1067      0.470944E-09      0.470785E+02      0.195402E-12      0.161826E-06      0.671671E-21
  0.1130      0.471186E-09      0.505101E+02      0.154481E-11      0.164061E-06      0.501768E-20
  0.1193      0.477872E-09      0.532897E+02     -0.481551E-11      0.166306E-06     -0.150282E-19
  0.1255      0.492809E-09      0.551618E+02     -0.163032E-11      0.168653E-06     -0.498459E-20
  0.1318      0.518092E-09      0.558644E+02     -0.550477E-11      0.171013E-06     -0.168513E-19
  0.1381      0.556136E-09      0.553073E+02     -0.102802E-10      0.173479E-06     -0.322452E-19
  0.1444      0.609700E-09      0.534970E+02     -0.667983E-11      0.175964E-06     -0.219716E-19
  0.1506      0.681926E-09      0.506458E+02     -0.890623E-12      0.178557E-06     -0.313998E-20
  0.1569      0.776360E-09      0.470192E+02     -0.964296E-12      0.181178E-06     -0.371570E-20
  0.1632      0.896989E-09      0.429609E+02     -0.287607E-11      0.183905E-06     -0.123118E-19
  0.1695      0.104827E-08      0.387494E+02      0.977344E-12      0.186674E-06      0.470831E-20
  0.1758      0.123518E-08      0.346290E+02     -0.694912E-11      0.189547E-06     -0.380371E-19
  0.1820      0.146320E-08      0.307440E+02     -0.780126E-11      0.192474E-06     -0.488401E-19
  0.1883      0.173841E-08      0.271908E+02     -0.590036E-11      0.195505E-06     -0.424244E-19
  0.1946      0.206749E-08      0.239994E+02     -0.224663E-11      0.198604E-06     -0.185917E-19
  0.2009      0.245775E-08      0.211759E+02     -0.200432E-11      0.201807E-06     -0.191013E-19
  0.2071      0.291717E-08      0.186979E+02     -0.342676E-11      0.205091E-06     -0.375871E-19
  0.2134      0.345446E-08      0.165371E+02     -0.240171E-11      0.208481E-06     -0.302781E-19
  0.2197      0.407903E-08      0.146579E+02      0.315750E-13      0.211967E-06      0.456604E-21
  0.2260      0.480109E-08      0.130264E+02     -0.135504E-11      0.215561E-06     -0.224232E-19
  0.2322      0.563165E-08      0.116099E+02      0.375616E-12      0.219266E-06      0.709390E-20
  0.2385      0.658256E-08      0.103789E+02      0.279703E-12      0.223084E-06      0.601195E-20
  0.2448      0.766653E-08      0.930758E+01      0.119643E-12      0.227027E-06      0.291829E-20
  0.2511      0.889717E-08      0.837311E+01      0.181025E-13      0.231092E-06      0.499617E-21
  0.2574      0.102890E-07      0.755648E+01      0.211029E-12      0.235298E-06      0.657112E-20
  0.2636      0.118576E-07      0.684051E+01     -0.164344E-13      0.239632E-06     -0.575718E-21
  0.2699      0.136195E-07      0.621165E+01     -0.718142E-12      0.244121E-06     -0.282234E-19
  0.2762      0.155921E-07      0.565735E+01      0.221233E-12      0.248755E-06      0.972764E-20
  0.2825      0.177940E-07      0.516793E+01      0.157800E-13      0.253562E-06      0.774241E-21
  0.2887      0.202449E-07      0.473413E+01      0.276530E-12      0.258526E-06      0.151010E-19
  0.2950      0.229654E-07      0.434913E+01     -0.578472E-14      0.263685E-06     -0.350725E-21
  0.3013      0.259775E-07      0.400604E+01      0.748929E-14      0.269016E-06      0.502926E-21
  0.3076      0.293041E-07      0.370006E+01     -0.882849E-13      0.274567E-06     -0.655127E-20
  0.3138      0.329693E-07      0.342595E+01     -0.115416E-12      0.280303E-06     -0.944309E-20
  0.3201      0.369985E-07      0.318075E+01     -0.220762E-12      0.286319E-06     -0.198722E-19
  0.3264      0.414182E-07      0.296017E+01     -0.158420E-12      0.292557E-06     -0.156569E-19
  0.3327      0.462560E-07      0.276098E+01      0.183566E-12      0.298994E-06      0.198788E-19
  0.3390      0.515409E-07      0.258120E+01     -0.273122E-12      0.305694E-06     -0.323461E-19
  0.3452      0.573031E-07      0.241902E+01      0.194514E-12      0.312724E-06      0.251463E-19
  0.3515      0.635739E-07      0.227193E+01     -0.464610E-13      0.320031E-06     -0.654465E-20
  0.3578      0.703860E-07      0.213869E+01     -0.164938E-12      0.327691E-06     -0.252720E-19
  0.3641      0.777732E-07      0.201748E+01      0.349997E-13      0.335674E-06      0.582335E-20
  0.3703      0.857706E-07      0.190738E+01     -0.117761E-12      0.344057E-06     -0.212420E-19
  0.3766      0.944146E-07      0.180698E+01      0.151158E-13      0.352816E-06      0.295138E-20
  0.3829      0.103743E-06      0.171560E+01     -0.927584E-13      0.362036E-06     -0.195744E-19
  0.3892      0.113794E-06      0.163213E+01     -0.387044E-13      0.371698E-06     -0.881444E-20
  0.3954      0.124608E-06      0.155610E+01     -0.588345E-13      0.381900E-06     -0.144393E-19
  0.4017      0.136227E-06      0.148658E+01     -0.781727E-13      0.392624E-06     -0.206464E-19
  0.4080      0.148692E-06      0.142329E+01     -0.742770E-13      0.403995E-06     -0.210832E-19
  0.4143      0.162048E-06      0.136544E+01     -0.786742E-13      0.415987E-06     -0.239684E-19
  0.4206      0.176339E-06      0.131297E+01      0.192096E-13      0.428781E-06      0.627334E-20
  0.4268      0.191611E-06      0.126507E+01     -0.572341E-13      0.442314E-06     -0.200112E-19
  0.4331      0.207911E-06      0.122209E+01     -0.428323E-14      0.456917E-06     -0.160142E-20
  0.4394      0.225287E-06      0.118290E+01     -0.716524E-13      0.472381E-06     -0.286138E-19
  0.4457      0.243789E-06      0.114900E+01     -0.101455E-12      0.489534E-06     -0.432252E-19
  0.4519      0.263466E-06      0.111794E+01     -0.545084E-14      0.507596E-06     -0.247492E-20
  0.4582      0.284370E-06      0.109820E+01     -0.444397E-13      0.530820E-06     -0.214802E-19
  0.4645      0.306553E-06      0.107752E+01      0.411965E-15      0.553869E-06      0.211758E-21
  0.4708      0.330067E-06      0.103539E+01     -0.177897E-13      0.565393E-06     -0.971441E-20
  0.4770      0.354967E-06      0.101406E+01     -0.365392E-14      0.587685E-06     -0.211758E-20
  0.4833      0.381307E-06      0.100624E+01     -0.211946E-13      0.618291E-06     -0.130231E-19
  0.4896      0.409143E-06      0.999843E+00     -0.176910E-13      0.650757E-06     -0.115144E-19
  0.4959      0.438530E-06      0.100056E+01     -0.384685E-13      0.689165E-06     -0.264962E-19
  0.5022      0.469526E-06      0.101048E+01     -0.520132E-13      0.735876E-06     -0.378783E-19
  0.5084      0.502187E-06      0.104985E+01     -0.880852E-14      0.807638E-06     -0.677626E-20
  0.5147      0.536572E-06      0.116152E+01     -0.144422E-13      0.943081E-06     -0.117261E-19
  0.5210      0.572738E-06      0.115905E+01     -0.357375E-13      0.992403E-06     -0.305991E-19
  0.5273      0.610744E-06      0.122013E+01     -0.246458E-13      0.110076E-05     -0.222346E-19
  0.5335      0.650649E-06      0.170654E+01     -0.103671E-13      0.162088E-05     -0.984676E-20
  0.5398      0.692512E-06      0.267868E+01     -0.989741E-13      0.267643E-05     -0.988911E-19
  0.5461      0.736392E-06      0.332122E+01     -0.706694E-13      0.348814E-05     -0.742213E-19
  0.5524      0.782349E-06      0.327291E+01     -0.144739E-12      0.361043E-05     -0.159666E-18
  0.5586      0.830442E-06      0.357209E+01     -0.105716E-12      0.413570E-05     -0.122396E-18
  0.5649      0.880731E-06      0.374069E+01     -0.245024E-12      0.454212E-05     -0.297520E-18
  0.5712      0.933273E-06      0.431051E+01     -0.194361E-12      0.548533E-05     -0.247334E-18
  0.5775      0.988128E-06      0.458768E+01     -0.379439E-12      0.611400E-05     -0.505679E-18
  0.5838      0.104536E-05      0.504062E+01     -0.233815E-13      0.703026E-05     -0.326108E-19
  0.5900      0.110501E-05      0.552200E+01      0.882669E-13      0.805457E-05      0.128749E-18
  0.5963      0.116716E-05      0.609118E+01     -0.107237E-12      0.928567E-05     -0.163477E-18
  0.6026      0.123184E-05      0.733215E+01      0.319199E-14      0.116741E-04      0.508220E-20
  0.6089      0.129913E-05      0.832520E+01     -0.281863E-12      0.138351E-04     -0.468409E-18
  0.6151      0.136907E-05      0.116865E+02     -0.150991E-12      0.202578E-04     -0.261733E-18
  0.6214      0.144172E-05      0.147874E+02     -0.724697E-12      0.267205E-04     -0.130951E-17
  0.6277      0.151714E-05      0.381691E+02     -0.107629E-11      0.718528E-04     -0.202610E-17
  0.6340      0.159537E-05      0.631349E+02     -0.407277E-11      0.123741E-03     -0.798244E-17
  0.6402      0.167646E-05      0.421116E+02     -0.183246E-11      0.858820E-04     -0.373711E-17
  0.6465      0.176047E-05      0.130488E+02     -0.307533E-12      0.276738E-04     -0.652215E-18
  0.6528      0.184745E-05      0.561945E+01     -0.320111E-12      0.123862E-04     -0.705578E-18
  0.6591      0.193743E-05      0.522652E+01     -0.197189E-12      0.119662E-04     -0.451469E-18
  0.6654      0.203047E-05      0.566981E+01     -0.417310E-12      0.134762E-04     -0.991876E-18
  0.6716      0.212661E-05      0.655731E+01      0.312558E-13      0.161710E-04      0.770800E-19
  0.6779      0.222589E-05      0.714565E+01     -0.223903E-12      0.182738E-04     -0.572594E-18
  0.6842      0.232835E-05      0.118170E+02     -0.125912E-12      0.313210E-04     -0.333731E-18
  0.6905      0.243403E-05      0.210571E+02      0.175230E-12      0.578147E-04      0.481115E-18
  0.6967      0.254296E-05      0.188817E+02     -0.514898E-12      0.536741E-04     -0.146367E-17
  0.7030      0.265517E-05      0.133585E+02     -0.852335E-13      0.392951E-04     -0.250722E-18
  0.7093      0.277071E-05      0.214598E+02     -0.918746E-12      0.652896E-04     -0.279521E-17
  0.7156      0.288958E-05      0.387955E+02     -0.844577E-12      0.122016E-03     -0.265630E-17
  0.7218      0.301183E-05      0.454229E+02     -0.264197E-11      0.147609E-03     -0.858553E-17
  0.7281      0.313747E-05      0.393642E+02     -0.146790E-11      0.132108E-03     -0.492634E-17
  0.7344      0.326653E-05      0.387081E+02     -0.286564E-11      0.134094E-03     -0.992723E-17
  0.7407      0.339901E-05      0.440607E+02     -0.233194E-11      0.157481E-03     -0.833480E-17
  0.7470      0.353495E-05      0.453848E+02     -0.145972E-11      0.167283E-03     -0.538035E-17
  0.7532      0.367434E-05      0.457198E+02     -0.312122E-11      0.173704E-03     -0.118585E-16
  0.7595      0.381720E-05      0.450011E+02      0.436240E-12      0.176152E-03      0.170762E-17
  0.7658      0.396353E-05      0.385295E+02     -0.102876E-11      0.155318E-03     -0.414707E-17
  0.7721      0.411333E-05      0.386442E+02     -0.223726E-12      0.160354E-03     -0.928348E-18
  0.7783      0.426661E-05      0.434600E+02     -0.184746E-11      0.185549E-03     -0.788757E-17
  0.7846      0.442335E-05      0.447180E+02     -0.959914E-12      0.196350E-03     -0.421484E-17
  0.7909      0.458356E-05      0.451464E+02     -0.260616E-11      0.203780E-03     -0.117636E-16
  0.7972      0.474721E-05      0.452992E+02     -0.168014E-11      0.210103E-03     -0.779270E-17
  0.8034      0.491430E-05      0.452639E+02     -0.728286E-12      0.215631E-03     -0.346945E-17
  0.8097      0.508480E-05      0.452784E+02     -0.238025E-11      0.221453E-03     -0.116416E-16
  0.8160      0.525870E-05      0.451255E+02     -0.142835E-11      0.226498E-03     -0.716929E-17
  0.8223      0.543596E-05      0.447404E+02     -0.305854E-11      0.230362E-03     -0.157480E-16
  0.8286      0.561656E-05      0.441966E+02     -0.208693E-11      0.233342E-03     -0.110182E-16
  0.8348      0.580045E-05      0.433024E+02     -0.358880E-11      0.234331E-03     -0.194208E-16
  0.8411      0.598762E-05      0.424397E+02     -0.263501E-11      0.235304E-03     -0.146096E-16
  0.8474      0.617800E-05      0.412622E+02     -0.404070E-11      0.234300E-03     -0.229444E-16
  0.8537      0.637156E-05      0.402334E+02     -0.836953E-12      0.233884E-03     -0.486536E-17
  0.8599      0.656825E-05      0.389216E+02      0.455632E-14      0.231540E-03      0.271051E-19
  0.8662      0.676801E-05      0.377514E+02     -0.138078E-11      0.229732E-03     -0.840257E-17
  0.8725      0.697079E-05      0.363670E+02     -0.559731E-12      0.226298E-03     -0.348300E-17
  0.8788      0.717651E-05      0.350693E+02     -0.179407E-11      0.223059E-03     -0.114112E-16
  0.8850      0.738513E-05      0.336873E+02     -0.102390E-11      0.218933E-03     -0.665429E-17
  0.8913      0.759656E-05      0.323055E+02     -0.213558E-11      0.214443E-03     -0.141759E-16
  0.8976      0.781074E-05      0.309831E+02     -0.141776E-11      0.209984E-03     -0.960874E-17
  0.9039      0.802758E-05      0.295074E+02     -0.734722E-12      0.204108E-03     -0.508220E-17
  0.9102      0.824700E-05      0.282093E+02     -0.173602E-11      0.199080E-03     -0.122515E-16
  0.9164      0.846892E-05      0.264158E+02     -0.107140E-11      0.190128E-03     -0.771139E-17
  0.9227      0.869325E-05      0.248565E+02     -0.189864E-11      0.182394E-03     -0.139320E-16
  0.9290      0.891989E-05      0.221005E+02     -0.122870E-11      0.165275E-03     -0.918861E-17
  0.9353      0.914875E-05      0.264960E+02     -0.242101E-11      0.201866E-03     -0.184450E-16
  0.9415      0.937972E-05      0.334061E+02     -0.475099E-12      0.259198E-03     -0.368629E-17
  0.9478      0.961270E-05      0.306003E+02     -0.153557E-11      0.241713E-03     -0.121295E-16
  0.9541      0.984757E-05      0.275464E+02     -0.824398E-12      0.221441E-03     -0.662719E-17
  0.9604      0.100842E-04      0.264585E+02     -0.236972E-12      0.216384E-03     -0.193801E-17
  0.9666      0.103226E-04      0.252012E+02     -0.113900E-11      0.209602E-03     -0.947322E-17
  0.9729      0.105625E-04      0.245554E+02     -0.596243E-12      0.207629E-03     -0.504154E-17
  0.9792      0.108038E-04      0.237532E+02     -0.142571E-11      0.204117E-03     -0.122515E-16
  0.9855      0.110464E-04      0.233045E+02     -0.922103E-12      0.203455E-03     -0.805020E-17
  0.9918      0.112902E-04      0.228829E+02     -0.173334E-11      0.202890E-03     -0.153686E-16
  0.9980      0.115350E-04      0.233235E+02     -0.129477E-11      0.209952E-03     -0.116552E-16
  1.0043      0.117807E-04      0.230011E+02     -0.210052E-11      0.210138E-03     -0.191904E-16
  1.0106      0.120272E-04      0.220334E+02     -0.155421E-11      0.204233E-03     -0.144063E-16
  1.0169      0.122743E-04      0.218895E+02     -0.108838E-11      0.205790E-03     -0.102322E-16
  1.0231      0.125218E-04      0.221180E+02     -0.189239E-11      0.210831E-03     -0.180384E-16
  1.0294      0.127697E-04      0.223325E+02     -0.186564E-12      0.215765E-03     -0.180249E-17
  1.0357      0.130178E-04      0.220979E+02     -0.981535E-12      0.216327E-03     -0.960874E-17
  1.0420      0.132659E-04      0.218825E+02     -0.176992E-11      0.216986E-03     -0.175505E-16
  1.0482      0.135139E-04      0.219095E+02     -0.674871E-13      0.219989E-03     -0.677626E-18
  1.0545      0.137615E-04      0.216731E+02     -0.845367E-12      0.220285E-03     -0.859230E-17
  1.0608      0.140088E-04      0.214225E+02     -0.160885E-11      0.220339E-03     -0.165476E-16
  1.0671      0.142554E-04      0.212430E+02      0.586133E-13      0.221030E-03      0.609864E-18
  1.0734      0.145012E-04      0.211001E+02     -0.709670E-12      0.222024E-03     -0.746744E-17
  1.0796      0.147461E-04      0.209571E+02     -0.146126E-11      0.222940E-03     -0.155447E-16
  1.0859      0.149900E-04      0.207740E+02     -0.220722E-11      0.223348E-03     -0.237305E-16
  1.0922      0.152325E-04      0.206142E+02     -0.586393E-12      0.223921E-03     -0.636969E-17
  1.0985      0.154736E-04      0.204349E+02     -0.130691E-11      0.224199E-03     -0.143386E-16
  1.1047      0.157131E-04      0.202972E+02     -0.203204E-11      0.224851E-03     -0.225107E-16
  1.1110      0.159509E-04      0.201335E+02     -0.273427E-11      0.225132E-03     -0.305745E-16
  1.1173      0.161867E-04      0.199930E+02     -0.116626E-11      0.225592E-03     -0.131595E-16
  1.1236      0.164204E-04      0.198237E+02     -0.187765E-11      0.225643E-03     -0.213723E-16
  1.1298      0.166518E-04      0.196686E+02     -0.257974E-11      0.225771E-03     -0.296123E-16
  1.1361      0.168808E-04      0.194958E+02     -0.103878E-11      0.225611E-03     -0.120211E-16
  1.1424      0.171071E-04      0.193307E+02     -0.172209E-11      0.225456E-03     -0.200848E-16
  1.1487      0.173307E-04      0.191573E+02     -0.239659E-11      0.225115E-03     -0.281622E-16
  1.1550      0.175513E-04      0.189794E+02     -0.305841E-11      0.224637E-03     -0.361988E-16
  1.1612      0.177688E-04      0.187987E+02      0.567450E-12      0.224037E-03      0.676271E-17
  1.1675      0.179830E-04      0.186003E+02     -0.109581E-12      0.223139E-03     -0.131460E-17
  1.1738      0.181937E-04      0.184058E+02     -0.783590E-12      0.222199E-03     -0.945966E-17
  1.1801      0.184008E-04      0.181836E+02      0.640539E-12      0.220834E-03      0.777915E-17
  1.1863      0.186042E-04      0.179754E+02     -0.144248E-13      0.219550E-03     -0.176183E-18
  1.1926      0.188036E-04      0.177374E+02     -0.653354E-12      0.217813E-03     -0.802310E-17
  1.1989      0.189988E-04      0.175393E+02     -0.127373E-11      0.216478E-03     -0.157209E-16
  1.2052      0.191899E-04      0.173550E+02      0.797748E-13      0.215230E-03      0.989334E-18
  1.2114      0.193765E-04      0.173511E+02     -0.545047E-12      0.216148E-03     -0.678982E-17
  1.2177      0.195585E-04      0.177585E+02     -0.121338E-11      0.222150E-03     -0.151788E-16
  1.2240      0.197358E-04      0.194243E+02      0.188856E-12      0.243934E-03      0.237169E-17
  1.2303      0.199083E-04      0.236941E+02     -0.621532E-12      0.298624E-03     -0.783336E-17
  1.2366      0.200757E-04      0.278727E+02     -0.174058E-11      0.352444E-03     -0.220093E-16
  1.2428      0.202380E-04      0.280268E+02     -0.275055E-11      0.355454E-03     -0.348842E-16
  1.2491      0.203950E-04      0.256430E+02     -0.534990E-12      0.326097E-03     -0.680337E-17
  1.2554      0.205466E-04      0.234292E+02     -0.133109E-11      0.298658E-03     -0.169678E-16
