 
 # Omega; pulse ft; proj flux t=    500.100000000000     
    0.000000000000         0.76130340E-13      0.00000000E+00      0.00000000E+00      0.00000000E+00      0.00000000E+00      0.00000000E+00      0.00000000E+00
    0.006280045285         0.34874077E-10     -0.71279219E-01      0.34657437E-10     -0.24532712E-10      0.11928314E-19     -0.15406654E-12      0.74910352E-22
    0.012560090569         0.13937409E-09     -0.65896480E-01     -0.94344550E-11     -0.45320445E-10     -0.64885665E-20     -0.43868099E-12      0.34161861E-22
    0.018840135854         0.31389481E-09     -0.48806042E-01      0.64751800E-12     -0.50398355E-10      0.66864349E-21     -0.75518494E-12      0.38360972E-22
    0.025120181138         0.55896774E-09     -0.37105125E-01      0.22939437E-11     -0.51172962E-10      0.31636571E-20     -0.10765535E-11      0.58228882E-22
    0.031400226423         0.87533792E-09     -0.30083862E-01     -0.67270941E-12     -0.51977959E-10     -0.11622864E-20     -0.14029774E-11      0.50929671E-22
    0.037680271707         0.12639648E-08     -0.25412264E-01     -0.81701937E-13     -0.52833209E-10     -0.16986190E-21     -0.17347723E-11      0.49862931E-22
    0.043960316992         0.17260235E-08     -0.22076513E-01     -0.22932464E-12     -0.53722850E-10     -0.55805794E-21     -0.20721543E-11      0.46358302E-22
    0.050240362276         0.22629062E-08     -0.19567912E-01     -0.18253585E-12     -0.54626196E-10     -0.50957093E-21     -0.24152093E-11      0.43158173E-22
    0.056520407561         0.28762236E-08     -0.17618246E-01      0.14715920E-12     -0.55567738E-10      0.46413835E-21     -0.27641772E-11      0.46072983E-22
    0.062800452845         0.35678072E-08     -0.16125064E-01     -0.18919234E-13     -0.56778345E-10     -0.66616962E-22     -0.31207477E-11      0.45654625E-22
    0.069080498130         0.43397112E-08     -0.14903766E-01      0.14413279E-12     -0.58028864E-10      0.56119118E-21     -0.34851716E-11      0.49178931E-22
    0.075360543414         0.51942150E-08     -0.13828109E-01     -0.21555563E-12     -0.59071961E-10     -0.92082678E-21     -0.38561462E-11      0.43396098E-22
    0.081640588699         0.61338257E-08     -0.12919271E-01      0.42281110E-12     -0.60159744E-10      0.19688578E-20     -0.42339521E-11      0.55760614E-22
    0.087920633984         0.71612808E-08     -0.12161577E-01      0.60953108E-12     -0.61394921E-10      0.30770774E-20     -0.46195150E-11      0.75084799E-22
    0.094200679268         0.82795515E-08     -0.11506332E-01     -0.98064200E-12     -0.62680484E-10     -0.53420253E-20     -0.50131513E-11      0.41536638E-22
    0.100480724553         0.94918457E-08     -0.10942757E-01     -0.36236747E-12     -0.64067437E-10     -0.21215818E-20     -0.54154977E-11      0.28213008E-22
    0.106760769837         0.10801611E-07     -0.10446687E-01     -0.21674141E-12     -0.65508566E-10     -0.13591313E-20     -0.58268945E-11      0.19677602E-22
    0.113040815122         0.12212540E-07     -0.10003423E-01     -0.30040295E-12     -0.66982604E-10     -0.20114886E-20     -0.62475483E-11      0.70453628E-23
    0.119320860406         0.13728570E-07     -0.96082721E-02     -0.27615078E-12     -0.68516770E-10     -0.19692364E-20     -0.66778367E-11     -0.53215312E-23
    0.125600905691         0.15353891E-07     -0.92631273E-02      0.27179229E-12     -0.70182041E-10      0.20592330E-20     -0.71185831E-11      0.76105454E-23
    0.131880950975         0.17092949E-07     -0.89521230E-02      0.28067602E-12     -0.71912377E-10      0.22546696E-20     -0.75701961E-11      0.21769972E-22
    0.138160996260         0.18950447E-07     -0.86613547E-02      0.38513108E-12     -0.73631305E-10      0.32740495E-20     -0.80326040E-11      0.42331152E-22
    0.144441041544         0.20931352E-07     -0.83976216E-02      0.32208050E-12     -0.75423321E-10      0.28927691E-20     -0.85062659E-11      0.60497873E-22
    0.150721086829         0.23040899E-07     -0.81586329E-02      0.26813399E-12     -0.77301063E-10      0.25405044E-20     -0.89917200E-11      0.76452355E-22
    0.157001132113         0.25284593E-07     -0.79407289E-02      0.27478994E-12     -0.79260394E-10      0.27428160E-20     -0.94894789E-11      0.93677364E-22
    0.163281177398         0.27668217E-07     -0.77456083E-02      0.13841107E-12     -0.81347320E-10      0.14536456E-20     -0.10000344E-10      0.10280632E-21
    0.169561222683         0.30197832E-07     -0.75669438E-02      0.12897842E-12     -0.83524215E-10      0.14236688E-20     -0.10524880E-10      0.11174703E-21
    0.175841267967         0.32879785E-07     -0.73991179E-02      0.10946506E-12     -0.85749339E-10      0.12686048E-20     -0.11063389E-10      0.11971392E-21
    0.182121313252         0.35720711E-07     -0.72451950E-02      0.12959748E-12     -0.88074883E-10      0.15754279E-20     -0.11616504E-10      0.12960768E-21
    0.188401358536         0.38727539E-07     -0.71030148E-02      0.16479988E-12     -0.90494309E-10      0.20995945E-20     -0.12184812E-10      0.14279323E-21
    0.194681403821         0.41907495E-07     -0.69725148E-02      0.14788335E-12     -0.93024930E-10      0.19730095E-20     -0.12769013E-10      0.15518382E-21
    0.200961449105         0.45268105E-07     -0.68517169E-02      0.14720618E-12     -0.95658077E-10      0.20551724E-20     -0.13369750E-10      0.16809040E-21
    0.207241494390         0.48817202E-07     -0.67410529E-02      0.11174130E-12     -0.98416198E-10      0.16313704E-20     -0.13987808E-10      0.17833548E-21
    0.213521539674         0.52562928E-07     -0.66308031E-02      0.14886074E-12     -0.10116881E-09      0.22712279E-20     -0.14623153E-10      0.19259889E-21
    0.219801584959         0.56513737E-07     -0.65303003E-02      0.71593029E-13     -0.10406364E-09      0.11408712E-20     -0.15276677E-10      0.19976361E-21
    0.226081630243         0.60678401E-07     -0.64326346E-02      0.76179306E-13     -0.10700410E-09      0.12672098E-20     -0.15948668E-10      0.20772175E-21
    0.232361675528         0.65066012E-07     -0.63441851E-02      0.81723326E-13     -0.11010530E-09      0.14183336E-20     -0.16640134E-10      0.21662895E-21
    0.238641720812         0.69685984E-07     -0.62620417E-02      0.69649082E-13     -0.11333334E-09      0.12605415E-20     -0.17351872E-10      0.22454521E-21
    0.244921766097         0.74548059E-07     -0.61885139E-02      0.84160767E-13     -0.11674492E-09      0.15876739E-20     -0.18085036E-10      0.23451587E-21
    0.251201811381         0.79662308E-07     -0.61221133E-02      0.84020440E-13     -0.12033007E-09      0.16514208E-20     -0.18840714E-10      0.24488687E-21
    0.257481856666         0.85039131E-07     -0.60636017E-02      0.82683002E-13     -0.12412107E-09      0.16925094E-20     -0.19620200E-10      0.25551590E-21
    0.263761901951         0.90689267E-07     -0.60087268E-02      0.82151252E-13     -0.12804687E-09      0.17506555E-20     -0.20424340E-10      0.26651010E-21
    0.270041947235         0.96623785E-07     -0.59617974E-02      0.45143730E-13     -0.13221256E-09      0.10011357E-20     -0.21254641E-10      0.27279728E-21
    0.276321992520         0.10285409E-06     -0.59207723E-02      0.83399515E-13     -0.13659260E-09      0.19240322E-20     -0.22112449E-10      0.28488029E-21
    0.282602037804         0.10939194E-06     -0.58871816E-02      0.41866270E-13     -0.14124080E-09      0.10044238E-20     -0.22999447E-10      0.29118811E-21
    0.288882083089         0.11624942E-06     -0.58547356E-02      0.35319485E-13     -0.14602263E-09      0.88090125E-21     -0.23916476E-10      0.29672021E-21
    0.295162128373         0.12343895E-06     -0.58301949E-02      0.39944532E-13     -0.15111840E-09      0.10353605E-20     -0.24865506E-10      0.30322232E-21
    0.301442173658         0.13097330E-06     -0.58128409E-02      0.20858177E-13     -0.15653443E-09      0.56169143E-21     -0.25848550E-10      0.30674977E-21
    0.307722218942         0.13886558E-06     -0.58030144E-02      0.38806486E-13     -0.16230507E-09      0.10853823E-20     -0.26867833E-10      0.31356602E-21
    0.314002264227         0.14712923E-06     -0.57860745E-02      0.61570807E-13     -0.16803234E-09      0.17880667E-20     -0.27923084E-10      0.32479516E-21
    0.320282309511         0.15577804E-06     -0.57795074E-02      0.54567424E-13     -0.17422352E-09      0.16449375E-20     -0.29017215E-10      0.33512544E-21
    0.326562354796         0.16482612E-06     -0.57803314E-02      0.54580263E-13     -0.18082369E-09      0.17074116E-20     -0.30152796E-10      0.34584806E-21
    0.332842400080         0.17428793E-06     -0.57878643E-02      0.38349373E-13     -0.18784070E-09      0.12445995E-20     -0.31332444E-10      0.35366421E-21
    0.339122445365         0.18417826E-06     -0.57970264E-02      0.40066136E-13     -0.19513258E-09      0.13486584E-20     -0.32557886E-10      0.36213384E-21
    0.345402490650         0.19451221E-06     -0.58168974E-02      0.15056822E-13     -0.20302779E-09      0.52552988E-21     -0.33832909E-10      0.36543419E-21
    0.351682535934         0.20530523E-06     -0.58379751E-02      0.10080722E-13     -0.21122928E-09      0.36474012E-21     -0.35159439E-10      0.36772478E-21
    0.357962581219         0.21657306E-06     -0.58698583E-02      0.16986155E-13     -0.22010865E-09      0.63694888E-21     -0.36541731E-10      0.37172484E-21
    0.364242626503         0.22833179E-06     -0.59121921E-02      0.52015488E-14     -0.22970308E-09      0.20209286E-21     -0.37984277E-10      0.37299400E-21
    0.370522671788         0.24059779E-06     -0.59655034E-02      0.62517371E-14     -0.24008588E-09      0.25160555E-21     -0.39492027E-10      0.37457409E-21
    0.376802717072         0.25338774E-06     -0.60073456E-02      0.33764707E-13     -0.25037840E-09      0.14072694E-20     -0.41064415E-10      0.38341181E-21
    0.383082762357         0.26671863E-06     -0.60628521E-02      0.30485305E-13     -0.26162569E-09      0.13155094E-20     -0.42707436E-10      0.39167327E-21
    0.389362807641         0.28060773E-06     -0.61237023E-02      0.34197991E-13     -0.27352808E-09      0.15275254E-20     -0.44425205E-10      0.40126619E-21
    0.395642852926         0.29507259E-06     -0.61994164E-02      0.25980502E-13     -0.28656228E-09      0.12009246E-20     -0.46224829E-10      0.40880805E-21
    0.401922898210         0.31013104E-06     -0.62788660E-02      0.23256464E-13     -0.30027997E-09      0.11122152E-20     -0.48110601E-10      0.41579282E-21
    0.408202943495         0.32580116E-06     -0.63749148E-02      0.18958762E-13     -0.31535052E-09      0.93784086E-21     -0.50091016E-10      0.42168250E-21
    0.414482988779         0.34210131E-06     -0.64712298E-02      0.13433522E-13     -0.33103775E-09      0.68719593E-21     -0.52169948E-10      0.42599812E-21
    0.420763034064         0.35905007E-06     -0.65863027E-02      0.16712822E-13     -0.34833875E-09      0.88391377E-21     -0.54357531E-10      0.43154914E-21
    0.427043079349         0.37666626E-06     -0.67010078E-02      0.92924959E-14     -0.36632607E-09      0.50799576E-21     -0.56658076E-10      0.43473938E-21
    0.433323124633         0.39496893E-06     -0.68359881E-02     -0.11000850E-14     -0.38618468E-09     -0.62146973E-22     -0.59083333E-10      0.43434909E-21
    0.439603169918         0.41397733E-06     -0.69623272E-02      0.30721975E-14     -0.40636178E-09      0.17931126E-21     -0.61635303E-10      0.43547517E-21
    0.445883215202         0.43371092E-06     -0.71049801E-02      0.10557643E-14     -0.42833619E-09      0.63648605E-22     -0.64325274E-10      0.43587489E-21
    0.452163260487         0.45418931E-06     -0.71709182E-02      0.59784800E-14     -0.44643587E-09      0.37219890E-21     -0.67128911E-10      0.43821232E-21
    0.458443305771         0.47543232E-06     -0.70499024E-02      0.38173537E-15     -0.45313629E-09      0.24536247E-22     -0.69974628E-10      0.43836640E-21
    0.464723351056         0.49745989E-06     -0.76460597E-02     -0.66816163E-14     -0.50727555E-09     -0.44328984E-21     -0.73160341E-10      0.43558252E-21
    0.471003396340         0.52029212E-06     -0.88194538E-02      0.39901183E-14     -0.60382011E-09      0.27318174E-21     -0.76952359E-10      0.43729812E-21
    0.477283441625         0.54394922E-06     -0.91534079E-02      0.34413625E-14     -0.64655799E-09      0.24308328E-21     -0.81012772E-10      0.43882469E-21
    0.483563486909         0.56845152E-06     -0.91939238E-02      0.92697031E-14     -0.66985917E-09      0.67538036E-21     -0.85219518E-10      0.44306611E-21
    0.489843532194         0.59381941E-06     -0.94990744E-02      0.27946310E-14     -0.71370867E-09      0.20997334E-21     -0.89701641E-10      0.44438475E-21
    0.496123577478         0.62007337E-06     -0.98843829E-02     -0.53324357E-14     -0.76567673E-09     -0.41306797E-21     -0.94510126E-10      0.44179067E-21
    0.502403622763         0.64723393E-06     -0.10326937E-01      0.30420452E-14     -0.82456090E-09      0.24289403E-21     -0.99688405E-10      0.44331605E-21
    0.508683668048         0.67532166E-06     -0.10831534E-01     -0.12138859E-14     -0.89124177E-09     -0.99881121E-22     -0.10528544E-09      0.44268880E-21
    0.514963713332         0.70435711E-06     -0.11645360E-01      0.27706828E-14     -0.98721524E-09      0.23487985E-21     -0.11148520E-09      0.44416385E-21
    0.521243758617         0.73436086E-06     -0.12554078E-01     -0.89085037E-15     -0.10962161E-08     -0.77788625E-22     -0.11836949E-09      0.44367534E-21
    0.527523803901         0.76535344E-06     -0.13288978E-01     -0.51701324E-14     -0.11949624E-08     -0.46490511E-21     -0.12587390E-09      0.44075571E-21
    0.533803849186         0.79735534E-06     -0.14013928E-01      0.14067927E-13     -0.12973966E-08      0.13023958E-20     -0.13402161E-09      0.44893481E-21
    0.540083894470         0.83038696E-06     -0.15072600E-01      0.13339480E-13     -0.14363165E-08      0.12711619E-20     -0.14304175E-09      0.45691777E-21
    0.546363939755         0.86446862E-06     -0.16276138E-01      0.14067770E-13     -0.15961042E-08      0.13795427E-20     -0.15306535E-09      0.46558136E-21
    0.552643985039         0.89962053E-06     -0.17895898E-01      0.96011593E-14     -0.18055523E-08      0.96867984E-21     -0.16440430E-09      0.47166471E-21
    0.558924030324         0.93586274E-06     -0.19659932E-01      0.61469124E-14     -0.20402532E-08      0.63790951E-21     -0.17721719E-09      0.47567081E-21
    0.565204075608         0.97321515E-06     -0.22046459E-01      0.12565754E-13     -0.23528005E-08      0.13410186E-20     -0.19199288E-09      0.48409247E-21
    0.571484120893         0.10116975E-05     -0.24559958E-01      0.12701140E-13     -0.26947395E-08      0.13935798E-20     -0.20891597E-09      0.49284422E-21
    0.577764166177         0.10513292E-05     -0.28462303E-01      0.15715329E-13     -0.32099689E-08      0.17723695E-20     -0.22907472E-09      0.50397478E-21
    0.584044211462         0.10921295E-05     -0.32324646E-01      0.80417759E-14     -0.37463200E-08      0.93201535E-21     -0.25260178E-09      0.50982787E-21
    0.590324256747         0.11341175E-05     -0.39265000E-01      0.87671043E-14     -0.46753670E-08      0.10439177E-20     -0.28196329E-09      0.51638373E-21
    0.596604302031         0.11773119E-05     -0.45787688E-01      0.11544901E-13     -0.56001097E-08      0.14120108E-20     -0.31713223E-09      0.52525122E-21
    0.602884347316         0.12217310E-05     -0.60490634E-01      0.13402041E-13     -0.75975293E-08      0.16832754E-20     -0.36484506E-09      0.53582226E-21
    0.609164392600         0.12673928E-05     -0.72647835E-01      0.10162457E-13     -0.93678965E-08      0.13104429E-20     -0.42367588E-09      0.54405190E-21
    0.615444437885         0.13143151E-05     -0.11730020E+00      0.80924139E-14     -0.15525732E-07      0.10711035E-20     -0.52117818E-09      0.55077848E-21
    0.621724483169         0.13625152E-05     -0.13432596E+00      0.95839134E-14     -0.18245090E-07      0.13017540E-20     -0.63575817E-09      0.55895356E-21
    0.628004528454         0.14120099E-05     -0.80860595E+00      0.46465081E-13     -0.11268200E-06      0.64750679E-20     -0.13434063E-08      0.59961728E-21
    0.634284573738         0.14628155E-05     -0.14456297E+01      0.10235926E-12     -0.20663560E-06      0.14631041E-19     -0.26410872E-08      0.69150088E-21
    0.640564619023         0.15149482E-05     -0.41600634E+00      0.39762356E-13     -0.60978603E-07      0.58284036E-20     -0.30240356E-08      0.72810352E-21
    0.646844664307         0.15684233E-05      0.45071136E+00     -0.13672936E-13      0.67733648E-07     -0.20547914E-20     -0.25986652E-08      0.71519933E-21
    0.653124709592         0.16232557E-05      0.31652423E+00     -0.12081296E-13      0.48757390E-07     -0.18610028E-20     -0.22924666E-08      0.70351215E-21
    0.659404754876         0.16794598E-05      0.24432435E+00     -0.35060894E-14      0.38567986E-07     -0.55345611E-21     -0.20502579E-08      0.70003642E-21
    0.665684800161         0.17370493E-05      0.28068034E+00     -0.30021004E-14      0.45393971E-07     -0.48552477E-21     -0.17651817E-08      0.69698731E-21
    0.671964845445         0.17960375E-05      0.31490627E+00     -0.28399775E-13      0.52166635E-07     -0.47046402E-20     -0.14375729E-08      0.66744195E-21
    0.678244890730         0.18564368E-05      0.49617747E+00     -0.26335697E-13      0.84173108E-07     -0.44676704E-20     -0.90896193E-09      0.63938478E-21
    0.684524936015         0.19182592E-05      0.18845317E+01     -0.12215057E-12      0.32731367E-06     -0.21215642E-19      0.11465827E-08      0.50614959E-21
    0.690804981299         0.19815157E-05      0.55317906E+01     -0.11819855E-12      0.98344590E-06     -0.21013428E-19      0.73226675E-08      0.37418431E-21
    0.697085026584         0.20462170E-05      0.90980104E+01     -0.31918106E-12      0.16552174E-05     -0.58069184E-19      0.17717508E-07      0.95072059E-23
    0.703365071868         0.21123726E-05      0.95466103E+01      0.69346863E-13      0.17769761E-05      0.12908008E-19      0.28876998E-07      0.90570079E-22
    0.709645117153         0.21799915E-05      0.10671819E+02     -0.73991267E-13      0.20318643E-05     -0.14087591E-19      0.41637198E-07      0.20993716E-23
    0.715925162437         0.22490820E-05      0.16482909E+02     -0.12853904E-11      0.32093286E-05     -0.25027380E-18      0.61791927E-07     -0.15696314E-20
    0.722205207722         0.23196512E-05      0.22407642E+02     -0.79909367E-12      0.44606784E-05     -0.15907519E-18      0.89805189E-07     -0.25686308E-20
    0.728485253006         0.23917059E-05      0.22962822E+02     -0.11395128E-11      0.46725605E-05     -0.23187231E-18      0.11914908E-06     -0.40247994E-20
    0.734765298291         0.24652514E-05      0.21045207E+02     -0.14813285E-12      0.43763139E-05     -0.30803966E-19      0.14663253E-06     -0.42182497E-20
    0.741045343575         0.25402927E-05      0.20308139E+02     -0.42639103E-12      0.43147117E-05     -0.90591971E-19      0.17372911E-06     -0.47871714E-20
    0.747325388860         0.26168335E-05      0.20520027E+02     -0.18896032E-11      0.44533513E-05     -0.41009044E-18      0.20169636E-06     -0.73625579E-20
    0.753605434144         0.26948767E-05      0.22018462E+02     -0.10893777E-11      0.48800529E-05     -0.24144378E-18      0.23234332E-06     -0.88788358E-20
    0.759885479429         0.27744242E-05      0.21904684E+02     -0.13901474E-11      0.49568341E-05     -0.31457792E-18      0.26347246E-06     -0.10854399E-19
    0.766165524714         0.28554769E-05      0.18587013E+02     -0.38868335E-12      0.42934689E-05     -0.89783114E-19      0.29043564E-06     -0.11418241E-19
