 
 # eight columns.
 # Omega (column 1); |pulse ft|^2 (2); cross section (Mb) (3); flux (5); flux in
 tegral domega (7)
 
  0.0000      0.761303E-13      0.000000E+00      0.000000E+00      0.000000E+00      0.000000E+00      0.000000E+00      0.000000E+00
  0.0063      0.348741E-10     -0.571907E-01      0.302309E-09     -0.196837E-10      0.104048E-18     -0.123615E-12      0.653426E-21
  0.0126      0.139374E-09     -0.243399E-01      0.223182E-10     -0.167398E-10      0.153494E-19     -0.228742E-12      0.749821E-21
  0.0188      0.313895E-09     -0.245209E-01     -0.756788E-11     -0.253209E-10     -0.781478E-20     -0.387758E-12      0.700744E-21
  0.0251      0.558968E-09     -0.172230E-01     -0.194125E-10     -0.237528E-10     -0.267724E-19     -0.536927E-12      0.532612E-21
  0.0314      0.875338E-09     -0.128558E-01     -0.166134E-10     -0.222119E-10     -0.287041E-19     -0.676418E-12      0.352349E-21
  0.0377      0.126396E-08     -0.132521E-01     -0.336116E-11     -0.275517E-10     -0.698801E-20     -0.849444E-12      0.308464E-21
  0.0440      0.172602E-08     -0.135147E-01     -0.118779E-10     -0.328879E-10     -0.289048E-19     -0.105598E-11      0.126941E-21
  0.0502      0.226291E-08     -0.107122E-01     -0.718611E-11     -0.299044E-10     -0.200609E-19     -0.124378E-11      0.957553E-24
  0.0565      0.287622E-08     -0.855149E-02     -0.105267E-10     -0.269713E-10     -0.332012E-19     -0.141316E-11     -0.207547E-21
  0.0628      0.356781E-08     -0.767382E-02     -0.587591E-11     -0.270205E-10     -0.206898E-19     -0.158285E-11     -0.337480E-21
  0.0691      0.433971E-08     -0.695671E-02     -0.364181E-11     -0.270865E-10     -0.141796E-19     -0.175296E-11     -0.426529E-21
  0.0754      0.519422E-08     -0.625799E-02     -0.554672E-11     -0.267333E-10     -0.236949E-19     -0.192084E-11     -0.575334E-21
  0.0816      0.613383E-08     -0.567510E-02     -0.539835E-11     -0.264266E-10     -0.251379E-19     -0.208680E-11     -0.733201E-21
  0.0879      0.716128E-08     -0.525558E-02     -0.417233E-11     -0.265316E-10     -0.210630E-19     -0.225342E-11     -0.865478E-21
  0.0942      0.827955E-08     -0.489902E-02     -0.495650E-11     -0.266873E-10     -0.270004E-19     -0.242102E-11     -0.103504E-20
  0.1005      0.949185E-08     -0.470325E-02     -0.263757E-11     -0.275365E-10     -0.154424E-19     -0.259395E-11     -0.113202E-20
  0.1068      0.108016E-07     -0.453376E-02     -0.307733E-11     -0.284301E-10     -0.192972E-19     -0.277249E-11     -0.125321E-20
  0.1130      0.122125E-07     -0.440391E-02     -0.328111E-11     -0.294884E-10     -0.219702E-19     -0.295768E-11     -0.139118E-20
  0.1193      0.137286E-07     -0.429164E-02     -0.362220E-11     -0.306038E-10     -0.258300E-19     -0.314988E-11     -0.155340E-20
  0.1256      0.153539E-07     -0.422619E-02      0.416119E-13     -0.320197E-10      0.315272E-21     -0.335096E-11     -0.155142E-20
  0.1319      0.170929E-07     -0.416916E-02      0.491179E-12     -0.334908E-10      0.394564E-20     -0.356129E-11     -0.152664E-20
  0.1382      0.189504E-07     -0.414076E-02      0.288818E-12     -0.352012E-10      0.245528E-20     -0.378235E-11     -0.151122E-20
  0.1444      0.209314E-07     -0.411596E-02     -0.387731E-12     -0.369675E-10     -0.348241E-20     -0.401451E-11     -0.153309E-20
  0.1507      0.230409E-07     -0.399827E-02     -0.870900E-12     -0.378826E-10     -0.825156E-20     -0.425241E-11     -0.158491E-20
  0.1570      0.252846E-07     -0.389537E-02     -0.349506E-13     -0.388817E-10     -0.348860E-21     -0.449659E-11     -0.158710E-20
  0.1633      0.276682E-07     -0.384629E-02     -0.446715E-13     -0.403952E-10     -0.469158E-21     -0.475028E-11     -0.159004E-20
  0.1696      0.301978E-07     -0.380417E-02     -0.547170E-12     -0.419906E-10     -0.603968E-20     -0.501398E-11     -0.162797E-20
  0.1758      0.328798E-07     -0.376828E-02     -0.339814E-12     -0.436711E-10     -0.393815E-20     -0.528823E-11     -0.165271E-20
  0.1821      0.357207E-07     -0.373781E-02     -0.592869E-12     -0.454380E-10     -0.720710E-20     -0.557359E-11     -0.169797E-20
  0.1884      0.387275E-07     -0.360836E-02     -0.298290E-12     -0.459715E-10     -0.380029E-20     -0.586229E-11     -0.172183E-20
  0.1947      0.419075E-07     -0.349538E-02     -0.339441E-13     -0.466341E-10     -0.452871E-21     -0.615515E-11     -0.172468E-20
  0.2010      0.452681E-07     -0.354235E-02     -0.353085E-12     -0.494555E-10     -0.492949E-20     -0.646574E-11     -0.175563E-20
  0.2072      0.488172E-07     -0.358822E-02     -0.321174E-12     -0.523863E-10     -0.468900E-20     -0.679473E-11     -0.178508E-20
  0.2135      0.525629E-07     -0.356461E-02     -0.434287E-12     -0.543867E-10     -0.662609E-20     -0.713628E-11     -0.182669E-20
  0.2198      0.565137E-07     -0.354764E-02     -0.883502E-12     -0.565334E-10     -0.140791E-19     -0.749131E-11     -0.191511E-20
  0.2261      0.606784E-07     -0.354126E-02     -0.555967E-12     -0.589073E-10     -0.924827E-20     -0.786125E-11     -0.197319E-20
  0.2324      0.650660E-07     -0.354073E-02     -0.662831E-12     -0.614504E-10     -0.115036E-19     -0.824716E-11     -0.204543E-20
  0.2386      0.696860E-07     -0.353023E-02     -0.582350E-12     -0.638918E-10     -0.105396E-19     -0.864840E-11     -0.211162E-20
  0.2449      0.745481E-07     -0.352705E-02     -0.704479E-12     -0.665369E-10     -0.132898E-19     -0.906626E-11     -0.219508E-20
  0.2512      0.796623E-07     -0.353586E-02     -0.570182E-12     -0.694973E-10     -0.112069E-19     -0.950270E-11     -0.226546E-20
  0.2575      0.850391E-07     -0.355157E-02     -0.571359E-12     -0.727002E-10     -0.116956E-19     -0.995926E-11     -0.233891E-20
  0.2638      0.906893E-07     -0.356997E-02     -0.510428E-12     -0.760765E-10     -0.108773E-19     -0.104370E-10     -0.240722E-20
  0.2700      0.966238E-07     -0.359739E-02     -0.655564E-12     -0.797780E-10     -0.145382E-19     -0.109380E-10     -0.249852E-20
  0.2763      0.102854E-06     -0.363736E-02     -0.615133E-12     -0.839142E-10     -0.141912E-19     -0.114650E-10     -0.258764E-20
  0.2826      0.109392E-06     -0.368905E-02     -0.432893E-12     -0.885048E-10     -0.103856E-19     -0.120208E-10     -0.265287E-20
  0.2889      0.116249E-06     -0.376593E-02     -0.399061E-12     -0.939260E-10     -0.995297E-20     -0.126107E-10     -0.271537E-20
  0.2952      0.123439E-06     -0.386607E-02     -0.380615E-12     -0.100208E-09     -0.986553E-20     -0.132400E-10     -0.277733E-20
  0.3014      0.130973E-06     -0.406470E-02     -0.441024E-12     -0.109459E-09     -0.118764E-19     -0.139274E-10     -0.285191E-20
  0.3077      0.138866E-06     -0.434458E-02     -0.451069E-12     -0.121514E-09     -0.126160E-19     -0.146905E-10     -0.293114E-20
  0.3140      0.147129E-06     -0.517983E-02     -0.313381E-12     -0.150427E-09     -0.910083E-20     -0.156352E-10     -0.298829E-20
  0.3203      0.155778E-06     -0.357196E-02     -0.264089E-12     -0.107677E-09     -0.796098E-20     -0.163114E-10     -0.303829E-20
  0.3266      0.164826E-06      0.320871E-03     -0.278774E-12      0.100377E-10     -0.872076E-20     -0.162484E-10     -0.309306E-20
  0.3328      0.174288E-06      0.114072E-03     -0.344633E-12      0.370212E-11     -0.111848E-19     -0.162251E-10     -0.316330E-20
  0.3391      0.184178E-06     -0.210646E-02     -0.372830E-12     -0.709052E-10     -0.125498E-19     -0.166704E-10     -0.324211E-20
  0.3454      0.194512E-06     -0.266184E-02     -0.336780E-12     -0.929066E-10     -0.117547E-19     -0.172539E-10     -0.331593E-20
  0.3517      0.205305E-06     -0.278694E-02     -0.319572E-12     -0.100837E-09     -0.115628E-19     -0.178871E-10     -0.338854E-20
  0.3580      0.216573E-06     -0.285813E-02     -0.273189E-12     -0.107174E-09     -0.102441E-19     -0.185602E-10     -0.345288E-20
  0.3642      0.228332E-06     -0.278849E-02     -0.286070E-12     -0.108340E-09     -0.111145E-19     -0.192406E-10     -0.352268E-20
  0.3705      0.240598E-06     -0.271129E-02     -0.302044E-12     -0.109118E-09     -0.121560E-19     -0.199259E-10     -0.359902E-20
  0.3768      0.253388E-06     -0.290067E-02     -0.250048E-12     -0.120896E-09     -0.104217E-19     -0.206851E-10     -0.366447E-20
  0.3831      0.266719E-06     -0.304622E-02     -0.205481E-12     -0.131451E-09     -0.886697E-20     -0.215106E-10     -0.372015E-20
  0.3894      0.280608E-06     -0.308537E-02     -0.210518E-12     -0.137815E-09     -0.940322E-20     -0.223761E-10     -0.377920E-20
  0.3956      0.295073E-06     -0.306524E-02     -0.217879E-12     -0.141688E-09     -0.100712E-19     -0.232659E-10     -0.384245E-20
  0.4019      0.310131E-06     -0.312742E-02     -0.222973E-12     -0.149565E-09     -0.106634E-19     -0.242052E-10     -0.390942E-20
  0.4082      0.325801E-06     -0.305516E-02     -0.209787E-12     -0.151131E-09     -0.103776E-19     -0.251543E-10     -0.397459E-20
  0.4145      0.342101E-06     -0.309744E-02     -0.188356E-12     -0.158450E-09     -0.963540E-20     -0.261494E-10     -0.403510E-20
  0.4208      0.359050E-06     -0.282011E-02     -0.192476E-12     -0.149151E-09     -0.101798E-19     -0.270860E-10     -0.409903E-20
  0.4270      0.376666E-06     -0.286793E-02     -0.195671E-12     -0.156782E-09     -0.106968E-19     -0.280706E-10     -0.416621E-20
  0.4333      0.394969E-06     -0.201989E-02     -0.197471E-12     -0.114109E-09     -0.111557E-19     -0.287872E-10     -0.423627E-20
  0.4396      0.413977E-06     -0.217988E-02     -0.212336E-12     -0.127231E-09     -0.123931E-19     -0.295863E-10     -0.431409E-20
  0.4459      0.433711E-06      0.122812E-02     -0.189050E-12      0.740391E-10     -0.113972E-19     -0.291213E-10     -0.438567E-20
  0.4522      0.454189E-06     -0.124346E-02     -0.190066E-12     -0.774134E-10     -0.118328E-19     -0.296075E-10     -0.445998E-20
  0.4584      0.475432E-06      0.661117E-01     -0.184535E-12      0.424937E-08     -0.118611E-19     -0.292123E-11     -0.453447E-20
  0.4647      0.497460E-06      0.176831E+00     -0.211673E-12      0.117318E-07     -0.140434E-19      0.707552E-10     -0.462266E-20
  0.4710      0.520292E-06      0.107319E+00     -0.171860E-12      0.734757E-08     -0.117663E-19      0.116898E-09     -0.469655E-20
  0.4773      0.543949E-06     -0.139857E-01     -0.156237E-12     -0.987892E-09     -0.110359E-19      0.110694E-09     -0.476586E-20
  0.4836      0.568452E-06     -0.265227E-01     -0.137265E-12     -0.193241E-08     -0.100009E-19      0.985586E-10     -0.482867E-20
  0.4898      0.593819E-06     -0.214949E-01     -0.154989E-12     -0.161501E-08     -0.116450E-19      0.884162E-10     -0.490180E-20
  0.4961      0.620073E-06     -0.255257E-01     -0.160414E-12     -0.197731E-08     -0.124262E-19      0.759987E-10     -0.497984E-20
  0.5024      0.647234E-06     -0.265333E-01     -0.141176E-12     -0.211857E-08     -0.112723E-19      0.626940E-10     -0.505063E-20
  0.5087      0.675322E-06      0.835457E-01     -0.135434E-12      0.687432E-08     -0.111438E-19      0.105865E-09     -0.512061E-20
  0.5150      0.704357E-06      0.805866E+00     -0.141407E-12      0.683159E-07     -0.119875E-19      0.534892E-09     -0.519589E-20
  0.5212      0.734361E-06      0.156652E+01     -0.196770E-12      0.136788E-06     -0.171819E-19      0.139392E-08     -0.530379E-20
  0.5275      0.765353E-06      0.143661E+01     -0.211386E-12      0.129182E-06     -0.190081E-19      0.220519E-08     -0.542317E-20
  0.5338      0.797355E-06      0.136258E+01     -0.120429E-12      0.126146E-06     -0.111492E-19      0.299740E-08     -0.549318E-20
  0.5401      0.830387E-06      0.184070E+01     -0.135102E-12      0.175406E-06     -0.128743E-19      0.409895E-08     -0.557403E-20
  0.5464      0.864469E-06      0.234856E+01     -0.188636E-12      0.230309E-06     -0.184984E-19      0.554530E-08     -0.569021E-20
  0.5526      0.899621E-06      0.262469E+01     -0.986683E-13      0.264810E-06     -0.995484E-20      0.720832E-08     -0.575272E-20
  0.5589      0.935863E-06      0.282482E+01     -0.307788E-12      0.293152E-06     -0.319414E-19      0.904933E-08     -0.595332E-20
  0.5652      0.973215E-06      0.296184E+01     -0.166783E-12      0.316088E-06     -0.177991E-19      0.110344E-07     -0.606510E-20
  0.5715      0.101170E-05      0.317779E+01     -0.201692E-12      0.348670E-06     -0.221298E-19      0.132240E-07     -0.620407E-20
  0.5778      0.105133E-05      0.344753E+01     -0.264729E-12      0.388812E-06     -0.298561E-19      0.156658E-07     -0.639157E-20
  0.5840      0.109213E-05      0.390285E+01     -0.130495E-12      0.452328E-06     -0.151239E-19      0.185064E-07     -0.648655E-20
  0.5903      0.113412E-05      0.438171E+01     -0.193317E-12      0.521739E-06     -0.230187E-19      0.217830E-07     -0.663111E-20
  0.5966      0.117731E-05      0.506986E+01     -0.267360E-12      0.620074E-06     -0.326997E-19      0.256771E-07     -0.683646E-20
  0.6029      0.122173E-05      0.577511E+01     -0.374192E-12      0.725345E-06     -0.469980E-19      0.302323E-07     -0.713161E-20
  0.6092      0.126739E-05      0.713012E+01     -0.124408E-12      0.919425E-06     -0.160423E-19      0.360063E-07     -0.723236E-20
  0.6154      0.131432E-05      0.876614E+01     -0.272071E-12      0.116028E-05     -0.360110E-19      0.432929E-07     -0.745851E-20
  0.6217      0.136252E-05      0.159276E+02     -0.655552E-12      0.216339E-05     -0.890417E-19      0.568791E-07     -0.801769E-20
  0.6280      0.141201E-05      0.453771E+02     -0.238317E-11      0.632346E-05     -0.332103E-18      0.965907E-07     -0.101033E-19
  0.6343      0.146282E-05      0.683244E+02     -0.449968E-11      0.976616E-05     -0.643176E-18      0.157923E-06     -0.141425E-19
  0.6406      0.151495E-05      0.460557E+02     -0.370544E-11      0.675089E-05     -0.543147E-18      0.200319E-06     -0.175535E-19
  0.6468      0.156842E-05      0.135218E+02     -0.557962E-12      0.203208E-05     -0.838515E-19      0.213080E-06     -0.180801E-19
  0.6531      0.162326E-05      0.342153E+01     -0.242310E-12      0.527053E-06     -0.373254E-19      0.216390E-06     -0.183145E-19
  0.6594      0.167946E-05      0.364156E+01     -0.136694E-12      0.574841E-06     -0.215779E-19      0.220000E-06     -0.184500E-19
  0.6657      0.173705E-05      0.449340E+01     -0.194010E-12      0.726710E-06     -0.313769E-19      0.224564E-06     -0.186470E-19
  0.6720      0.179604E-05      0.539400E+01     -0.596503E-12      0.893557E-06     -0.988153E-19      0.230175E-06     -0.192676E-19
  0.6782      0.185644E-05      0.675049E+01     -0.442827E-12      0.114517E-05     -0.751226E-19      0.237367E-06     -0.197394E-19
  0.6845      0.191826E-05      0.162206E+02     -0.114816E-11      0.281727E-05     -0.199417E-18      0.255060E-06     -0.209917E-19
  0.6908      0.198152E-05      0.313368E+02     -0.760945E-12      0.557108E-05     -0.135281E-18      0.290046E-06     -0.218413E-19
  0.6971      0.204622E-05      0.326287E+02     -0.123671E-11      0.593620E-05     -0.224997E-18      0.327326E-06     -0.232543E-19
  0.7034      0.211237E-05      0.235524E+02      0.937903E-13      0.438397E-05      0.174578E-19      0.354857E-06     -0.231447E-19
  0.7096      0.217999E-05      0.239197E+02     -0.243923E-12      0.455420E-05     -0.464419E-19      0.383458E-06     -0.234363E-19
  0.7159      0.224908E-05      0.353584E+02     -0.284081E-11      0.688451E-05     -0.553123E-18      0.426693E-06     -0.269099E-19
  0.7222      0.231965E-05      0.457497E+02     -0.169367E-11      0.910737E-05     -0.337159E-18      0.483888E-06     -0.290273E-19
  0.7285      0.239171E-05      0.462321E+02     -0.235389E-11      0.940747E-05     -0.478978E-18      0.542967E-06     -0.320353E-19
  0.7348      0.246525E-05      0.426821E+02     -0.352018E-12      0.887567E-05     -0.732015E-19      0.598707E-06     -0.324950E-19
  0.7410      0.254029E-05      0.417813E+02     -0.937172E-12      0.887695E-05     -0.199114E-18      0.654454E-06     -0.337455E-19
  0.7473      0.261683E-05      0.427666E+02     -0.400034E-11      0.928142E-05     -0.868173E-18      0.712742E-06     -0.391976E-19
  0.7536      0.269488E-05      0.460370E+02     -0.232534E-11      0.102034E-04     -0.515377E-18      0.776820E-06     -0.424342E-19
  0.7599      0.277442E-05      0.458416E+02     -0.295187E-11      0.103736E-04     -0.667981E-18      0.841966E-06     -0.466292E-19
  0.7662      0.285548E-05      0.397395E+02     -0.867826E-12      0.917955E-05     -0.200462E-18      0.899614E-06     -0.478881E-19
  0.7724      0.293803E-05      0.389201E+02     -0.139591E-11      0.917498E-05     -0.329070E-18      0.957234E-06     -0.499547E-19
  0.7787      0.302210E-05      0.431970E+02     -0.216398E-11      0.103901E-04     -0.520499E-18      0.102248E-05     -0.532234E-19
  0.7850      0.310766E-05      0.445959E+02     -0.320870E-12      0.109420E-04     -0.787287E-19      0.109120E-05     -0.537178E-19
  0.7913      0.319472E-05      0.449655E+02     -0.350503E-11      0.112518E-04     -0.877070E-18      0.116186E-05     -0.592259E-19
  0.7976      0.328328E-05      0.453785E+02     -0.159884E-11      0.115780E-04     -0.407933E-18      0.123457E-05     -0.617877E-19
  0.8038      0.337333E-05      0.455459E+02     -0.224429E-11      0.118462E-04     -0.583725E-18      0.130897E-05     -0.654535E-19
  0.8101      0.346486E-05      0.455311E+02     -0.289576E-11      0.120693E-04     -0.767605E-18      0.138476E-05     -0.702741E-19
  0.8164      0.355786E-05      0.452118E+02     -0.983244E-12      0.122117E-04     -0.265575E-18      0.146145E-05     -0.719420E-19
  0.8227      0.365233E-05      0.446774E+02     -0.159328E-11      0.122933E-04     -0.438400E-18      0.153866E-05     -0.746951E-19
  0.8290      0.374826E-05      0.439020E+02      0.308830E-12      0.123032E-04      0.865477E-19      0.161592E-05     -0.741516E-19
  0.8352      0.384563E-05      0.430029E+02     -0.274568E-11      0.122714E-04     -0.783513E-18      0.169299E-05     -0.790721E-19
  0.8415      0.394444E-05      0.419549E+02     -0.328173E-11      0.121883E-04     -0.953373E-18      0.176953E-05     -0.850593E-19
  0.8478      0.404466E-05      0.408415E+02     -0.144801E-11      0.120762E-04     -0.428155E-18      0.184537E-05     -0.877482E-19
  0.8541      0.414629E-05      0.396252E+02     -0.196422E-11      0.119226E-04     -0.591005E-18      0.192024E-05     -0.914597E-19
  0.8604      0.424931E-05      0.383630E+02     -0.263357E-12      0.117433E-04     -0.806161E-19      0.199399E-05     -0.919660E-19
  0.8666      0.435370E-05      0.370308E+02     -0.288014E-11      0.115298E-04     -0.896753E-18      0.206640E-05     -0.975976E-19
  0.8729      0.445944E-05      0.356732E+02     -0.328609E-11      0.112950E-04     -0.104046E-17      0.213733E-05     -0.104132E-18
  0.8792      0.456652E-05      0.342874E+02     -0.169354E-11      0.110375E-04     -0.545170E-18      0.220665E-05     -0.107555E-18
  0.8855      0.467491E-05      0.328962E+02     -0.208384E-11      0.107642E-04     -0.681866E-18      0.227425E-05     -0.111838E-18
  0.8918      0.478459E-05      0.315119E+02     -0.652694E-12      0.104788E-04     -0.217043E-18      0.234005E-05     -0.113201E-18
  0.8980      0.489554E-05      0.301116E+02     -0.104459E-11      0.101737E-04     -0.352931E-18      0.240395E-05     -0.115417E-18
  0.9043      0.500773E-05      0.287170E+02     -0.304413E-11      0.985592E-05     -0.104477E-17      0.246584E-05     -0.121978E-18
  0.9106      0.512114E-05      0.271926E+02     -0.172882E-11      0.947830E-05     -0.602598E-18      0.252537E-05     -0.125763E-18
  0.9169      0.523574E-05      0.255353E+02     -0.197994E-11      0.903745E-05     -0.700740E-18      0.258212E-05     -0.130163E-18
