 
 # Omega; pulse ft; proj flux t=    500.250000000000     
    0.000000000000         0.23733438E-09      0.00000000E+00      0.00000000E+00      0.80535336E-29     -0.82077975E-39      0.40227440E-32     -0.40997989E-42
    0.006276908399         0.26847166E-09      0.27233279E-21     -0.24637678E-31      0.90720439E-29     -0.82073881E-39      0.85542345E-32     -0.81993934E-42
    0.012553816798         0.36198451E-09      0.45448182E-21     -0.36486106E-31      0.10206651E-28     -0.81939679E-39      0.13652462E-31     -0.12292284E-41
    0.018830725196         0.51817601E-09      0.48888104E-21     -0.38351555E-31      0.10477701E-28     -0.82195071E-39      0.18886078E-31     -0.16397932E-41
    0.025107633595         0.73755180E-09      0.46457564E-21     -0.35912471E-31      0.10629081E-28     -0.82164568E-39      0.24195310E-31     -0.20502057E-41
    0.031384541994         0.10208207E-08      0.42367308E-21     -0.32430451E-31      0.10732900E-28     -0.82155985E-39      0.29556399E-31     -0.24605752E-41
    0.037661450393         0.13688958E-08      0.38354772E-21     -0.29002150E-31      0.10857886E-28     -0.82102440E-39      0.34979918E-31     -0.28706773E-41
    0.043938358791         0.17828953E-08      0.34688539E-21     -0.25931877E-31      0.10962777E-28     -0.81953688E-39      0.40455831E-31     -0.32800364E-41
    0.050215267190         0.22641447E-08      0.31511639E-21     -0.23373189E-31      0.11066032E-28     -0.82080296E-39      0.45983319E-31     -0.36900279E-41
    0.056492175589         0.28141777E-08      0.28753205E-21     -0.21122578E-31      0.11155833E-28     -0.81952589E-39      0.51555664E-31     -0.40993815E-41
    0.062769083988         0.34347388E-08      0.26467048E-21     -0.19287774E-31      0.11279919E-28     -0.82202038E-39      0.57189989E-31     -0.45099811E-41
    0.069045992387         0.41277855E-08      0.24490531E-21     -0.17670285E-31      0.11403270E-28     -0.82276298E-39      0.62885928E-31     -0.49209516E-41
    0.075322900785         0.48954902E-08      0.22700941E-21     -0.16223220E-31      0.11491204E-28     -0.82121853E-39      0.68625790E-31     -0.53311507E-41
    0.081599809184         0.57402438E-08      0.21147691E-21     -0.14947070E-31      0.11586618E-28     -0.81893573E-39      0.74413311E-31     -0.57402095E-41
    0.087876717583         0.66646579E-08      0.19776533E-21     -0.13893285E-31      0.11681719E-28     -0.82065670E-39      0.80248336E-31     -0.61501279E-41
    0.094153625982         0.76715684E-08      0.18554863E-21     -0.12962711E-31      0.11774905E-28     -0.82261282E-39      0.86129906E-31     -0.65610234E-41
    0.100430534380         0.87640384E-08      0.17487038E-21     -0.12089643E-31      0.11885222E-28     -0.82168341E-39      0.92066581E-31     -0.69714547E-41
    0.106707442779         0.99453622E-08      0.16526764E-21     -0.11325896E-31      0.11996823E-28     -0.82214987E-39      0.98059000E-31     -0.73821189E-41
    0.112984351178         0.11219069E-07      0.15631916E-21     -0.10659765E-31      0.12089358E-28     -0.82440132E-39      0.10409764E-30     -0.77939078E-41
    0.119261259577         0.12588925E-07      0.14817193E-21     -0.99959067E-32      0.12181695E-28     -0.82179595E-39      0.11018240E-30     -0.82043953E-41
    0.125538167976         0.14058942E-07      0.14096347E-21     -0.94231331E-32      0.12295211E-28     -0.82191086E-39      0.11632387E-30     -0.86149402E-41
    0.131815076374         0.15633376E-07      0.13431437E-21     -0.88673697E-32      0.12406883E-28     -0.81909644E-39      0.12252111E-30     -0.90240793E-41
    0.138091984773         0.17316734E-07      0.12822842E-21     -0.83906456E-32      0.12523749E-28     -0.81949335E-39      0.12877673E-30     -0.94334166E-41
    0.144368893172         0.19113780E-07      0.12259200E-21     -0.79560678E-32      0.12641181E-28     -0.82039684E-39      0.13509101E-30     -0.98432052E-41
    0.150645801571         0.21029537E-07      0.11733995E-21     -0.75795915E-32      0.12757663E-28     -0.82408313E-39      0.14146347E-30     -0.10254835E-40
    0.156922709970         0.23069292E-07      0.11249371E-21     -0.71914949E-32      0.12880397E-28     -0.82341769E-39      0.14789723E-30     -0.10666133E-40
    0.163199618368         0.25238602E-07      0.10786884E-21     -0.68016802E-32      0.12992559E-28     -0.81924708E-39      0.15438702E-30     -0.11075347E-40
    0.169476526767         0.27543295E-07      0.10355978E-21     -0.64842282E-32      0.13108410E-28     -0.82076188E-39      0.16093468E-30     -0.11485318E-40
    0.175753435166         0.29989481E-07      0.99606507E-22     -0.61738675E-32      0.13237482E-28     -0.82049318E-39      0.16754681E-30     -0.11895155E-40
    0.182030343565         0.32583550E-07      0.95888897E-22     -0.58958621E-32      0.13368278E-28     -0.82196717E-39      0.17422427E-30     -0.12305728E-40
    0.188307251963         0.35332181E-07      0.92383978E-22     -0.56206403E-32      0.13500585E-28     -0.82137547E-39      0.18096782E-30     -0.12716005E-40
    0.194584160362         0.38242343E-07      0.89138071E-22     -0.53876362E-32      0.13644348E-28     -0.82468447E-39      0.18778318E-30     -0.13127936E-40
    0.200861068761         0.41321305E-07      0.85946080E-22     -0.51529809E-32      0.13770727E-28     -0.82563735E-39      0.19466166E-30     -0.13540342E-40
    0.207137977160         0.44576634E-07      0.83012030E-22     -0.49238660E-32      0.13913651E-28     -0.82528948E-39      0.20161154E-30     -0.13952574E-40
    0.213414885559         0.48016203E-07      0.80196346E-22     -0.47008575E-32      0.14053038E-28     -0.82374489E-39      0.20863104E-30     -0.14364035E-40
    0.219691793957         0.51648196E-07      0.77635787E-22     -0.44689355E-32      0.14215293E-28     -0.81827247E-39      0.21573158E-30     -0.14772763E-40
    0.225968702356         0.55481108E-07      0.75138038E-22     -0.42843343E-32      0.14368427E-28     -0.81928071E-39      0.22290862E-30     -0.15181994E-40
    0.232245610755         0.59523755E-07      0.72608825E-22     -0.41026938E-32      0.14493883E-28     -0.81896331E-39      0.23014832E-30     -0.15591067E-40
    0.238522519154         0.63785271E-07      0.70185771E-22     -0.39394424E-32      0.14618157E-28     -0.82049949E-39      0.23745010E-30     -0.16000906E-40
    0.244799427552         0.68275117E-07      0.68048181E-22     -0.37785872E-32      0.14781589E-28     -0.82079376E-39      0.24483351E-30     -0.16410893E-40
    0.251076335951         0.73003082E-07      0.65946619E-22     -0.36261725E-32      0.14934149E-28     -0.82117631E-39      0.25229312E-30     -0.16821071E-40
    0.257353244350         0.77979284E-07      0.63963407E-22     -0.34723540E-32      0.15095021E-28     -0.81945692E-39      0.25983309E-30     -0.17230390E-40
    0.263630152749         0.83214178E-07      0.62083753E-22     -0.33321422E-32      0.15262748E-28     -0.81917806E-39      0.26745684E-30     -0.17639570E-40
    0.269907061148         0.88718553E-07      0.60307773E-22     -0.31969027E-32      0.15439244E-28     -0.81843117E-39      0.27516875E-30     -0.18048377E-40
    0.276183969546         0.94503538E-07      0.58536584E-22     -0.30663743E-32      0.15600176E-28     -0.81719803E-39      0.28296105E-30     -0.18456568E-40
    0.282460877945         0.10058060E-06      0.56880907E-22     -0.29604348E-32      0.15775204E-28     -0.82103934E-39      0.29084077E-30     -0.18866677E-40
    0.288737786344         0.10696156E-06      0.55260911E-22     -0.28503509E-32      0.15943904E-28     -0.82238458E-39      0.29880476E-30     -0.19277459E-40
    0.295014694743         0.11365856E-06      0.53753654E-22     -0.27367564E-32      0.16129430E-28     -0.82119663E-39      0.30686142E-30     -0.19687647E-40
    0.301291603141         0.12068410E-06      0.52255636E-22     -0.26254327E-32      0.16302293E-28     -0.81906140E-39      0.31500442E-30     -0.20096769E-40
    0.307568511540         0.12805103E-06      0.50860721E-22     -0.25244592E-32      0.16492111E-28     -0.81858181E-39      0.32324224E-30     -0.20505651E-40
    0.313845419939         0.13577253E-06      0.49515546E-22     -0.24333318E-32      0.16683618E-28     -0.81987941E-39      0.33157572E-30     -0.20915181E-40
    0.320122328338         0.14386214E-06      0.48297002E-22     -0.23402206E-32      0.16904536E-28     -0.81910555E-39      0.34001954E-30     -0.21324324E-40
    0.326399236737         0.15233372E-06      0.46998943E-22     -0.22671399E-32      0.17083920E-28     -0.82409592E-39      0.34855297E-30     -0.21735961E-40
    0.332676145135         0.16120149E-06      0.45709625E-22     -0.21800964E-32      0.17250735E-28     -0.82276469E-39      0.35716972E-30     -0.22146932E-40
    0.338953053534         0.17048002E-06      0.44584503E-22     -0.20908118E-32      0.17465072E-28     -0.81903303E-39      0.36589353E-30     -0.22556040E-40
    0.345229961933         0.18018417E-06      0.43498533E-22     -0.20136893E-32      0.17682160E-28     -0.81856499E-39      0.37472578E-30     -0.22964913E-40
    0.351506870332         0.19032920E-06      0.42438117E-22     -0.19445694E-32      0.17897000E-28     -0.82006368E-39      0.38366534E-30     -0.23374535E-40
    0.357783778731         0.20093064E-06      0.41437357E-22     -0.18672445E-32      0.18124670E-28     -0.81673140E-39      0.39271862E-30     -0.23782493E-40
    0.364060687129         0.21200438E-06      0.40465106E-22     -0.18087537E-32      0.18352881E-28     -0.82035726E-39      0.40188589E-30     -0.24192262E-40
    0.370337595528         0.22356662E-06      0.39535056E-22     -0.17482145E-32      0.18588488E-28     -0.82197085E-39      0.41117085E-30     -0.24602837E-40
    0.376614503927         0.23563389E-06      0.38601164E-22     -0.16898523E-32      0.18810210E-28     -0.82345903E-39      0.42056656E-30     -0.25014155E-40
    0.382891412326         0.24822301E-06      0.37718691E-22     -0.16246852E-32      0.19044763E-28     -0.82032923E-39      0.43007943E-30     -0.25423910E-40
    0.389168320724         0.26135112E-06      0.36884855E-22     -0.15692241E-32      0.19292455E-28     -0.82077554E-39      0.43971602E-30     -0.25833888E-40
    0.395445229123         0.27503566E-06      0.36076497E-22     -0.15163007E-32      0.19542475E-28     -0.82137320E-39      0.44947750E-30     -0.26244164E-40
    0.401722137522         0.28929433E-06      0.35302219E-22     -0.14597393E-32      0.19800160E-28     -0.81873245E-39      0.45936769E-30     -0.26653121E-40
    0.407999045921         0.30414516E-06      0.34543882E-22     -0.14159105E-32      0.20056052E-28     -0.82207244E-39      0.46938569E-30     -0.27063747E-40
    0.414275954320         0.31960641E-06      0.33832840E-22     -0.13657827E-32      0.20329034E-28     -0.82065363E-39      0.47954006E-30     -0.27473664E-40
    0.420552862718         0.33569662E-06      0.33136771E-22     -0.13202378E-32      0.20601038E-28     -0.82078815E-39      0.48983029E-30     -0.27883648E-40
    0.426829771117         0.35243458E-06      0.32470257E-22     -0.12795906E-32      0.20881518E-28     -0.82290061E-39      0.50026061E-30     -0.28294687E-40
    0.433106679516         0.36983933E-06      0.31814070E-22     -0.12363312E-32      0.21158749E-28     -0.82225321E-39      0.51082942E-30     -0.28705403E-40
    0.439383587915         0.38793013E-06      0.31197009E-22     -0.11905352E-32      0.21452365E-28     -0.81866168E-39      0.52154489E-30     -0.29114325E-40
    0.445660496313         0.40672647E-06      0.30578244E-22     -0.11528724E-32      0.21735186E-28     -0.81946813E-39      0.53240162E-30     -0.29523650E-40
    0.451937404712         0.42624802E-06      0.29998209E-22     -0.11175714E-32      0.22035958E-28     -0.82094090E-39      0.54340860E-30     -0.29933710E-40
    0.458214313111         0.44651466E-06      0.29277894E-22     -0.10823127E-32      0.22220788E-28     -0.82143345E-39      0.55450789E-30     -0.30344017E-40
    0.464491221510         0.46754647E-06      0.28414959E-22     -0.10482596E-32      0.22276494E-28     -0.82180480E-39      0.56563501E-30     -0.30754508E-40
    0.470768129909         0.48936365E-06      0.28267541E-22     -0.10157691E-32      0.22885754E-28     -0.82237933E-39      0.57706646E-30     -0.31165287E-40
    0.477045038307         0.51198657E-06      0.28129148E-22     -0.98192316E-33      0.23513014E-28     -0.82078465E-39      0.58881122E-30     -0.31575270E-40
    0.483321946706         0.53543573E-06      0.27615461E-22     -0.95015633E-33      0.23827346E-28     -0.81981986E-39      0.60071299E-30     -0.31984770E-40
    0.489598855105         0.55973174E-06      0.27158603E-22     -0.91888948E-33      0.24182406E-28     -0.81819225E-39      0.61279211E-30     -0.32393458E-40
    0.495875763504         0.58489532E-06      0.26688040E-22     -0.89426313E-33      0.24517404E-28     -0.82152944E-39      0.62503857E-30     -0.32803812E-40
    0.502152671902         0.61094726E-06      0.26273202E-22     -0.86817460E-33      0.24896224E-28     -0.82267360E-39      0.63747425E-30     -0.33214738E-40
    0.508429580301         0.63790841E-06      0.25828548E-22     -0.83996254E-33      0.25239459E-28     -0.82080497E-39      0.65008137E-30     -0.33624730E-40
    0.514706488700         0.66579967E-06      0.25384211E-22     -0.81576030E-33      0.25574087E-28     -0.82186225E-39      0.66285564E-30     -0.34035251E-40
    0.520983397099         0.69464194E-06      0.25340834E-22     -0.79032521E-33      0.26315435E-28     -0.82072089E-39      0.67600021E-30     -0.34445201E-40
    0.527260305498         0.72445614E-06      0.25075322E-22     -0.76601897E-33      0.26834041E-28     -0.81974559E-39      0.68940383E-30     -0.34854665E-40
    0.533537213896         0.75526319E-06      0.24641134E-22     -0.74203852E-33      0.27167322E-28     -0.81811167E-39      0.70297392E-30     -0.35263312E-40
    0.539814122295         0.78708392E-06      0.24312028E-22     -0.72223470E-33      0.27608990E-28     -0.82017719E-39      0.71676462E-30     -0.35672991E-40
    0.546091030694         0.81993914E-06      0.23976520E-22     -0.70273412E-33      0.28038532E-28     -0.82178868E-39      0.73076988E-30     -0.36083475E-40
    0.552367939093         0.85384956E-06      0.23753625E-22     -0.68112109E-33      0.28597978E-28     -0.82003005E-39      0.74505459E-30     -0.36493080E-40
    0.558644847491         0.88883579E-06      0.23444539E-22     -0.66324912E-33      0.29052263E-28     -0.82189238E-39      0.75956621E-30     -0.36903616E-40
    0.564921755890         0.92491828E-06      0.23201643E-22     -0.64505055E-33      0.29586005E-28     -0.82254819E-39      0.77434443E-30     -0.37314479E-40
    0.571198664289         0.96211735E-06      0.22932556E-22     -0.62456731E-33      0.30084713E-28     -0.81935603E-39      0.78937176E-30     -0.37723748E-40
    0.577475572688         0.10004531E-05      0.22744969E-22     -0.61015246E-33      0.30690293E-28     -0.82329228E-39      0.80470158E-30     -0.38134983E-40
    0.583752481087         0.10399456E-05      0.22486774E-22     -0.59119654E-33      0.31200502E-28     -0.82028789E-39      0.82028624E-30     -0.38544717E-40
    0.590029389485         0.10806144E-05      0.22332497E-22     -0.57439170E-33      0.31855683E-28     -0.81932800E-39      0.83619817E-30     -0.38953972E-40
    0.596306297884         0.11224790E-05      0.22100234E-22     -0.55814422E-33      0.32400986E-28     -0.81829104E-39      0.85238248E-30     -0.39362708E-40
    0.602583206283         0.11655585E-05      0.21943090E-22     -0.54498126E-33      0.33057302E-28     -0.82101517E-39      0.86889462E-30     -0.39772806E-40
    0.608860114682         0.12098719E-05      0.21741251E-22     -0.52719007E-33      0.33647976E-28     -0.81590883E-39      0.88570180E-30     -0.40180353E-40
    0.615137023081         0.12554376E-05      0.21548369E-22     -0.51540844E-33      0.34252338E-28     -0.81927055E-39      0.90281086E-30     -0.40589579E-40
    0.621413931479         0.13022739E-05      0.21416853E-22     -0.50195566E-33      0.34956628E-28     -0.81929297E-39      0.92027172E-30     -0.40998816E-40
    0.627690839878         0.13503983E-05      0.21018682E-22     -0.49006416E-33      0.35218766E-28     -0.82114829E-39      0.93786351E-30     -0.41408980E-40
    0.633967748277         0.13998285E-05      0.28042574E-22     -0.47957688E-33      0.48225649E-28     -0.82474262E-39      0.96195224E-30     -0.41820939E-40
    0.640244656676         0.14505812E-05      0.29989459E-22     -0.46496558E-33      0.52919683E-28     -0.82048267E-39      0.98838565E-30     -0.42230771E-40
    0.646521565074         0.15026729E-05      0.23609230E-22     -0.45359588E-33      0.42738158E-28     -0.82111326E-39      0.10097334E-29     -0.42640917E-40
    0.652798473473         0.15561195E-05      0.22671528E-22     -0.44117329E-33      0.42091766E-28     -0.81907857E-39      0.10307582E-29     -0.43050047E-40
    0.659075381872         0.16109365E-05      0.22631282E-22     -0.43200327E-33      0.43082910E-28     -0.82239965E-39      0.10522782E-29     -0.43460837E-40
    0.665352290271         0.16671388E-05      0.22584952E-22     -0.42332960E-33      0.44074950E-28     -0.82613551E-39      0.10742936E-29     -0.43873492E-40
    0.671629198670         0.17247407E-05      0.23451902E-22     -0.41141794E-33      0.46905616E-28     -0.82286768E-39      0.10977230E-29     -0.44284514E-40
    0.677906107068         0.17837558E-05      0.23938126E-22     -0.40257028E-33      0.49057853E-28     -0.82501167E-39      0.11222274E-29     -0.44696608E-40
    0.684183015467         0.18441971E-05      0.31192805E-22     -0.39032125E-33      0.65485028E-28     -0.81942609E-39      0.11549372E-29     -0.45105912E-40
    0.690459923866         0.19060772E-05      0.46180058E-22     -0.38280752E-33      0.99290802E-28     -0.82306667E-39      0.12045330E-29     -0.45517034E-40
    0.696736832265         0.19694076E-05      0.56234115E-22     -0.37321391E-33      0.12379960E-27     -0.82163174E-39      0.12663710E-29     -0.45927440E-40
    0.703013740663         0.20341994E-05      0.48834891E-22     -0.36303474E-33      0.11005568E-27     -0.81814531E-39      0.13213439E-29     -0.46336104E-40
    0.709290649062         0.21004628E-05      0.38552159E-22     -0.35673828E-33      0.88918477E-28     -0.82279762E-39      0.13657587E-29     -0.46747091E-40
    0.715567557461         0.21682073E-05      0.42030882E-22     -0.34824200E-33      0.99190756E-28     -0.82183352E-39      0.14153045E-29     -0.47157598E-40
    0.721844465860         0.22374415E-05      0.46060841E-22     -0.34303383E-33      0.11119684E-27     -0.82812816E-39      0.14708474E-29     -0.47571248E-40
    0.728121374259         0.23081733E-05      0.48873151E-22     -0.33176054E-33      0.12066672E-27     -0.81910940E-39      0.15311205E-29     -0.47980394E-40
    0.734398282657         0.23804097E-05      0.45144923E-22     -0.32844714E-33      0.11396763E-27     -0.82915951E-39      0.15880474E-29     -0.48394559E-40
    0.740675191056         0.24541568E-05      0.45499960E-22     -0.32003177E-33      0.11741892E-27     -0.82588608E-39      0.16466982E-29     -0.48807090E-40
    0.746952099455         0.25294198E-05      0.44695733E-22     -0.31189950E-33      0.11788180E-27     -0.82261265E-39      0.17055802E-29     -0.49217985E-40
    0.753229007854         0.26062031E-05      0.47427657E-22     -0.30777926E-33      0.12781017E-27     -0.82941735E-39      0.17694215E-29     -0.49632280E-40
    0.759505916252         0.26845099E-05      0.48584367E-22     -0.29780555E-33      0.13374666E-27     -0.81982126E-39      0.18362280E-29     -0.50041781E-40
    0.765782824651         0.27643427E-05      0.42183783E-22     -0.29335760E-33      0.11859990E-27     -0.82477625E-39      0.18954687E-29     -0.50453757E-40
