 
 # Omega; pulse ft; proj flux t=    500.250000000000     
    0.000000000000         0.23733438E-09      0.00000000E+00      0.00000000E+00      0.64915435E-33      0.75582536E-43      0.32425292E-36      0.37753514E-46
    0.006276908399         0.26847166E-09      0.18742745E-25      0.22693838E-35      0.62436478E-33      0.75598496E-43      0.63612344E-36      0.75515001E-46
    0.012553816798         0.36198451E-09      0.26994171E-25      0.33671384E-35      0.60622902E-33      0.75618438E-43      0.93893514E-36      0.11328645E-45
    0.018830725196         0.51817601E-09      0.27476709E-25      0.35355723E-35      0.58888096E-33      0.75774402E-43      0.12330815E-35      0.15113580E-45
    0.025107633595         0.73755180E-09      0.25814402E-25      0.33059000E-35      0.59061076E-33      0.75636078E-43      0.15280918E-35      0.18891606E-45
    0.031384541994         0.10208207E-08      0.22988558E-25      0.29837787E-35      0.58236861E-33      0.75587996E-43      0.18189853E-35      0.22667230E-45
    0.037661450393         0.13688958E-08      0.21181012E-25      0.26704906E-35      0.59961515E-33      0.75599154E-43      0.21184933E-35      0.26443412E-45
    0.043938358791         0.17828953E-08      0.19208919E-25      0.23953334E-35      0.60706819E-33      0.75700811E-43      0.24217242E-35      0.30224671E-45
    0.050215267190         0.22641447E-08      0.17592903E-25      0.21562624E-35      0.61781501E-33      0.75722084E-43      0.27303231E-35      0.34006993E-45
    0.056492175589         0.28141777E-08      0.16157513E-25      0.19495644E-35      0.62688844E-33      0.75640318E-43      0.30434542E-35      0.37785230E-45
    0.062769083988         0.34347388E-08      0.14829827E-25      0.17815105E-35      0.63202834E-33      0.75925708E-43      0.33591527E-35      0.41577723E-45
    0.069045992387         0.41277855E-08      0.13576934E-25      0.16260481E-35      0.63216856E-33      0.75711973E-43      0.36749212E-35      0.45359540E-45
    0.075322900785         0.48954902E-08      0.12628150E-25      0.14921146E-35      0.63923627E-33      0.75530764E-43      0.39942200E-35      0.49132306E-45
    0.081599809184         0.57402438E-08      0.11790990E-25      0.13794206E-35      0.64601707E-33      0.75577137E-43      0.43169058E-35      0.52907387E-45
    0.087876717583         0.66646579E-08      0.11139620E-25      0.12816836E-35      0.65800158E-33      0.75707236E-43      0.46455780E-35      0.56688968E-45
    0.094153625982         0.76715684E-08      0.10581448E-25      0.11949289E-35      0.67149803E-33      0.75830114E-43      0.49809916E-35      0.60476686E-45
    0.100430534380         0.87640384E-08      0.99771087E-26      0.11141864E-35      0.67810312E-33      0.75726678E-43      0.53197044E-35      0.64259237E-45
    0.106707442779         0.99453622E-08      0.94575105E-26      0.10446301E-35      0.68652327E-33      0.75829986E-43      0.56626231E-35      0.68046949E-45
    0.112984351178         0.11219069E-07      0.89625830E-26      0.97734920E-36      0.69314523E-33      0.75585904E-43      0.60088495E-35      0.71822468E-45
    0.119261259577         0.12588925E-07      0.85130098E-26      0.91864987E-36      0.69988218E-33      0.75525189E-43      0.63584410E-35      0.75594955E-45
    0.125538167976         0.14058942E-07      0.81700525E-26      0.86730665E-36      0.71261382E-33      0.75648804E-43      0.67143920E-35      0.79373617E-45
    0.131815076374         0.15633376E-07      0.78235874E-26      0.81629583E-36      0.72268020E-33      0.75402857E-43      0.70753711E-35      0.83139993E-45
    0.138091984773         0.17316734E-07      0.74361877E-26      0.77301795E-36      0.72627384E-33      0.75498729E-43      0.74381452E-35      0.86911158E-45
    0.144368893172         0.19113780E-07      0.71538559E-26      0.73347666E-36      0.73767607E-33      0.75633083E-43      0.78066148E-35      0.90689035E-45
    0.150645801571         0.21029537E-07      0.68901273E-26      0.69594523E-36      0.74912186E-33      0.75665915E-43      0.81808016E-35      0.94468551E-45
    0.156922709970         0.23069292E-07      0.66318743E-26      0.65946155E-36      0.75934178E-33      0.75507570E-43      0.85600932E-35      0.98240158E-45
    0.163199618368         0.25238602E-07      0.63802435E-26      0.62583290E-36      0.76848598E-33      0.75380165E-43      0.89439523E-35      0.10200540E-44
    0.169476526767         0.27543295E-07      0.61049076E-26      0.59807329E-36      0.77274816E-33      0.75703035E-43      0.93299404E-35      0.10578677E-44
    0.175753435166         0.29989481E-07      0.58760346E-26      0.56520541E-36      0.78091186E-33      0.75114535E-43      0.97200062E-35      0.10953875E-44
    0.182030343565         0.32583550E-07      0.56786032E-26      0.53794756E-36      0.79167819E-33      0.74997553E-43      0.10115450E-34      0.11328488E-44
    0.188307251963         0.35332181E-07      0.54935077E-26      0.51333453E-36      0.80279688E-33      0.75016434E-43      0.10516447E-34      0.11703195E-44
    0.194584160362         0.38242343E-07      0.53304564E-26      0.49108709E-36      0.81593197E-33      0.75170609E-43      0.10924006E-34      0.12078673E-44
    0.200861068761         0.41321305E-07      0.51900513E-26      0.46988584E-36      0.83157696E-33      0.75287548E-43      0.11339379E-34      0.12454734E-44
    0.207137977160         0.44576634E-07      0.50127149E-26      0.44992241E-36      0.84018143E-33      0.75411522E-43      0.11759050E-34      0.12831415E-44
    0.213414885559         0.48016203E-07      0.49065941E-26      0.42867746E-36      0.85979670E-33      0.75118394E-43      0.12188519E-34      0.13206632E-44
    0.219691793957         0.51648196E-07      0.44876355E-26      0.41351918E-36      0.82169649E-33      0.75716324E-43      0.12598957E-34      0.13584836E-44
    0.225968702356         0.55481108E-07      0.37313619E-26      0.39624875E-36      0.71353741E-33      0.75773489E-43      0.12955369E-34      0.13963325E-44
    0.232245610755         0.59523755E-07      0.40095653E-26      0.37995099E-36      0.80037338E-33      0.75844296E-43      0.13355156E-34      0.14342167E-44
    0.238522519154         0.63785271E-07      0.43723869E-26      0.36309580E-36      0.91067233E-33      0.75624894E-43      0.13810037E-34      0.14719914E-44
    0.244799427552         0.68275117E-07      0.42238797E-26      0.34823321E-36      0.91752127E-33      0.75644052E-43      0.14268339E-34      0.15097756E-44
    0.251076335951         0.73003082E-07      0.40992297E-26      0.33395079E-36      0.92830398E-33      0.75625877E-43      0.14732028E-34      0.15475508E-44
    0.257353244350         0.77979284E-07      0.39801367E-26      0.32095723E-36      0.93929093E-33      0.75744185E-43      0.15201204E-34      0.15853851E-44
    0.263630152749         0.83214178E-07      0.39017984E-26      0.30741185E-36      0.95922307E-33      0.75574518E-43      0.15680336E-34      0.16231346E-44
    0.269907061148         0.88718553E-07      0.38201232E-26      0.29517513E-36      0.97798030E-33      0.75567055E-43      0.16168838E-34      0.16608803E-44
    0.276183969546         0.94503538E-07      0.37119140E-26      0.28394914E-36      0.98923630E-33      0.75673303E-43      0.16662962E-34      0.16986792E-44
    0.282460877945         0.10058060E-06      0.36169246E-26      0.27196181E-36      0.10031085E-32      0.75425185E-43      0.17164015E-34      0.17363541E-44
    0.288737786344         0.10696156E-06      0.35370701E-26      0.26133705E-36      0.10205171E-32      0.75401087E-43      0.17673764E-34      0.17740170E-44
    0.295014694743         0.11365856E-06      0.34636435E-26      0.25124026E-36      0.10393078E-32      0.75387659E-43      0.18192899E-34      0.18116732E-44
    0.301291603141         0.12068410E-06      0.33943836E-26      0.24243586E-36      0.10589525E-32      0.75633190E-43      0.18721846E-34      0.18494520E-44
    0.307568511540         0.12805103E-06      0.33359444E-26      0.23343970E-36      0.10817142E-32      0.75695220E-43      0.19262163E-34      0.18872618E-44
    0.313845419939         0.13577253E-06      0.32567087E-26      0.22461453E-36      0.10973055E-32      0.75680936E-43      0.19810268E-34      0.19250644E-44
    0.320122328338         0.14386214E-06      0.31815899E-26      0.21600500E-36      0.11135950E-32      0.75604367E-43      0.20366509E-34      0.19628289E-44
    0.326399236737         0.15233372E-06      0.31159142E-26      0.20697238E-36      0.11326219E-32      0.75233601E-43      0.20932254E-34      0.20004081E-44
    0.332676145135         0.16120149E-06      0.30636918E-26      0.19991016E-36      0.11562321E-32      0.75445755E-43      0.21509793E-34      0.20380933E-44
    0.338953053534         0.17048002E-06      0.30091283E-26      0.19214414E-36      0.11787648E-32      0.75268561E-43      0.22098586E-34      0.20756900E-44
    0.345229961933         0.18018417E-06      0.29602622E-26      0.18590548E-36      0.12033470E-32      0.75570605E-43      0.22699659E-34      0.21134375E-44
    0.351506870332         0.19032920E-06      0.28956756E-26      0.17916242E-36      0.12211641E-32      0.75556364E-43      0.23309631E-34      0.21511780E-44
    0.357783778731         0.20093064E-06      0.28462541E-26      0.17273202E-36      0.12449495E-32      0.75552858E-43      0.23931484E-34      0.21889167E-44
    0.364060687129         0.21200438E-06      0.28065174E-26      0.16660528E-36      0.12728913E-32      0.75563549E-43      0.24567293E-34      0.22266607E-44
    0.370337595528         0.22356662E-06      0.27651261E-26      0.16064956E-36      0.13000997E-32      0.75533785E-43      0.25216694E-34      0.22643898E-44
    0.376614503927         0.23563389E-06      0.27177790E-26      0.15527524E-36      0.13243640E-32      0.75665071E-43      0.25878214E-34      0.23021846E-44
    0.382891412326         0.24822301E-06      0.26735322E-26      0.14956326E-36      0.13499086E-32      0.75516850E-43      0.26552494E-34      0.23399053E-44
    0.389168320724         0.26135112E-06      0.26504987E-26      0.14499896E-36      0.13863313E-32      0.75841046E-43      0.27244968E-34      0.23777879E-44
    0.395445229123         0.27503566E-06      0.26058286E-26      0.13980525E-36      0.14115655E-32      0.75731869E-43      0.27950045E-34      0.24156160E-44
    0.401722137522         0.28929433E-06      0.25755921E-26      0.13521416E-36      0.14445873E-32      0.75838352E-43      0.28671617E-34      0.24534973E-44
    0.407999045921         0.30414516E-06      0.25466959E-26      0.13003363E-36      0.14786023E-32      0.75497050E-43      0.29410180E-34      0.24912081E-44
    0.414275954320         0.31960641E-06      0.25177957E-26      0.12564766E-36      0.15128602E-32      0.75497521E-43      0.30165854E-34      0.25289192E-44
    0.420552862718         0.33569662E-06      0.24972955E-26      0.12183136E-36      0.15525616E-32      0.75742218E-43      0.30941360E-34      0.25667525E-44
    0.426829771117         0.35243458E-06      0.24739869E-26      0.11761387E-36      0.15910131E-32      0.75637103E-43      0.31736072E-34      0.26045332E-44
    0.433106679516         0.36983933E-06      0.24545039E-26      0.11381015E-36      0.16324297E-32      0.75692312E-43      0.32551471E-34      0.26423416E-44
    0.439383587915         0.38793013E-06      0.24365219E-26      0.10977534E-36      0.16754542E-32      0.75486103E-43      0.33388361E-34      0.26800469E-44
    0.445660496313         0.40672647E-06      0.24144428E-26      0.10613515E-36      0.17161995E-32      0.75441457E-43      0.34245604E-34      0.27177300E-44
    0.451937404712         0.42624802E-06      0.23978001E-26      0.10309984E-36      0.17613659E-32      0.75734648E-43      0.35125407E-34      0.27555595E-44
    0.458214313111         0.44651466E-06      0.23918373E-26      0.99219779E-37      0.18153119E-32      0.75303970E-43      0.36032156E-34      0.27931738E-44
    0.464491221510         0.46754647E-06      0.23736122E-26      0.96315972E-37      0.18608423E-32      0.75508896E-43      0.36961648E-34      0.28308906E-44
    0.470768129909         0.48936365E-06      0.23581873E-26      0.93299180E-37      0.19092178E-32      0.75536179E-43      0.37915303E-34      0.28686209E-44
    0.477045038307         0.51198657E-06      0.23419525E-26      0.90481356E-37      0.19576263E-32      0.75632912E-43      0.38893138E-34      0.29063996E-44
    0.483321946706         0.53543573E-06      0.23400227E-26      0.87476168E-37      0.20190331E-32      0.75476737E-43      0.39901646E-34      0.29441003E-44
    0.489598855105         0.55973174E-06      0.23416096E-26      0.84727162E-37      0.20850025E-32      0.75442269E-43      0.40943106E-34      0.29817837E-44
    0.495875763504         0.58489532E-06      0.23507153E-26      0.82212285E-37      0.21595230E-32      0.75525659E-43      0.42021789E-34      0.30195088E-44
    0.502152671902         0.61094726E-06      0.23448213E-26      0.79645029E-37      0.22219293E-32      0.75470836E-43      0.43131644E-34      0.30572066E-44
    0.508429580301         0.63790841E-06      0.23556746E-26      0.77148212E-37      0.23019472E-32      0.75388643E-43      0.44281467E-34      0.30948632E-44
    0.514706488700         0.66579967E-06      0.23523176E-26      0.74941740E-37      0.23699131E-32      0.75502310E-43      0.45465240E-34      0.31325767E-44
    0.520983397099         0.69464194E-06      0.23682185E-26      0.72687113E-37      0.24592995E-32      0.75482639E-43      0.46693662E-34      0.31702803E-44
    0.527260305498         0.72445614E-06      0.23616604E-26      0.70460654E-37      0.25273012E-32      0.75402584E-43      0.47956050E-34      0.32079439E-44
    0.533537213896         0.75526319E-06      0.23879446E-26      0.68391644E-37      0.26327547E-32      0.75403097E-43      0.49271112E-34      0.32456078E-44
    0.539814122295         0.78708392E-06      0.23963650E-26      0.66307912E-37      0.27213369E-32      0.75299950E-43      0.50630421E-34      0.32832202E-44
    0.546091030694         0.81993914E-06      0.24485424E-26      0.64482701E-37      0.28633653E-32      0.75407117E-43      0.52060674E-34      0.33208860E-44
    0.552367939093         0.85384956E-06      0.24151151E-26      0.62504025E-37      0.29076576E-32      0.75251199E-43      0.53513050E-34      0.33584741E-44
    0.558644847491         0.88883579E-06      0.24834109E-26      0.60765960E-37      0.30774206E-32      0.75300634E-43      0.55050223E-34      0.33960868E-44
    0.564921755890         0.92491828E-06      0.24339519E-26      0.59030453E-37      0.31036989E-32      0.75273778E-43      0.56600522E-34      0.34336861E-44
    0.571198664289         0.96211735E-06      0.25162850E-26      0.57309410E-37      0.33010586E-32      0.75182947E-43      0.58249403E-34      0.34712400E-44
    0.577475572688         0.10004531E-05      0.24345495E-26      0.55772036E-37      0.32849917E-32      0.75254449E-43      0.59890258E-34      0.35088296E-44
    0.583752481087         0.10399456E-05      0.25448578E-26      0.54256001E-37      0.35310019E-32      0.75280449E-43      0.61653995E-34      0.35464322E-44
    0.590029389485         0.10806144E-05      0.23677426E-26      0.52868942E-37      0.33774127E-32      0.75413703E-43      0.63341014E-34      0.35841014E-44
    0.596306297884         0.11224790E-05      0.25214186E-26      0.51369500E-37      0.36966328E-32      0.75312437E-43      0.65187484E-34      0.36217200E-44
    0.602583206283         0.11655585E-05      0.20756651E-26      0.50020334E-37      0.31269929E-32      0.75355714E-43      0.66749419E-34      0.36593602E-44
    0.608860114682         0.12098719E-05      0.23114929E-26      0.48703709E-37      0.35773956E-32      0.75376583E-43      0.68536330E-34      0.36970109E-44
    0.615137023081         0.12554376E-05      0.97210234E-27      0.47589390E-37      0.15452111E-32      0.75645998E-43      0.69308163E-34      0.37347961E-44
    0.621413931479         0.13022739E-05      0.13052950E-26      0.46343361E-37      0.21305049E-32      0.75641722E-43      0.70372352E-34      0.37725792E-44
    0.627690839878         0.13503983E-05     -0.60152391E-26      0.45258602E-37     -0.10079095E-31      0.75835016E-43      0.65337839E-34      0.38104588E-44
    0.633967748277         0.13998285E-05     -0.19614772E-25      0.45149419E-37     -0.33732106E-31      0.77644798E-43      0.48488635E-34      0.38492424E-44
    0.640244656676         0.14505812E-05      0.30281194E-26      0.42716118E-37      0.53434482E-32      0.75377268E-43      0.51157690E-34      0.38868934E-44
    0.646521565074         0.15026729E-05      0.16694233E-25      0.41301676E-37      0.30220417E-31      0.74765568E-43      0.66252803E-34      0.39242388E-44
    0.652798473473         0.15561195E-05      0.11956021E-25      0.40027102E-37      0.22197447E-31      0.74313978E-43      0.77340439E-34      0.39613587E-44
    0.659075381872         0.16109365E-05      0.13649175E-25      0.38977173E-37      0.25983777E-31      0.74200396E-43      0.90319349E-34      0.39984218E-44
    0.665352290271         0.16671388E-05      0.14408010E-25      0.37606052E-37      0.28117496E-31      0.73388902E-43      0.10436405E-33      0.40350796E-44
    0.671629198670         0.17247407E-05      0.19028152E-25      0.37812386E-37      0.38057774E-31      0.75627695E-43      0.12337393E-33      0.40728557E-44
    0.677906107068         0.17837558E-05      0.23044333E-25      0.35918141E-37      0.47226148E-31      0.73609223E-43      0.14696341E-33      0.41096235E-44
    0.684183015467         0.18441971E-05      0.47769769E-25      0.35142167E-37      0.10028610E-30      0.73776175E-43      0.19705637E-33      0.41464748E-44
    0.690459923866         0.19060772E-05      0.11038884E-24      0.35896760E-37      0.23734480E-30      0.77180892E-43      0.31561022E-33      0.41850267E-44
    0.696736832265         0.19694076E-05      0.18575024E-24      0.28991444E-37      0.40892980E-30      0.63824766E-43      0.51987086E-33      0.42169072E-44
    0.703013740663         0.20341994E-05      0.19796090E-24      0.32236271E-37      0.44613026E-30      0.72648567E-43      0.74271314E-33      0.42531952E-44
    0.709290649062         0.21004628E-05      0.21256335E-24      0.23685247E-37      0.49026590E-30      0.54628745E-43      0.98760121E-33      0.42804823E-44
    0.715567557461         0.21682073E-05      0.31567055E-24      0.25235788E-37      0.74496653E-30      0.59555185E-43      0.13597124E-32      0.43102301E-44
    0.721844465860         0.22374415E-05      0.43435249E-24      0.60585198E-38      0.10485833E-29      0.14626053E-43      0.18834802E-32      0.43175358E-44
    0.728121374259         0.23081733E-05      0.44859065E-24      0.13745647E-37      0.11075603E-29      0.33937697E-43      0.24367072E-32      0.43344877E-44
    0.734398282657         0.23804097E-05      0.41241838E-24     -0.58977585E-39      0.10411436E-29     -0.14888796E-44      0.29567589E-32      0.43337440E-44
    0.740675191056         0.24541568E-05      0.40666595E-24      0.77547860E-38      0.10494575E-29      0.20012294E-43      0.34809634E-32      0.43437402E-44
    0.746952099455         0.25294198E-05      0.40357072E-24      0.15740129E-37      0.10643890E-29      0.41513467E-43      0.40126263E-32      0.43644762E-44
    0.753229007854         0.26062031E-05      0.43070536E-24     -0.12674812E-38      0.11606841E-29     -0.34156650E-44      0.45923885E-32      0.43627700E-44
    0.759505916252         0.26845099E-05      0.44090391E-24      0.31750810E-37      0.12137531E-29      0.87405992E-43      0.51986588E-32      0.44064294E-44
    0.765782824651         0.27643427E-05      0.37399460E-24      0.16899412E-37      0.10514876E-29      0.47512776E-43      0.57238774E-32      0.44301620E-44
