 
 # Omega; pulse ft; proj flux t=    500.250000000000     
    0.000000000000         0.23733438E-09      0.00000000E+00      0.00000000E+00      0.64767012E-08     -0.60351097E-19      0.32351155E-11     -0.30145403E-22
    0.006276908399         0.26847166E-09      0.17908929E+00     -0.18052970E-11      0.59658842E-08     -0.60138677E-19      0.62150776E-11     -0.60184702E-22
    0.012553816798         0.36198451E-09      0.24093227E+00     -0.26620302E-11      0.54108027E-08     -0.59783277E-19      0.89177763E-11     -0.90046479E-22
    0.018830725196         0.51817601E-09      0.24806226E+00     -0.27610683E-11      0.53164715E-08     -0.59175228E-19      0.11573357E-10     -0.11960454E-21
    0.025107633595         0.73755180E-09      0.23381557E+00     -0.26227723E-11      0.53494940E-08     -0.60006719E-19      0.14245431E-10     -0.14957792E-21
    0.031384541994         0.10208207E-08      0.21262345E+00     -0.23810694E-11      0.53863850E-08     -0.60319574E-19      0.16935933E-10     -0.17970758E-21
    0.037661450393         0.13688958E-08      0.19239659E+00     -0.21337331E-11      0.54465720E-08     -0.60404037E-19      0.19656499E-10     -0.20987943E-21
    0.043938358791         0.17828953E-08      0.17416061E+00     -0.19132701E-11      0.55040769E-08     -0.60465946E-19      0.22405788E-10     -0.24008220E-21
    0.050215267190         0.22641447E-08      0.15869112E+00     -0.17043745E-11      0.55728015E-08     -0.59853006E-19      0.25189405E-10     -0.26997880E-21
    0.056492175589         0.28141777E-08      0.14539630E+00     -0.15415786E-11      0.56411691E-08     -0.59811052E-19      0.28007172E-10     -0.29985445E-21
    0.062769083988         0.34347388E-08      0.13402659E+00     -0.13963985E-11      0.57120428E-08     -0.59512724E-19      0.30860340E-10     -0.32958109E-21
    0.069045992387         0.41277855E-08      0.12425240E+00     -0.12772080E-11      0.57854343E-08     -0.59469297E-19      0.33750167E-10     -0.35928603E-21
    0.075322900785         0.48954902E-08      0.11572450E+00     -0.11940569E-11      0.58579681E-08     -0.60443095E-19      0.36676225E-10     -0.38947739E-21
    0.081599809184         0.57402438E-08      0.10830495E+00     -0.10934017E-11      0.59339248E-08     -0.59906436E-19      0.39640224E-10     -0.41940068E-21
    0.087876717583         0.66646579E-08      0.10176702E+00     -0.10183723E-11      0.60112341E-08     -0.60153815E-19      0.42642838E-10     -0.44944754E-21
    0.094153625982         0.76715684E-08      0.96002617E-01     -0.96441877E-12      0.60923202E-08     -0.61201956E-19      0.45685955E-10     -0.48001795E-21
    0.100430534380         0.87640384E-08      0.90817244E-01     -0.88312524E-12      0.61724752E-08     -0.60022397E-19      0.48769110E-10     -0.50999917E-21
    0.106707442779         0.99453622E-08      0.86198224E-01     -0.82144643E-12      0.62571526E-08     -0.59629021E-19      0.51894561E-10     -0.53978389E-21
    0.112984351178         0.11219069E-07      0.81994232E-01     -0.77492033E-12      0.63412423E-08     -0.59930528E-19      0.55062014E-10     -0.56971922E-21
    0.119261259577         0.12588925E-07      0.78213944E-01     -0.74308555E-12      0.64302223E-08     -0.61091476E-19      0.58273914E-10     -0.60023444E-21
    0.125538167976         0.14058942E-07      0.74730974E-01     -0.70113962E-12      0.65182353E-08     -0.61155272E-19      0.61529775E-10     -0.63078153E-21
    0.131815076374         0.15633376E-07      0.71583115E-01     -0.64675498E-12      0.66122736E-08     -0.59742034E-19      0.64832609E-10     -0.66062271E-21
    0.138091984773         0.17316734E-07      0.68595089E-01     -0.63524655E-12      0.66995107E-08     -0.62042940E-19      0.68179018E-10     -0.69161319E-21
    0.144368893172         0.19113780E-07      0.65853575E-01     -0.57658792E-12      0.67905486E-08     -0.59455364E-19      0.71570901E-10     -0.72131117E-21
    0.150645801571         0.21029537E-07      0.63396774E-01     -0.55173898E-12      0.68927478E-08     -0.59987241E-19      0.75013832E-10     -0.75127483E-21
    0.156922709970         0.23069292E-07      0.61109259E-01     -0.52668920E-12      0.69969381E-08     -0.60305292E-19      0.78508806E-10     -0.78139735E-21
    0.163199618368         0.25238602E-07      0.58942501E-01     -0.51100217E-12      0.70994916E-08     -0.61549062E-19      0.82055005E-10     -0.81214114E-21
    0.169476526767         0.27543295E-07      0.56930473E-01     -0.46936048E-12      0.72061563E-08     -0.59410800E-19      0.85654484E-10     -0.84181687E-21
    0.175753435166         0.29989481E-07      0.55042409E-01     -0.45997758E-12      0.73150131E-08     -0.61129991E-19      0.89308337E-10     -0.87235133E-21
    0.182030343565         0.32583550E-07      0.53267165E-01     -0.43699554E-12      0.74262016E-08     -0.60923403E-19      0.93017728E-10     -0.90278260E-21
    0.188307251963         0.35332181E-07      0.51660220E-01     -0.42595234E-12      0.75493957E-08     -0.62246789E-19      0.96788655E-10     -0.93387490E-21
    0.194584160362         0.38242343E-07      0.50169235E-01     -0.40290857E-12      0.76793954E-08     -0.61673139E-19      0.10062452E-09     -0.96468066E-21
    0.200861068761         0.41321305E-07      0.48605087E-01     -0.37928619E-12      0.77877593E-08     -0.60771202E-19      0.10451451E-09     -0.99503591E-21
    0.207137977160         0.44576634E-07      0.47163235E-01     -0.36649712E-12      0.79050325E-08     -0.61428604E-19      0.10846307E-09     -0.10257195E-20
    0.213414885559         0.48016203E-07      0.45843009E-01     -0.34922702E-12      0.80332034E-08     -0.61196062E-19      0.11247566E-09     -0.10562870E-20
    0.219691793957         0.51648196E-07      0.44586358E-01     -0.32814902E-12      0.81638658E-08     -0.60084849E-19      0.11655352E-09     -0.10862994E-20
    0.225968702356         0.55481108E-07      0.43400580E-01     -0.30469796E-12      0.82993659E-08     -0.58266499E-19      0.12069906E-09     -0.11154035E-20
    0.232245610755         0.59523755E-07      0.42272999E-01     -0.29905093E-12      0.84383668E-08     -0.59695350E-19      0.12491402E-09     -0.11452214E-20
    0.238522519154         0.63785271E-07      0.41202465E-01     -0.28418809E-12      0.85815702E-08     -0.59190150E-19      0.12920052E-09     -0.11747869E-20
    0.244799427552         0.68275117E-07      0.40181664E-01     -0.27158962E-12      0.87283573E-08     -0.58995348E-19      0.13356034E-09     -0.12042551E-20
    0.251076335951         0.73003082E-07      0.39218970E-01     -0.26918473E-12      0.88814554E-08     -0.60959075E-19      0.13799663E-09     -0.12347042E-20
    0.257353244350         0.77979284E-07      0.38302927E-01     -0.25245267E-12      0.90392853E-08     -0.59577477E-19      0.14251176E-09     -0.12644632E-20
    0.263630152749         0.83214178E-07      0.37437591E-01     -0.24231011E-12      0.92037048E-08     -0.59569825E-19      0.14710902E-09     -0.12942183E-20
    0.269907061148         0.88718553E-07      0.36610335E-01     -0.23615877E-12      0.93725214E-08     -0.60458424E-19      0.15179059E-09     -0.13244174E-20
    0.276183969546         0.94503538E-07      0.35827989E-01     -0.22966262E-12      0.95482672E-08     -0.61205782E-19      0.15655996E-09     -0.13549897E-20
    0.282460877945         0.10058060E-06      0.35087196E-01     -0.21818531E-12      0.97309923E-08     -0.60510950E-19      0.16142059E-09     -0.13852149E-20
    0.288737786344         0.10696156E-06      0.34382648E-01     -0.20834585E-12      0.99200978E-08     -0.60112042E-19      0.16637569E-09     -0.14152409E-20
    0.295014694743         0.11365856E-06      0.33732634E-01     -0.19768908E-12      0.10121882E-07     -0.59318983E-19      0.17143157E-09     -0.14448708E-20
    0.301291603141         0.12068410E-06      0.33107837E-01     -0.19342056E-12      0.10328717E-07     -0.60341792E-19      0.17659077E-09     -0.14750115E-20
    0.307568511540         0.12805103E-06      0.32587196E-01     -0.18642925E-12      0.10566733E-07     -0.60451600E-19      0.18186886E-09     -0.15052071E-20
    0.313845419939         0.13577253E-06      0.32150410E-01     -0.17667968E-12      0.10832661E-07     -0.59529914E-19      0.18727978E-09     -0.15349424E-20
    0.320122328338         0.14386214E-06      0.32706370E-01     -0.17034722E-12      0.11447626E-07     -0.59623592E-19      0.19299788E-09     -0.15647244E-20
    0.326399236737         0.15233372E-06      0.31834348E-01     -0.16582828E-12      0.11571653E-07     -0.60277892E-19      0.19877792E-09     -0.15948332E-20
    0.332676145135         0.16120149E-06      0.29770564E-01     -0.15739352E-12      0.11235360E-07     -0.59400047E-19      0.20438999E-09     -0.16245036E-20
    0.338953053534         0.17048002E-06      0.29306195E-01     -0.15633311E-12      0.11480106E-07     -0.61240317E-19      0.21012431E-09     -0.16550931E-20
    0.345229961933         0.18018417E-06      0.28961498E-01     -0.14860859E-12      0.11772853E-07     -0.60409414E-19      0.21600486E-09     -0.16852677E-20
    0.351506870332         0.19032920E-06      0.28556343E-01     -0.14436532E-12      0.12042779E-07     -0.60881734E-19      0.22202023E-09     -0.17156781E-20
    0.357783778731         0.20093064E-06      0.28186700E-01     -0.13633468E-12      0.12328842E-07     -0.59632691E-19      0.22817849E-09     -0.17454647E-20
    0.364060687129         0.21200438E-06      0.27820387E-01     -0.13366708E-12      0.12617890E-07     -0.60624481E-19      0.23448113E-09     -0.17757466E-20
    0.370337595528         0.22356662E-06      0.27484070E-01     -0.12867131E-12      0.12922387E-07     -0.60498336E-19      0.24093587E-09     -0.18059656E-20
    0.376614503927         0.23563389E-06      0.27146610E-01     -0.12197566E-12      0.13228446E-07     -0.59438304E-19      0.24754349E-09     -0.18356551E-20
    0.382891412326         0.24822301E-06      0.26841670E-01     -0.11982686E-12      0.13552783E-07     -0.60502472E-19      0.25431311E-09     -0.18658761E-20
    0.389168320724         0.26135112E-06      0.26551134E-01     -0.11585216E-12      0.13887450E-07     -0.60595943E-19      0.26124990E-09     -0.18961438E-20
    0.395445229123         0.27503566E-06      0.26293196E-01     -0.11225517E-12      0.14242905E-07     -0.60808115E-19      0.26836424E-09     -0.19265175E-20
    0.401722137522         0.28929433E-06      0.26040768E-01     -0.10696442E-12      0.14605637E-07     -0.59993755E-19      0.27565976E-09     -0.19564844E-20
    0.407999045921         0.30414516E-06      0.25828578E-01     -0.10356705E-12      0.14995978E-07     -0.60130654E-19      0.28315026E-09     -0.19865197E-20
    0.414275954320         0.31960641E-06      0.25617867E-01     -0.10082206E-12      0.15392929E-07     -0.60580640E-19      0.29083903E-09     -0.20167797E-20
    0.420552862718         0.33569662E-06      0.25459376E-01     -0.95386315E-13      0.15828023E-07     -0.59301405E-19      0.29874514E-09     -0.20464008E-20
    0.426829771117         0.35243458E-06      0.25291384E-01     -0.93382093E-13      0.16264808E-07     -0.60053726E-19      0.30686942E-09     -0.20763977E-20
    0.433106679516         0.36983933E-06      0.25201448E-01     -0.89978990E-13      0.16760858E-07     -0.59842795E-19      0.31524148E-09     -0.21062892E-20
    0.439383587915         0.38793013E-06      0.25082812E-01     -0.89242512E-13      0.17247988E-07     -0.61366875E-19      0.32385685E-09     -0.21369420E-20
    0.445660496313         0.40672647E-06      0.25114484E-01     -0.86002601E-13      0.17851515E-07     -0.61131129E-19      0.33277370E-09     -0.21674770E-20
    0.451937404712         0.42624802E-06      0.25068348E-01     -0.83239902E-13      0.18414602E-07     -0.61146018E-19      0.34197180E-09     -0.21980195E-20
    0.458214313111         0.44651466E-06      0.25624823E-01     -0.80604635E-13      0.19448248E-07     -0.61175797E-19      0.35168621E-09     -0.22285768E-20
    0.464491221510         0.46754647E-06      0.24777060E-01     -0.75239324E-13      0.19424488E-07     -0.58985422E-19      0.36138875E-09     -0.22580400E-20
    0.470768129909         0.48936365E-06      0.23045085E-01     -0.74369503E-13      0.18657588E-07     -0.60210477E-19      0.37070822E-09     -0.22881152E-20
    0.477045038307         0.51198657E-06      0.23527072E-01     -0.72663488E-13      0.19666161E-07     -0.60739045E-19      0.38053148E-09     -0.23184544E-20
    0.483321946706         0.53543573E-06      0.24069895E-01     -0.70209465E-13      0.20768138E-07     -0.60578572E-19      0.39090518E-09     -0.23487134E-20
    0.489598855105         0.55973174E-06      0.24173030E-01     -0.68031361E-13      0.21524009E-07     -0.60576091E-19      0.40165643E-09     -0.23789712E-20
    0.495875763504         0.58489532E-06      0.24412803E-01     -0.65380006E-13      0.22427221E-07     -0.60062411E-19      0.41285884E-09     -0.24089724E-20
    0.502152671902         0.61094726E-06      0.24528451E-01     -0.64660610E-13      0.23242916E-07     -0.61271750E-19      0.42446869E-09     -0.24395777E-20
    0.508429580301         0.63790841E-06      0.24856001E-01     -0.60456947E-13      0.24289095E-07     -0.59078067E-19      0.43660110E-09     -0.24690872E-20
    0.514706488700         0.66579967E-06      0.25289639E-01     -0.59781504E-13      0.25478808E-07     -0.60228675E-19      0.44932778E-09     -0.24991715E-20
    0.520983397099         0.69464194E-06      0.25463067E-01     -0.59055897E-13      0.26442370E-07     -0.61327171E-19      0.46253576E-09     -0.25298044E-20
    0.527260305498         0.72445614E-06      0.25196361E-01     -0.57718969E-13      0.26963569E-07     -0.61767231E-19      0.47600407E-09     -0.25606572E-20
    0.533537213896         0.75526319E-06      0.25668490E-01     -0.54793293E-13      0.28300002E-07     -0.60410654E-19      0.49013994E-09     -0.25908323E-20
    0.539814122295         0.78708392E-06      0.26131430E-01     -0.54800581E-13      0.29675122E-07     -0.62232106E-19      0.50496267E-09     -0.26219173E-20
    0.546091030694         0.81993914E-06      0.26633607E-01     -0.52313815E-13      0.31145772E-07     -0.61176624E-19      0.52052000E-09     -0.26524750E-20
    0.552367939093         0.85384956E-06      0.26709763E-01     -0.50107314E-13      0.32156996E-07     -0.60326282E-19      0.53658244E-09     -0.26826081E-20
    0.558644847491         0.88883579E-06      0.27471449E-01     -0.49091841E-13      0.34042374E-07     -0.60834171E-19      0.55358662E-09     -0.27129948E-20
    0.564921755890         0.92491828E-06      0.27771036E-01     -0.48703145E-13      0.35412752E-07     -0.62104720E-19      0.57127531E-09     -0.27440161E-20
    0.571198664289         0.96211735E-06      0.28603493E-01     -0.47318884E-13      0.37524289E-07     -0.62076596E-19      0.59001871E-09     -0.27750234E-20
    0.577475572688         0.10004531E-05      0.28806963E-01     -0.46531744E-13      0.38869875E-07     -0.62786317E-19      0.60943423E-09     -0.28063852E-20
    0.583752481087         0.10399456E-05      0.30064242E-01     -0.44335543E-13      0.41714272E-07     -0.61515768E-19      0.63027053E-09     -0.28371123E-20
    0.590029389485         0.10806144E-05      0.30026662E-01     -0.42395094E-13      0.42830851E-07     -0.60473520E-19      0.65166456E-09     -0.28673189E-20
    0.596306297884         0.11224790E-05      0.31676252E-01     -0.41665608E-13      0.46440315E-07     -0.61085634E-19      0.67486152E-09     -0.28978312E-20
    0.602583206283         0.11655585E-05      0.30967000E-01     -0.40415128E-13      0.46651836E-07     -0.60885456E-19      0.69816414E-09     -0.29282435E-20
    0.608860114682         0.12098719E-05      0.33277901E-01     -0.40107938E-13      0.51502740E-07     -0.62073288E-19      0.72388978E-09     -0.29592491E-20
    0.615137023081         0.12554376E-05      0.29796464E-01     -0.37562409E-13      0.47363146E-07     -0.59707551E-19      0.74754770E-09     -0.29890731E-20
    0.621413931479         0.13022739E-05      0.33936952E-01     -0.37113112E-13      0.55391957E-07     -0.60576091E-19      0.77521601E-09     -0.30193309E-20
    0.627690839878         0.13503983E-05      0.13485560E-01     -0.36307527E-13      0.22596316E-07     -0.60836653E-19      0.78650288E-09     -0.30497188E-20
    0.633967748277         0.13998285E-05      0.29704019E-01     -0.36059199E-13      0.51082884E-07     -0.62012076E-19      0.81201881E-09     -0.30806939E-20
    0.640244656676         0.14505812E-05      0.13181082E+00     -0.38865936E-13      0.23259462E-06     -0.68583199E-19      0.92819994E-09     -0.31149512E-20
    0.646521565074         0.15026729E-05      0.13306632E+00     -0.35897802E-13      0.24088075E-06     -0.64983309E-19      0.10485200E-08     -0.31474104E-20
    0.652798473473         0.15561195E-05      0.10832603E+00     -0.38572830E-13      0.20111718E-06     -0.71613989E-19      0.11489781E-08     -0.31831816E-20
    0.659075381872         0.16109365E-05      0.12848844E+00     -0.35748393E-13      0.24460197E-06     -0.68053803E-19      0.12711569E-08     -0.32171746E-20
    0.665352290271         0.16671388E-05      0.13803572E+00     -0.39911141E-13      0.26937925E-06     -0.77887326E-19      0.14057120E-08     -0.32560793E-20
    0.671629198670         0.17247407E-05      0.21332784E+00     -0.28533320E-13      0.42667216E-06     -0.57068845E-19      0.16188350E-08     -0.32845852E-20
    0.677906107068         0.17837558E-05      0.39939456E+00     -0.41925713E-13      0.81850347E-06     -0.85920905E-19      0.20276778E-08     -0.33275028E-20
    0.684183015467         0.18441971E-05      0.10746735E+01     -0.41103645E-13      0.22561300E-05     -0.86291482E-19      0.31546159E-08     -0.33706054E-20
    0.690459923866         0.19060772E-05      0.31598828E+01     -0.19697711E-14      0.67939997E-05     -0.42351647E-20      0.65482222E-08     -0.33727209E-20
    0.696736832265         0.19694076E-05      0.38458022E+01     -0.13370133E-12      0.84665471E-05     -0.29434395E-18      0.10777267E-07     -0.35197458E-20
    0.703013740663         0.20341994E-05      0.18996553E+01     -0.39558531E-13      0.42811167E-05     -0.89150218E-19      0.12915687E-07     -0.35642764E-20
    0.709290649062         0.21004628E-05      0.12265415E+01     -0.77993855E-13      0.28289519E-05     -0.17988862E-18      0.14328749E-07     -0.36541309E-20
    0.715567557461         0.21682073E-05      0.17593916E+01     -0.63798021E-13      0.41520754E-05     -0.15056011E-18      0.16402713E-07     -0.37293357E-20
    0.721844465860         0.22374415E-05      0.21076715E+01     -0.14701232E-12      0.50881923E-05     -0.35490680E-18      0.18944268E-07     -0.39066118E-20
    0.728121374259         0.23081733E-05      0.21674372E+01     -0.10523682E-12      0.53513543E-05     -0.25982736E-18      0.21617272E-07     -0.40363957E-20
    0.734398282657         0.23804097E-05      0.20713177E+01     -0.17699059E-12      0.52290082E-05     -0.44680988E-18      0.24229164E-07     -0.42595775E-20
    0.740675191056         0.24541568E-05      0.22010400E+01     -0.13966025E-12      0.56800870E-05     -0.36041252E-18      0.27066370E-07     -0.44396037E-20
    0.746952099455         0.25294198E-05      0.23926533E+01     -0.99398596E-13      0.63104523E-05     -0.26215670E-18      0.30218445E-07     -0.45705511E-20
    0.753229007854         0.26062031E-05      0.27055306E+01     -0.20571985E-12      0.72909852E-05     -0.55438306E-18      0.33860295E-07     -0.48474657E-20
    0.759505916252         0.26845099E-05      0.30396731E+01      0.75384142E-14      0.83678382E-05      0.20752307E-19      0.38040035E-07     -0.48370999E-20
    0.765782824651         0.27643427E-05      0.25827474E+01     -0.90532804E-13      0.72614064E-05     -0.25453340E-18      0.41667111E-07     -0.49642395E-20
