 
 # Omega; pulse ft; proj flux t=    500.250000000000     
    0.000000000000         0.19000442E-09      0.00000000E+00      0.00000000E+00     -0.21899700E-25     -0.16643147E-33     -0.13746241E-27     -0.10446751E-35
    0.006276908399         0.22160172E-09     -0.10264529E-16     -0.76043774E-25     -0.22459962E-25     -0.16639247E-33     -0.27844153E-27     -0.20891054E-35
    0.012553816798         0.31649624E-09     -0.12549693E-16     -0.10653581E-24     -0.19609592E-25     -0.16646812E-33     -0.40152914E-27     -0.31340105E-35
    0.018830725196         0.47499603E-09     -0.12148925E-16     -0.10645553E-24     -0.18993433E-25     -0.16643086E-33     -0.52074918E-27     -0.41786818E-35
    0.025107633595         0.69761494E-09     -0.11105260E-16     -0.96655270E-25     -0.19124117E-25     -0.16644786E-33     -0.64078951E-27     -0.52234597E-35
    0.031384541994         0.98507334E-09     -0.99070208E-17     -0.85584605E-25     -0.19272521E-25     -0.16649113E-33     -0.76176135E-27     -0.62685093E-35
    0.037661450393         0.13382991E-08     -0.88876436E-17     -0.75557292E-25     -0.19574264E-25     -0.16640838E-33     -0.88462721E-27     -0.73130394E-35
    0.043938358791         0.17584287E-08     -0.80191438E-17     -0.67099072E-25     -0.19890771E-25     -0.16643326E-33     -0.10094798E-26     -0.83577258E-35
    0.050215267190         0.22468091E-08     -0.72991770E-17     -0.60001290E-25     -0.20241699E-25     -0.16639246E-33     -0.11365351E-26     -0.94021560E-35
    0.056492175589         0.28049990E-08     -0.66952955E-17     -0.54078378E-25     -0.20604251E-25     -0.16642200E-33     -0.12658660E-26     -0.10446772E-34
    0.062769083988         0.34347712E-08     -0.62167559E-17     -0.49078500E-25     -0.21084267E-25     -0.16645084E-33     -0.13982101E-26     -0.11491568E-34
    0.069045992387         0.41381150E-08     -0.58064325E-17     -0.44795215E-25     -0.21568311E-25     -0.16639427E-33     -0.15335924E-26     -0.12536010E-34
    0.075322900785         0.49172381E-08     -0.54347417E-17     -0.41139005E-25     -0.21989522E-25     -0.16645263E-33     -0.16716186E-26     -0.13580818E-34
    0.081599809184         0.57745703E-08     -0.51098281E-17     -0.37937043E-25     -0.22411942E-25     -0.16639363E-33     -0.18122963E-26     -0.14625255E-34
    0.087876717583         0.67127654E-08     -0.48413830E-17     -0.35141891E-25     -0.22921327E-25     -0.16637783E-33     -0.19561714E-26     -0.15669594E-34
    0.094153625982         0.77347054E-08     -0.46010392E-17     -0.32675664E-25     -0.23426388E-25     -0.16636954E-33     -0.21032167E-26     -0.16713880E-34
    0.100430534380         0.88435030E-08     -0.43972327E-17     -0.30502665E-25     -0.23998311E-25     -0.16647116E-33     -0.22538519E-26     -0.17758804E-34
    0.106707442779         0.10042506E-07     -0.42103390E-17     -0.28532123E-25     -0.24558799E-25     -0.16642714E-33     -0.24080052E-26     -0.18803452E-34
    0.112984351178         0.11335300E-07     -0.40477719E-17     -0.26752831E-25     -0.25169433E-25     -0.16635167E-33     -0.25659914E-26     -0.19847626E-34
    0.119261259577         0.12725715E-07     -0.38960421E-17     -0.25174663E-25     -0.25766124E-25     -0.16649037E-33     -0.27277230E-26     -0.20892671E-34
    0.125538167976         0.14217824E-07     -0.37686348E-17     -0.23709330E-25     -0.26453556E-25     -0.16642528E-33     -0.28937696E-26     -0.21937308E-34
    0.131815076374         0.15815953E-07     -0.36470636E-17     -0.22394121E-25     -0.27121661E-25     -0.16653556E-33     -0.30640098E-26     -0.22982636E-34
    0.138091984773         0.17524683E-07     -0.35400866E-17     -0.21171497E-25     -0.27844426E-25     -0.16652366E-33     -0.32387867E-26     -0.24027890E-34
    0.144368893172         0.19348855E-07     -0.34368946E-17     -0.20049826E-25     -0.28548975E-25     -0.16654627E-33     -0.34179860E-26     -0.25073285E-34
    0.150645801571         0.21293571E-07     -0.33489822E-17     -0.19004593E-25     -0.29339113E-25     -0.16649175E-33     -0.36021449E-26     -0.26118339E-34
    0.156922709970         0.23364205E-07     -0.32624748E-17     -0.18036073E-25     -0.30106139E-25     -0.16643699E-33     -0.37911184E-26     -0.27163049E-34
    0.163199618368         0.25566403E-07     -0.31900112E-17     -0.17153067E-25     -0.30973150E-25     -0.16654628E-33     -0.39855340E-26     -0.28208444E-34
    0.169476526767         0.27906088E-07     -0.31181392E-17     -0.16313249E-25     -0.31822008E-25     -0.16648402E-33     -0.41852778E-26     -0.29253449E-34
    0.175753435166         0.30389467E-07     -0.30556214E-17     -0.15541990E-25     -0.32746244E-25     -0.16655918E-33     -0.43908230E-26     -0.30298926E-34
    0.182030343565         0.33023034E-07     -0.29934924E-17     -0.14810719E-25     -0.33658443E-25     -0.16652981E-33     -0.46020940E-26     -0.31344218E-34
    0.188307251963         0.35813574E-07     -0.29406716E-17     -0.14131043E-25     -0.34663293E-25     -0.16657028E-33     -0.48196723E-26     -0.32389765E-34
    0.194584160362         0.38768170E-07     -0.28880920E-17     -0.13485612E-25     -0.35663299E-25     -0.16652566E-33     -0.50435275E-26     -0.33435031E-34
    0.200861068761         0.41894206E-07     -0.28430315E-17     -0.12871307E-25     -0.36752133E-25     -0.16638858E-33     -0.52742173E-26     -0.34479437E-34
    0.207137977160         0.45199371E-07     -0.27985035E-17     -0.12315789E-25     -0.37847848E-25     -0.16656263E-33     -0.55117848E-26     -0.35524935E-34
    0.213414885559         0.48691666E-07     -0.27575950E-17     -0.11769308E-25     -0.38994475E-25     -0.16642691E-33     -0.57565495E-26     -0.36569582E-34
    0.219691793957         0.52379403E-07     -0.27180198E-17     -0.11264871E-25     -0.40164466E-25     -0.16646219E-33     -0.60086582E-26     -0.37614450E-34
    0.225968702356         0.56271216E-07     -0.26822928E-17     -0.10784506E-25     -0.41398716E-25     -0.16644891E-33     -0.62685141E-26     -0.38659234E-34
    0.232245610755         0.60376060E-07     -0.26484754E-17     -0.10334599E-25     -0.42673265E-25     -0.16651508E-33     -0.65363703E-26     -0.39704434E-34
    0.238522519154         0.64703218E-07     -0.26183413E-17     -0.98977279E-26     -0.44021559E-25     -0.16640818E-33     -0.68126896E-26     -0.40748963E-34
    0.244799427552         0.69262300E-07     -0.25911052E-17     -0.94823724E-26     -0.45437479E-25     -0.16628236E-33     -0.70978965E-26     -0.41792702E-34
    0.251076335951         0.74063251E-07     -0.25667175E-17     -0.91124105E-26     -0.46926454E-25     -0.16659921E-33     -0.73924496E-26     -0.42838430E-34
    0.257353244350         0.79116352E-07     -0.25439399E-17     -0.87298471E-26     -0.48471463E-25     -0.16633587E-33     -0.76967005E-26     -0.43882505E-34
    0.263630152749         0.84432224E-07     -0.25233839E-17     -0.83834152E-26     -0.50088631E-25     -0.16640900E-33     -0.80111022E-26     -0.44927039E-34
    0.269907061148         0.90021830E-07     -0.25070311E-17     -0.80460543E-26     -0.51824603E-25     -0.16632565E-33     -0.83364005E-26     -0.45971050E-34
    0.276183969546         0.95896474E-07     -0.24925652E-17     -0.77338707E-26     -0.53640570E-25     -0.16643465E-33     -0.86730975E-26     -0.47015745E-34
    0.282460877945         0.10206781E-06     -0.24815852E-17     -0.74281850E-26     -0.55577929E-25     -0.16636267E-33     -0.90219550E-26     -0.48059988E-34
    0.288737786344         0.10854784E-06     -0.24700593E-17     -0.71383887E-26     -0.57552952E-25     -0.16632610E-33     -0.93832096E-26     -0.49104002E-34
    0.295014694743         0.11534890E-06     -0.24626302E-17     -0.68727293E-26     -0.59677645E-25     -0.16654888E-33     -0.97578008E-26     -0.50149414E-34
    0.301291603141         0.12248370E-06     -0.24577747E-17     -0.65942223E-26     -0.61926425E-25     -0.16614892E-33     -0.10146507E-25     -0.51192316E-34
    0.307568511540         0.12996528E-06     -0.24567425E-17     -0.63605641E-26     -0.64340997E-25     -0.16658036E-33     -0.10550370E-25     -0.52237925E-34
    0.313845419939         0.13780704E-06     -0.24516042E-17     -0.61164767E-26     -0.66718864E-25     -0.16645606E-33     -0.10969158E-25     -0.53282755E-34
    0.320122328338         0.14602273E-06     -0.24516148E-17     -0.58928442E-26     -0.69310557E-25     -0.16659889E-33     -0.11404214E-25     -0.54328481E-34
    0.326399236737         0.15462643E-06     -0.24536083E-17     -0.56757335E-26     -0.72041459E-25     -0.16664767E-33     -0.11856412E-25     -0.55374513E-34
    0.332676145135         0.16363259E-06     -0.24598381E-17     -0.54584106E-26     -0.74988960E-25     -0.16640142E-33     -0.12327110E-25     -0.56418999E-34
    0.338953053534         0.17305599E-06     -0.24664204E-17     -0.52659628E-26     -0.78047118E-25     -0.16663551E-33     -0.12817005E-25     -0.57464955E-34
    0.345229961933         0.18291177E-06     -0.24781045E-17     -0.50645497E-26     -0.81375835E-25     -0.16630935E-33     -0.13327794E-25     -0.58508864E-34
    0.351506870332         0.19321538E-06     -0.24897099E-17     -0.48825445E-26     -0.84820198E-25     -0.16634002E-33     -0.13860202E-25     -0.59552965E-34
    0.357783778731         0.20398262E-06     -0.25066077E-17     -0.47105198E-26     -0.88573043E-25     -0.16645009E-33     -0.14416167E-25     -0.60597757E-34
    0.364060687129         0.21522964E-06     -0.25274362E-17     -0.45393604E-26     -0.92608571E-25     -0.16632811E-33     -0.14997463E-25     -0.61641783E-34
    0.370337595528         0.22697289E-06     -0.25530135E-17     -0.43840246E-26     -0.96977723E-25     -0.16652976E-33     -0.15606183E-25     -0.62687075E-34
    0.376614503927         0.23922915E-06     -0.25733137E-17     -0.42222659E-26     -0.10131004E-24     -0.16622844E-33     -0.16242097E-25     -0.63730476E-34
    0.382891412326         0.25201552E-06     -0.25999473E-17     -0.40785309E-26     -0.10606177E-24     -0.16637884E-33     -0.16907837E-25     -0.64774821E-34
    0.389168320724         0.26534940E-06     -0.26292091E-17     -0.39328241E-26     -0.11110880E-24     -0.16619878E-33     -0.17605257E-25     -0.65818035E-34
    0.395445229123         0.27924851E-06     -0.26648221E-17     -0.38031147E-26     -0.11663138E-24     -0.16645108E-33     -0.18337341E-25     -0.66862833E-34
    0.401722137522         0.29373083E-06     -0.27025186E-17     -0.36717664E-26     -0.12247153E-24     -0.16639547E-33     -0.19106084E-25     -0.67907282E-34
    0.407999045921         0.30881467E-06     -0.27468849E-17     -0.35487164E-26     -0.12886112E-24     -0.16647643E-33     -0.19914933E-25     -0.68952240E-34
    0.414275954320         0.32451858E-06     -0.27923045E-17     -0.34324968E-26     -0.13556740E-24     -0.16664898E-33     -0.20765877E-25     -0.69998280E-34
    0.420552862718         0.34086139E-06     -0.28449299E-17     -0.33102480E-26     -0.14291291E-24     -0.16628781E-33     -0.21662929E-25     -0.71042053E-34
    0.426829771117         0.35786219E-06     -0.28990251E-17     -0.32017123E-26     -0.15064536E-24     -0.16637424E-33     -0.22608516E-25     -0.72086369E-34
    0.433106679516         0.37554031E-06     -0.29601772E-17     -0.30961391E-26     -0.15908237E-24     -0.16638908E-33     -0.23607061E-25     -0.73130778E-34
    0.439383587915         0.39391532E-06     -0.30205568E-17     -0.29960543E-26     -0.16783739E-24     -0.16647591E-33     -0.24660561E-25     -0.74175732E-34
    0.445660496313         0.41300701E-06     -0.30843547E-17     -0.28984102E-26     -0.17715780E-24     -0.16647760E-33     -0.25772564E-25     -0.75220697E-34
    0.451937404712         0.43283537E-06     -0.31238226E-17     -0.28040513E-26     -0.18542722E-24     -0.16644589E-33     -0.26936474E-25     -0.76265463E-34
    0.458214313111         0.45342059E-06     -0.30589882E-17     -0.27176279E-26     -0.18760874E-24     -0.16667300E-33     -0.28114077E-25     -0.77311654E-34
    0.464491221510         0.47478305E-06     -0.32814563E-17     -0.26255766E-26     -0.20788684E-24     -0.16633555E-33     -0.29418964E-25     -0.78355727E-34
    0.470768129909         0.49694328E-06     -0.38119767E-17     -0.25422632E-26     -0.24939783E-24     -0.16632708E-33     -0.30984411E-25     -0.79399747E-34
    0.477045038307         0.51992196E-06     -0.40089176E-17     -0.24638931E-26     -0.27079995E-24     -0.16643448E-33     -0.32684197E-25     -0.80444441E-34
    0.483321946706         0.54373993E-06     -0.40295511E-17     -0.23870702E-26     -0.28096618E-24     -0.16644186E-33     -0.34447796E-25     -0.81489181E-34
    0.489598855105         0.56841810E-06     -0.41699165E-17     -0.23130315E-26     -0.30005270E-24     -0.16643771E-33     -0.36331200E-25     -0.82533895E-34
    0.495875763504         0.59397753E-06     -0.43399880E-17     -0.22415876E-26     -0.32220208E-24     -0.16641617E-33     -0.38353633E-25     -0.83578474E-34
    0.502152671902         0.62043932E-06     -0.45464020E-17     -0.21754145E-26     -0.34815613E-24     -0.16658973E-33     -0.40538977E-25     -0.84624143E-34
    0.508429580301         0.64782466E-06     -0.47629472E-17     -0.21074797E-26     -0.37613618E-24     -0.16643043E-33     -0.42899949E-25     -0.85668811E-34
    0.514706488700         0.67615476E-06     -0.51305930E-17     -0.20429971E-26     -0.41773100E-24     -0.16634008E-33     -0.45522008E-25     -0.86712913E-34
    0.520983397099         0.70545086E-06     -0.55418540E-17     -0.19829085E-26     -0.46509390E-24     -0.16641338E-33     -0.48441360E-25     -0.87757474E-34
    0.527260305498         0.73573422E-06     -0.59010908E-17     -0.19261887E-26     -0.51035321E-24     -0.16658557E-33     -0.51644800E-25     -0.88803117E-34
    0.533537213896         0.76702604E-06     -0.62156594E-17     -0.18688180E-26     -0.55382847E-24     -0.16651566E-33     -0.55121131E-25     -0.89848320E-34
    0.539814122295         0.79934752E-06     -0.67095778E-17     -0.18146896E-26     -0.61578522E-24     -0.16654685E-33     -0.58986358E-25     -0.90893719E-34
    0.546091030694         0.83271978E-06     -0.72306472E-17     -0.17623957E-26     -0.68336650E-24     -0.16656354E-33     -0.63275787E-25     -0.91939224E-34
    0.552367939093         0.86716384E-06     -0.79890128E-17     -0.17115565E-26     -0.77733548E-24     -0.16653542E-33     -0.68155051E-25     -0.92984551E-34
    0.558644847491         0.90270064E-06     -0.87493957E-17     -0.16621764E-26     -0.87625132E-24     -0.16646684E-33     -0.73655200E-25     -0.94029448E-34
    0.564921755890         0.93935095E-06     -0.98791406E-17     -0.16153122E-26     -0.10181257E-23     -0.16647105E-33     -0.80045882E-25     -0.95074372E-34
    0.571198664289         0.97713540E-06     -0.10947541E-16     -0.15705183E-26     -0.11607183E-23     -0.16651496E-33     -0.87331605E-25     -0.96119571E-34
    0.577475572688         0.10160745E-05     -0.12796745E-16     -0.15267600E-26     -0.13955137E-23     -0.16649660E-33     -0.96091116E-25     -0.97164655E-34
    0.583752481087         0.10561883E-05     -0.14414786E-16     -0.14866376E-26     -0.16164545E-23     -0.16670953E-33     -0.10623745E-24     -0.98211075E-34
    0.590029389485         0.10974971E-05     -0.17713778E-16     -0.14449743E-26     -0.20421310E-23     -0.16658371E-33     -0.11905572E-24     -0.99256706E-34
    0.596306297884         0.11400204E-05     -0.20371025E-16     -0.14061738E-26     -0.24137861E-23     -0.16661914E-33     -0.13420684E-24     -0.10030256E-33
    0.602583206283         0.11837778E-05     -0.27379122E-16     -0.13680586E-26     -0.33336143E-23     -0.16657143E-33     -0.15513163E-24     -0.10134811E-33
    0.608860114682         0.12287883E-05     -0.32018417E-16     -0.13303693E-26     -0.40049959E-23     -0.16640809E-33     -0.18027062E-24     -0.10239264E-33
    0.615137023081         0.12750709E-05     -0.53189549E-16     -0.12943830E-26     -0.68333151E-23     -0.16629069E-33     -0.22316271E-24     -0.10343643E-33
    0.621413931479         0.13226439E-05     -0.56974843E-16     -0.12588611E-26     -0.75160171E-23     -0.16606665E-33     -0.27034006E-24     -0.10447882E-33
    0.627690839878         0.13715254E-05     -0.32331098E-15     -0.12210770E-26     -0.43784582E-22     -0.16536508E-33     -0.54517187E-24     -0.10551680E-33
    0.633967748277         0.14217330E-05     -0.62144808E-15     -0.11570540E-26     -0.86377060E-22     -0.16082264E-33     -0.10873528E-23     -0.10652627E-33
    0.640244656676         0.14732840E-05     -0.20067459E-15     -0.11585154E-26     -0.28620391E-22     -0.16522851E-33     -0.12670003E-23     -0.10756339E-33
    0.646521565074         0.15261949E-05      0.20604778E-15     -0.11418086E-26      0.30146549E-22     -0.16705634E-33     -0.10777732E-23     -0.10861199E-33
    0.652798473473         0.15804821E-05      0.15262723E-15     -0.11179257E-26      0.22902619E-22     -0.16775136E-33     -0.93401558E-24     -0.10966495E-33
    0.659075381872         0.16361611E-05      0.11287138E-15     -0.10849887E-26      0.17366707E-22     -0.16693941E-33     -0.82500634E-24     -0.11071281E-33
    0.665352290271         0.16932470E-05      0.12749395E-15     -0.10649596E-26      0.20109483E-22     -0.16797493E-33     -0.69878096E-24     -0.11176718E-33
    0.671629198670         0.17517545E-05      0.14415229E-15     -0.10298433E-26      0.23302789E-22     -0.16647824E-33     -0.55251149E-24     -0.11281214E-33
    0.677906107068         0.18116973E-05      0.21112947E-15     -0.10108698E-26      0.34970965E-22     -0.16743799E-33     -0.33300195E-24     -0.11386314E-33
    0.684183015467         0.18730887E-05      0.78068125E-15     -0.99029742E-27      0.13246541E-21     -0.16803293E-33      0.49847130E-24     -0.11491787E-33
    0.690459923866         0.19359414E-05      0.23669677E-14     -0.93885949E-27      0.41132844E-21     -0.16315373E-33      0.30803423E-23     -0.11594197E-33
    0.696736832265         0.20002671E-05      0.40063383E-14     -0.10462111E-26      0.71286867E-21     -0.18615779E-33      0.75549536E-23     -0.11711046E-33
    0.703013740663         0.20660771E-05      0.42495949E-14     -0.94197952E-27      0.77405694E-21     -0.17158007E-33      0.12413638E-22     -0.11818745E-33
    0.709290649062         0.21333816E-05      0.46200249E-14     -0.10906147E-26      0.86125413E-21     -0.20330981E-33      0.17819651E-22     -0.11946361E-33
    0.715567557461         0.22021904E-05      0.70407107E-14     -0.10272822E-26      0.13429610E-20     -0.19594612E-33      0.26249295E-22     -0.12069355E-33
    0.721844465860         0.22725123E-05      0.97293406E-14     -0.14193549E-26      0.18984042E-20     -0.27694676E-33      0.38165404E-22     -0.12243192E-33
    0.728121374259         0.23443551E-05      0.10139525E-13     -0.12144199E-26      0.20233915E-20     -0.24234338E-33      0.50866047E-22     -0.12395308E-33
    0.734398282657         0.24177260E-05      0.93062073E-14     -0.15045983E-26      0.18988507E-20     -0.30700021E-33      0.62784959E-22     -0.12588010E-33
    0.740675191056         0.24926312E-05      0.89448013E-14     -0.12715150E-26      0.18657077E-20     -0.26521274E-33      0.74495835E-22     -0.12754481E-33
    0.746952099455         0.25690760E-05      0.90022677E-14     -0.10700123E-26      0.19190169E-20     -0.22809493E-33      0.86541329E-22     -0.12897654E-33
    0.753229007854         0.26470648E-05      0.96391845E-14     -0.14204729E-26      0.20995223E-20     -0.30939491E-33      0.99719838E-22     -0.13091859E-33
    0.759505916252         0.27266009E-05      0.97037882E-14     -0.65436662E-27      0.21591081E-20     -0.14559760E-33      0.11327236E-21     -0.13183249E-33
    0.765782824651         0.28076868E-05      0.82790051E-14     -0.95264999E-27      0.18813251E-20     -0.21648065E-33      0.12508127E-21     -0.13319132E-33
