 
 # Omega; pulse ft; proj flux t=    2000.05000000000     
    0.000000000000         0.15753149E-11      0.00000000E+00      0.00000000E+00      0.00000000E+00      0.00000000E+00      0.00000000E+00      0.00000000E+00
    0.001570600002         0.18069754E-11      0.94870090E-04     -0.30084007E-11      0.67648573E-14     -0.21451863E-21      0.10624885E-16     -0.33692296E-24
    0.003141200004         0.25019713E-11      0.23468133E-03      0.29363313E-12      0.11585318E-13      0.14495542E-22      0.28820785E-16     -0.31415626E-24
    0.004711800005         0.36603453E-11      0.31266345E-03     -0.71315202E-12      0.15054107E-13     -0.34336814E-22      0.52464766E-16     -0.36808566E-24
    0.006282400007         0.52821684E-11      0.23282456E-03     -0.32694239E-12      0.12132719E-13     -0.17037292E-22      0.71520414E-16     -0.39484443E-24
    0.007853000009         0.73675403E-11      0.15834816E-03     -0.80060804E-12      0.92075190E-14     -0.46553201E-22      0.85981743E-16     -0.46796088E-24
    0.009423600011         0.99165891E-11      0.66608642E-04     -0.28067401E-12      0.43442892E-14     -0.18305869E-22      0.92804884E-16     -0.49671208E-24
    0.010994200013         0.12929471E-10     -0.70659597E-05     -0.53234481E-12     -0.51502815E-15     -0.38801886E-22      0.91995981E-16     -0.55765432E-24
    0.012564800014         0.16406372E-10     -0.38350014E-04     -0.49898634E-12     -0.31035959E-14     -0.40382044E-22      0.87121473E-16     -0.62107836E-24
    0.014135400016         0.20347504E-10     -0.63747974E-04     -0.86697429E-14     -0.56873783E-14     -0.77348508E-24      0.78188877E-16     -0.62229320E-24
    0.015706000018         0.24753111E-10     -0.60991670E-04     -0.11183077E-12     -0.59576830E-14     -0.10923661E-22      0.68831740E-16     -0.63944990E-24
    0.017276600020         0.29623462E-10     -0.58587935E-04     -0.37474270E-13     -0.62262764E-14     -0.39824780E-23      0.59052750E-16     -0.64570478E-24
    0.018847200022         0.34958856E-10     -0.48570215E-04     -0.51030910E-13     -0.55837128E-14     -0.58665984E-23      0.50282971E-16     -0.65491886E-24
    0.020417800023         0.40759620E-10     -0.39937071E-04     -0.29637373E-13     -0.49412869E-14     -0.36669379E-23      0.42522186E-16     -0.66067815E-24
    0.021988400025         0.47026112E-10     -0.31067898E-04     -0.40006024E-13     -0.41181294E-14     -0.53029008E-23      0.36054251E-16     -0.66900689E-24
    0.023559000027         0.53758715E-10     -0.23305485E-04     -0.52493703E-13     -0.32960428E-14     -0.74240674E-23      0.30877487E-16     -0.68066713E-24
    0.025129600029         0.60957842E-10     -0.17607469E-04     -0.10149241E-12     -0.26471808E-14     -0.15258796E-22      0.26719824E-16     -0.70463259E-24
    0.026700200031         0.68623934E-10     -0.12549442E-04     -0.87871054E-13     -0.19990709E-14     -0.13997472E-22      0.23580084E-16     -0.72661702E-24
    0.028270800032         0.76757463E-10     -0.93200099E-05      0.22900415E-13     -0.15683448E-14      0.38536169E-23      0.21116841E-16     -0.72056453E-24
    0.029841400034         0.85358926E-10     -0.64191113E-05     -0.21199148E-13     -0.11380133E-14     -0.37582947E-23      0.19329478E-16     -0.72646731E-24
    0.031412000036         0.94428851E-10     -0.47312263E-05     -0.44963722E-13     -0.88150649E-15     -0.83774925E-23      0.17944983E-16     -0.73962500E-24
    0.032982600038         0.10396779E-09     -0.32000482E-05     -0.30614401E-13     -0.62519160E-15     -0.59811181E-23      0.16963058E-16     -0.74901894E-24
    0.034553200039         0.11397634E-09     -0.23943513E-05      0.22805415E-13     -0.48950481E-15      0.46623737E-23      0.16194241E-16     -0.74169622E-24
    0.036123800041         0.12445510E-09     -0.16571211E-05     -0.71801574E-13     -0.35384753E-15     -0.15331897E-22      0.15638488E-16     -0.76577650E-24
    0.037694400043         0.13540471E-09     -0.11866753E-05     -0.16992693E-15     -0.26419922E-15     -0.37832222E-25      0.15223537E-16     -0.76583592E-24
    0.039265000045         0.14682586E-09     -0.75389432E-06     -0.36448249E-13     -0.17472301E-15     -0.84472683E-23      0.14949117E-16     -0.77910320E-24
    0.040835600047         0.15871923E-09     -0.40096714E-06     -0.40027515E-13     -0.96592200E-16     -0.96425502E-23      0.14797409E-16     -0.79424779E-24
    0.042406200048         0.17108555E-09     -0.75634201E-07      0.15760177E-13     -0.18912323E-16      0.39408303E-23      0.14767706E-16     -0.78805832E-24
    0.043976800050         0.18392558E-09     -0.82972832E-07     -0.22673180E-13     -0.21507855E-16     -0.58772427E-23      0.14733925E-16     -0.79728911E-24
    0.045547400052         0.19724011E-09     -0.91663304E-07     -0.82820484E-14     -0.24601967E-16     -0.22228599E-23      0.14695286E-16     -0.80078034E-24
    0.047118000054         0.21102995E-09     -0.89556750E-06     -0.64051542E-14     -0.24859835E-15     -0.17779908E-23      0.14304837E-16     -0.80357285E-24
    0.048688600056         0.22529594E-09     -0.16441264E-05      0.52108457E-14     -0.47152416E-15      0.14944348E-23      0.13564261E-16     -0.80122569E-24
    0.050259200057         0.24003895E-09     -0.27059878E-05     -0.83277365E-14     -0.80100394E-15     -0.24651071E-23      0.12306204E-16     -0.80509739E-24
    0.051829800059         0.25525989E-09     -0.36955327E-05      0.21454076E-13     -0.11280355E-14      0.65487065E-23      0.10534512E-16     -0.79481199E-24
    0.053400400061         0.27095967E-09     -0.42771512E-05      0.30835716E-14     -0.13451088E-14      0.96974348E-24      0.84218839E-17     -0.79328891E-24
    0.054971000063         0.28713927E-09     -0.48128894E-05     -0.17999420E-13     -0.15581437E-14     -0.58272030E-23      0.59746634E-17     -0.80244112E-24
    0.056541600065         0.30379966E-09     -0.31330524E-05      0.54551594E-14     -0.10433488E-14      0.18166419E-23      0.43359797E-17     -0.79958790E-24
    0.058112200066         0.32094187E-09     -0.15505312E-05     -0.18954395E-13     -0.53074052E-15     -0.64880124E-23      0.35023987E-17     -0.80977797E-24
    0.059682800068         0.33856693E-09      0.12503633E-05     -0.12029743E-13      0.43961676E-15     -0.42295519E-23      0.41928608E-17     -0.81642091E-24
    0.061253400070         0.35667593E-09      0.38789023E-05     -0.13364748E-14      0.13998939E-14     -0.48233309E-24      0.63915341E-17     -0.81717846E-24
    0.062824000072         0.37526995E-09      0.31209681E-05      0.66685897E-14      0.11554475E-14      0.24688510E-23      0.82062799E-17     -0.81330088E-24
    0.064394600074         0.39435014E-09      0.24162375E-05      0.35457053E-15      0.91709609E-15      0.13457918E-24      0.96466710E-17     -0.81308951E-24
    0.065965200075         0.41391766E-09      0.23733914E-05      0.14655305E-13      0.92302001E-15      0.56994981E-23      0.11096366E-16     -0.80413788E-24
    0.067535800077         0.43397368E-09      0.23327183E-05     -0.98241209E-14      0.92903980E-15     -0.39126024E-23      0.12555516E-16     -0.81028301E-24
    0.069106400079         0.45451945E-09      0.23877707E-05     -0.12872823E-13      0.97335101E-15     -0.52474787E-23      0.14084261E-16     -0.81852470E-24
    0.070677000081         0.47555619E-09      0.24405290E-05      0.28462617E-14      0.10177717E-14      0.11869741E-23      0.15682774E-16     -0.81666044E-24
    0.072247600083         0.49708519E-09      0.25432517E-05     -0.12326496E-13      0.10845246E-14     -0.52564159E-23      0.17386128E-16     -0.82491617E-24
    0.073818200084         0.51910775E-09      0.26471265E-05      0.14085942E-14      0.11537492E-14      0.61393533E-24      0.19198206E-16     -0.82395192E-24
    0.075388800086         0.54162521E-09      0.26337826E-05     -0.61759871E-15      0.11727748E-14     -0.27500532E-24      0.21040167E-16     -0.82438384E-24
    0.076959400088         0.56463893E-09      0.26059811E-05     -0.97429166E-14      0.11850129E-14     -0.44303782E-23      0.22901348E-16     -0.83134220E-24
    0.078530000090         0.58815031E-09      0.25175743E-05     -0.18541337E-13      0.11686318E-14     -0.86066959E-23      0.24736801E-16     -0.84485987E-24
    0.080100600092         0.61216077E-09      0.24390479E-05      0.58634677E-15      0.11552946E-14      0.27773265E-24      0.26551307E-16     -0.84442367E-24
    0.081671200093         0.63667176E-09      0.24295817E-05     -0.47129620E-14      0.11738723E-14     -0.22771061E-23      0.28394990E-16     -0.84800009E-24
    0.083241800095         0.66168477E-09      0.24207465E-05     -0.12820056E-13      0.11926188E-14     -0.63160020E-23      0.30268118E-16     -0.85792000E-24
    0.084812400097         0.68720130E-09      0.24632028E-05     -0.10312850E-13      0.12369936E-14     -0.51790010E-23      0.32210940E-16     -0.86605414E-24
    0.086383000099         0.71322290E-09      0.25039195E-05     -0.13299256E-13      0.12813271E-14     -0.68056093E-23      0.34223392E-16     -0.87674303E-24
    0.087953600101         0.73975113E-09      0.25158963E-05     -0.72625747E-14      0.13114974E-14     -0.37858666E-23      0.36283230E-16     -0.88268911E-24
    0.089524200102         0.76678760E-09      0.25273532E-05     -0.60264768E-14      0.13416624E-14     -0.31991956E-23      0.38390445E-16     -0.88771377E-24
    0.091094800104         0.79433393E-09      0.25001233E-05     -0.13331915E-13      0.13511813E-14     -0.72051785E-23      0.40512610E-16     -0.89903022E-24
    0.092665400106         0.82239179E-09      0.24738296E-05     -0.46133686E-14      0.13607352E-14     -0.25375931E-23      0.42649781E-16     -0.90301577E-24
    0.094236000108         0.85096285E-09      0.24285169E-05      0.19060403E-14      0.13591818E-14      0.10667644E-23      0.44784512E-16     -0.90134031E-24
    0.095806600109         0.88004885E-09      0.23846837E-05     -0.13848438E-13      0.13576406E-14     -0.78841487E-23      0.46916822E-16     -0.91372315E-24
    0.097377200111         0.90965153E-09      0.23348198E-05     -0.55312618E-14      0.13518042E-14     -0.32024670E-23      0.49039966E-16     -0.91875294E-24
    0.098947800113         0.93977266E-09      0.22864720E-05      0.23477537E-14      0.13459386E-14      0.13820122E-23      0.51153897E-16     -0.91658236E-24
    0.100518400115         0.97041405E-09      0.22360968E-05     -0.18350790E-14      0.13379651E-14     -0.10980167E-23      0.53255305E-16     -0.91830690E-24
    0.102089000117         0.10015775E-08      0.21871153E-05      0.39948228E-14      0.13299030E-14      0.24291024E-23      0.55344051E-16     -0.91449175E-24
    0.103659600118         0.10332650E-08      0.21348063E-05      0.18127508E-14      0.13188741E-14      0.11199096E-23      0.57415474E-16     -0.91273282E-24
    0.105230200120         0.10654783E-08      0.20838233E-05     -0.82069916E-15      0.13076990E-14     -0.51502806E-24      0.59469347E-16     -0.91354173E-24
    0.106800800122         0.10982195E-08      0.20237577E-05     -0.53713593E-15      0.12897805E-14     -0.34232727E-24      0.61495076E-16     -0.91407939E-24
    0.108371400124         0.11314903E-08      0.19651434E-05      0.31014228E-14      0.12716661E-14      0.20069651E-23      0.63492355E-16     -0.91092725E-24
    0.109942000126         0.11652929E-08      0.18874064E-05     -0.16472259E-14      0.12398798E-14     -0.10820998E-23      0.65439710E-16     -0.91262679E-24
    0.111512600127         0.11996293E-08      0.18115862E-05     -0.20744999E-14      0.12078828E-14     -0.13831816E-23      0.67336810E-16     -0.91479922E-24
    0.113083200129         0.12345014E-08      0.17049989E-05      0.30064435E-14      0.11536134E-14      0.20341793E-23      0.69148676E-16     -0.91160434E-24
    0.114653800131         0.12699115E-08      0.16014591E-05     -0.24809167E-14      0.10993691E-14     -0.17030988E-23      0.70875345E-16     -0.91427922E-24
    0.116224400133         0.13058615E-08      0.14815875E-05      0.72390512E-15      0.10317388E-14      0.50410862E-24      0.72495794E-16     -0.91348747E-24
    0.117795000135         0.13423536E-08      0.13652350E-05      0.13516705E-14      0.96425114E-15      0.95467071E-24      0.74010247E-16     -0.91198806E-24
    0.119365600136         0.13793901E-08      0.12452123E-05     -0.48941916E-15      0.89185442E-15     -0.35053513E-24      0.75410993E-16     -0.91253861E-24
    0.120936200138         0.14169730E-08      0.11297086E-05      0.17048147E-14      0.82037866E-15      0.12380128E-23      0.76699480E-16     -0.91059419E-24
    0.122506800140         0.14551046E-08      0.11216889E-05      0.18998515E-14      0.82575100E-15      0.13986091E-23      0.77996404E-16     -0.90839754E-24
    0.124077400142         0.14937873E-08      0.11135616E-05     -0.44885338E-14      0.83090806E-15     -0.33492167E-23      0.79301429E-16     -0.91365782E-24
    0.125648000144         0.15330232E-08      0.11569126E-05     -0.15916525E-14      0.87485557E-15     -0.12036052E-23      0.80675477E-16     -0.91554820E-24
    0.127218600145         0.15728147E-08      0.11960985E-05      0.19459264E-16      0.91650861E-15      0.14910631E-25      0.82114945E-16     -0.91552478E-24
    0.128789200147         0.16131641E-08      0.99820494E-06     -0.32915504E-14      0.77492825E-15     -0.25553023E-23      0.83332047E-16     -0.91953814E-24
    0.130359800149         0.16540739E-08      0.80708469E-06     -0.34862458E-14      0.63470658E-15     -0.27416492E-23      0.84328918E-16     -0.92384417E-24
    0.131930400151         0.16955464E-08      0.56646687E-06     -0.21349563E-15      0.45121339E-15     -0.17005776E-24      0.85037593E-16     -0.92411126E-24
    0.133501000153         0.17375841E-08      0.33590949E-06      0.10535832E-14      0.27097315E-15      0.84990973E-24      0.85463184E-16     -0.92277640E-24
    0.135071600154         0.17801894E-08      0.33909342E-06     -0.51319802E-14      0.27699008E-15     -0.41920824E-23      0.85898224E-16     -0.92936048E-24
    0.136642200156         0.18233649E-08      0.34120653E-06      0.16310962E-14      0.28219464E-15      0.13489970E-23      0.86341439E-16     -0.92724175E-24
    0.138212800158         0.18671131E-08      0.40027232E-06     -0.24421303E-14      0.33513563E-15     -0.20447201E-23      0.86867803E-16     -0.93045318E-24
    0.139783400160         0.19114366E-08      0.45631877E-06     -0.15236844E-14      0.38673663E-15     -0.12913441E-23      0.87475212E-16     -0.93248137E-24
    0.141354000162         0.19563380E-08      0.47255684E-06      0.11165098E-14      0.40535218E-15      0.95772539E-24      0.88111858E-16     -0.93097716E-24
    0.142924600163         0.20018198E-08      0.48811724E-06     -0.49243471E-14      0.42372572E-15     -0.42747364E-23      0.88777362E-16     -0.93769107E-24
    0.144495200165         0.20478848E-08      0.47965818E-06     -0.88680982E-15      0.42133413E-15     -0.77897816E-24      0.89439109E-16     -0.93891453E-24
    0.146065800167         0.20945357E-08      0.47165943E-06     -0.22069123E-15      0.41918953E-15     -0.19614036E-24      0.90097488E-16     -0.93922259E-24
    0.147636400169         0.21417752E-08      0.45087948E-06     -0.77480287E-15      0.40539984E-15     -0.69664950E-24      0.90734209E-16     -0.94031674E-24
    0.149207000170         0.21896059E-08      0.43267231E-06     -0.28753940E-14      0.39353063E-15     -0.26152716E-23      0.91352288E-16     -0.94442429E-24
    0.150777600172         0.22380308E-08      0.42554223E-06      0.22493046E-14      0.39148451E-15      0.20692844E-23      0.91967154E-16     -0.94117427E-24
    0.152348200174         0.22870527E-08      0.50638123E-06     -0.78864429E-15      0.47114991E-15     -0.73377461E-24      0.92707142E-16     -0.94232674E-24
    0.153918800176         0.23366743E-08      0.60309730E-06     -0.48121383E-15      0.56746172E-15     -0.45278006E-24      0.93598397E-16     -0.94303787E-24
    0.155489400178         0.23868986E-08      0.53748309E-06      0.13271864E-14      0.51137638E-15      0.12627221E-23      0.94401565E-16     -0.94105464E-24
    0.157060000179         0.24377285E-08      0.38192493E-06     -0.58658518E-15      0.36740108E-15     -0.56427849E-24      0.94978605E-16     -0.94194090E-24
    0.158630600181         0.24891669E-08      0.28773979E-06      0.71601293E-15      0.27983991E-15      0.69635483E-24      0.95418122E-16     -0.94084720E-24
    0.160201200183         0.25412168E-08      0.24760003E-06      0.17035938E-14      0.24342732E-15      0.16748838E-23      0.95800449E-16     -0.93821663E-24
    0.161771800185         0.25938812E-08      0.21877634E-06      0.89730953E-15      0.21741540E-15      0.89172764E-24      0.96141921E-16     -0.93681608E-24
    0.163342400187         0.26471632E-08      0.19017636E-06      0.11257748E-14      0.19102094E-15      0.11307744E-23      0.96441939E-16     -0.93504009E-24
    0.164913000188         0.27010658E-08      0.16364275E-06      0.40860628E-14      0.16611916E-15      0.41478972E-23      0.96702846E-16     -0.92852540E-24
    0.166483600190         0.27555922E-08      0.12417433E-06     -0.59934151E-15      0.12738491E-15     -0.61483774E-24      0.96902916E-16     -0.92949107E-24
    0.168054200192         0.28107454E-08      0.86404450E-07     -0.83399874E-15      0.89567598E-16     -0.86453028E-24      0.97043591E-16     -0.93084890E-24
    0.169624800194         0.28665287E-08      0.89591179E-07      0.20818033E-14      0.93837162E-16      0.21804659E-23      0.97190972E-16     -0.92742426E-24
    0.171195400196         0.29229452E-08      0.92226207E-07     -0.95110240E-15      0.97594558E-16     -0.10064647E-23      0.97344254E-16     -0.92900501E-24
    0.172766000197         0.29799981E-08      0.75391829E-07      0.26974805E-14      0.80598076E-16      0.28837572E-23      0.97470841E-16     -0.92447578E-24
    0.174336600199         0.30376909E-08      0.59446052E-07      0.14441375E-14      0.64197881E-16      0.15595749E-23      0.97571670E-16     -0.92202631E-24
    0.175907200201         0.30960266E-08      0.50315128E-07     -0.88508542E-15      0.54886094E-16     -0.96549257E-24      0.97657874E-16     -0.92354272E-24
    0.177477800203         0.31550088E-08      0.41661596E-07     -0.19225845E-14      0.45902370E-16     -0.21182862E-23      0.97729969E-16     -0.92686970E-24
    0.179048400205         0.32146406E-08      0.52912250E-07      0.23596712E-14      0.58879063E-16      0.26257668E-23      0.97822444E-16     -0.92274567E-24
    0.180619000206         0.32749256E-08      0.63733656E-07     -0.70450312E-15      0.71622506E-16     -0.79170539E-24      0.97934934E-16     -0.92398912E-24
    0.182189600208         0.33358672E-08      0.76350295E-07     -0.56970176E-16      0.86644015E-16     -0.64651023E-25      0.98071018E-16     -0.92409066E-24
    0.183760200210         0.33974688E-08      0.88620653E-07     -0.12911966E-14      0.10155040E-15     -0.14795821E-23      0.98230513E-16     -0.92641449E-24
    0.185330800212         0.34597339E-08      0.10146067E-06     -0.15424202E-14      0.11739118E-15     -0.17845983E-23      0.98414887E-16     -0.92921738E-24
    0.186901400214         0.35226661E-08      0.11399718E-06     -0.89725243E-15      0.13316672E-15     -0.10481326E-23      0.98624039E-16     -0.93086358E-24
    0.188472000215         0.35862688E-08      0.12580539E-06     -0.52678746E-15      0.14836720E-15     -0.62126102E-24      0.98857064E-16     -0.93183933E-24
    0.190042600217         0.36505458E-08      0.13734499E-06     -0.69648174E-15      0.16351678E-15     -0.82919991E-24      0.99113884E-16     -0.93314167E-24
    0.191613200219         0.37155006E-08      0.14825728E-06     -0.10014330E-14      0.17817658E-15     -0.12035288E-23      0.99393728E-16     -0.93503194E-24
