 
 # six columns.
 # Omega (column 1); |pulse ft|^2 (2); cross section (Mb) (3); flux (column 5)
 
  0.0000      0.103411E-10      0.000000E+00      0.000000E+00      0.110144E-06      0.406576E-19
  0.0063      0.406993E-10      0.200805E+02      0.848784E-11      0.101407E-06      0.428638E-19
  0.0126      0.131874E-09      0.111883E+02      0.450378E-11      0.915376E-07      0.368479E-19
  0.0188      0.284166E-09      0.769306E+01      0.278022E-11      0.904184E-07      0.326765E-19
  0.0251      0.498076E-09      0.587860E+01      0.296952E-11      0.908272E-07      0.458806E-19
  0.0314      0.774308E-09      0.476651E+01      0.127161E-11      0.915906E-07      0.244345E-19
  0.0377      0.111377E-08      0.401491E+01      0.214957E-11      0.924753E-07      0.495109E-19
  0.0439      0.151756E-08      0.347336E+01      0.161548E-11      0.934339E-07      0.434568E-19
  0.0502      0.198701E-08      0.306863E+01      0.156032E-11      0.945716E-07      0.480873E-19
  0.0565      0.252362E-08      0.275180E+01      0.128424E-11      0.957427E-07      0.446822E-19
  0.0628      0.312914E-08      0.249591E+01      0.103836E-11      0.969084E-07      0.403164E-19
  0.0690      0.380551E-08      0.228605E+01      0.922331E-12      0.981323E-07      0.395926E-19
  0.0753      0.455488E-08      0.210996E+01      0.417050E-12      0.993748E-07      0.196422E-19
  0.0816      0.537962E-08      0.196077E+01      0.835026E-12      0.100680E-06      0.428761E-19
  0.0879      0.628233E-08      0.183150E+01      0.663230E-12      0.101978E-06      0.369287E-19
  0.0942      0.726582E-08      0.171953E+01      0.629253E-12      0.103350E-06      0.378204E-19
  0.1004      0.833314E-08      0.162023E+01      0.491988E-12      0.104706E-06      0.317943E-19
  0.1067      0.948756E-08      0.153276E+01      0.647863E-12      0.106142E-06      0.448638E-19
  0.1130      0.107326E-07      0.145393E+01      0.709448E-12      0.107568E-06      0.524879E-19
  0.1193      0.120720E-07      0.138355E+01      0.198514E-12      0.109075E-06      0.156503E-19
  0.1255      0.135097E-07      0.131926E+01      0.485906E-12      0.110574E-06      0.407262E-19
  0.1318      0.150500E-07      0.126125E+01      0.426489E-12      0.112156E-06      0.379254E-19
  0.1381      0.166973E-07      0.120771E+01      0.309585E-12      0.113735E-06      0.291548E-19
  0.1444      0.184564E-07      0.115893E+01      0.412620E-12      0.115394E-06      0.410844E-19
  0.1506      0.203324E-07      0.111370E+01      0.380905E-12      0.117072E-06      0.400405E-19
  0.1569      0.223303E-07      0.107217E+01      0.379859E-12      0.118830E-06      0.421002E-19
  0.1632      0.244559E-07      0.103326E+01      0.966571E-13      0.120594E-06      0.112811E-19
  0.1695      0.267149E-07      0.997333E+00      0.336583E-12      0.122444E-06      0.413226E-19
  0.1758      0.291133E-07      0.963547E+00      0.201437E-12      0.124312E-06      0.259884E-19
  0.1820      0.316576E-07      0.932148E+00      0.974522E-13      0.126262E-06      0.132001E-19
  0.1883      0.343544E-07      0.902612E+00      0.175238E-12      0.128254E-06      0.248998E-19
  0.1946      0.372107E-07      0.875061E+00      0.147252E-12      0.130332E-06      0.219319E-19
  0.2009      0.402337E-07      0.848782E+00      0.196477E-12      0.132417E-06      0.306520E-19
  0.2071      0.434310E-07      0.824185E+00      0.133624E-13      0.134591E-06      0.218210E-20
  0.2134      0.468103E-07      0.800920E+00      0.204083E-12      0.136823E-06      0.348640E-19
  0.2197      0.503800E-07      0.779016E+00      0.221247E-12      0.139137E-06      0.395161E-19
  0.2260      0.541485E-07      0.758215E+00      0.243376E-12      0.141509E-06      0.454221E-19
  0.2322      0.581245E-07      0.738573E+00      0.207750E-12      0.143965E-06      0.404955E-19
  0.2385      0.623173E-07      0.719923E+00      0.203481E-12      0.146493E-06      0.414054E-19
  0.2448      0.667362E-07      0.702271E+00      0.252121E-12      0.149111E-06      0.535318E-19
  0.2511      0.713911E-07      0.685475E+00      0.898979E-13      0.151804E-06      0.199086E-19
  0.2574      0.762921E-07      0.669556E+00      0.261515E-12      0.154593E-06      0.603809E-19
  0.2636      0.814497E-07      0.654424E+00      0.177888E-12      0.157473E-06      0.428049E-19
  0.2699      0.868745E-07      0.640070E+00      0.139747E-12      0.160457E-06      0.350328E-19
  0.2762      0.925779E-07      0.626388E+00      0.143908E-12      0.163533E-06      0.375705E-19
  0.2825      0.985713E-07      0.613431E+00      0.117803E-12      0.166729E-06      0.320185E-19
  0.2887      0.104866E-06      0.601047E+00      0.157325E-12      0.170018E-06      0.445023E-19
  0.2950      0.111476E-06      0.589371E+00      0.779683E-13      0.173451E-06      0.229460E-19
  0.3013      0.118411E-06      0.578076E+00      0.176669E-12      0.176947E-06      0.540778E-19
  0.3076      0.125686E-06      0.567555E+00      0.132038E-12      0.180637E-06      0.420241E-19
  0.3138      0.133314E-06      0.556910E+00      0.990210E-13      0.184246E-06      0.327597E-19
  0.3201      0.141308E-06      0.548121E+00      0.107087E-12      0.188442E-06      0.368162E-19
  0.3264      0.149682E-06      0.543519E+00      0.500059E-13      0.194127E-06      0.178605E-19
  0.3327      0.158450E-06      0.534960E+00      0.127370E-12      0.198447E-06      0.472486E-19
  0.3390      0.167627E-06      0.525067E+00      0.486205E-14      0.202242E-06      0.187274E-20
  0.3452      0.177228E-06      0.517548E+00      0.112412E-12      0.206932E-06      0.449457E-19
  0.3515      0.187269E-06      0.510435E+00      0.110328E-12      0.211799E-06      0.457795E-19
  0.3578      0.197764E-06      0.504122E+00      0.767491E-13      0.217027E-06      0.330409E-19
  0.3641      0.208730E-06      0.498137E+00      0.779790E-13      0.222440E-06      0.348210E-19
  0.3703      0.220183E-06      0.492941E+00      0.474164E-13      0.228262E-06      0.219567E-19
  0.3766      0.232140E-06      0.487617E+00      0.967935E-13      0.234091E-06      0.464677E-19
  0.3829      0.244617E-06      0.483187E+00      0.458690E-13      0.240425E-06      0.228236E-19
  0.3892      0.257632E-06      0.478995E+00      0.864139E-13      0.246971E-06      0.445553E-19
  0.3954      0.271203E-06      0.475727E+00      0.493570E-13      0.254108E-06      0.263639E-19
  0.4017      0.285347E-06      0.472453E+00      0.771525E-13      0.261372E-06      0.426825E-19
  0.4080      0.300082E-06      0.470360E+00      0.502281E-13      0.269441E-06      0.287727E-19
  0.4143      0.315427E-06      0.468113E+00      0.272505E-13      0.277595E-06      0.161598E-19
  0.4206      0.331400E-06      0.467497E+00      0.647146E-13      0.286922E-06      0.397179E-19
  0.4268      0.348020E-06      0.466352E+00      0.414318E-13      0.296153E-06      0.263110E-19
  0.4331      0.365307E-06      0.467883E+00      0.814532E-13      0.307364E-06      0.535087E-19
  0.4394      0.383280E-06      0.468067E+00      0.429345E-13      0.318004E-06      0.291697E-19
  0.4457      0.401958E-06      0.474270E+00      0.547691E-13      0.333162E-06      0.384738E-19
  0.4519      0.421362E-06      0.476928E+00      0.424665E-13      0.346324E-06      0.308373E-19
  0.4582      0.441511E-06      0.512970E+00      0.328731E-13      0.384961E-06      0.246698E-19
  0.4645      0.462426E-06      0.660285E+00      0.513772E-13      0.511975E-06      0.398370E-19
  0.4708      0.484126E-06      0.604190E+00      0.283553E-13      0.483925E-06      0.227111E-19
  0.4770      0.506633E-06      0.483119E+00      0.660821E-13      0.399614E-06      0.546601E-19
  0.4833      0.529967E-06      0.493274E+00      0.315370E-13      0.421263E-06      0.269330E-19
  0.4896      0.554149E-06      0.504557E+00      0.335551E-13      0.444784E-06      0.295800E-19
  0.4959      0.579200E-06      0.519707E+00      0.141264E-13      0.472788E-06      0.128511E-19
  0.5022      0.605141E-06      0.560688E+00     -0.394825E-15      0.526253E-06     -0.370577E-21
  0.5084      0.631993E-06      0.645438E+00      0.375667E-13      0.624868E-06      0.363695E-19
  0.5147      0.659776E-06      0.123694E+01      0.239148E-13      0.123492E-05      0.238757E-19
  0.5210      0.688513E-06      0.217400E+01     -0.343571E-13      0.223769E-05     -0.353636E-19
  0.5273      0.718224E-06      0.199687E+01     -0.528931E-14      0.211854E-05     -0.561159E-20
  0.5335      0.748930E-06      0.199189E+01      0.415469E-13      0.217768E-05      0.454221E-19
  0.5398      0.780652E-06      0.247400E+01     -0.629824E-13      0.278654E-05     -0.709390E-19
  0.5461      0.813412E-06      0.299339E+01     -0.192573E-13      0.347265E-05     -0.223405E-19
  0.5524      0.847230E-06      0.328088E+01     -0.117879E-12      0.391937E-05     -0.140819E-18
  0.5586      0.882128E-06      0.352686E+01     -0.797211E-13      0.433747E-05     -0.980441E-19
  0.5649      0.918125E-06      0.373016E+01     -0.210955E-12      0.472164E-05     -0.267027E-18
  0.5712      0.955242E-06      0.395833E+01     -0.143881E-12      0.515573E-05     -0.187406E-18
  0.5775      0.993501E-06      0.434626E+01     -0.318124E-12      0.582375E-05     -0.426269E-18
  0.5838      0.103292E-05      0.475956E+01      0.230484E-14      0.655930E-05      0.317637E-20
  0.5900      0.107352E-05      0.548082E+01      0.118950E-12      0.776666E-05      0.168560E-18
  0.5963      0.111532E-05      0.603739E+01     -0.741358E-13      0.879491E-05     -0.107997E-18
  0.6026      0.115834E-05      0.728504E+01      0.192357E-13      0.109070E-04      0.287991E-19
  0.6089      0.120260E-05      0.823003E+01     -0.245022E-12      0.126607E-04     -0.376930E-18
  0.6151      0.124812E-05      0.114187E+02     -0.118456E-12      0.180447E-04     -0.187194E-18
  0.6214      0.129491E-05      0.146996E+02     -0.696741E-12      0.238570E-04     -0.113079E-17
  0.6277      0.134299E-05      0.380376E+02     -0.105116E-11      0.633860E-04     -0.175166E-17
  0.6340      0.139239E-05      0.644251E+02     -0.413169E-11      0.110205E-03     -0.706764E-17
  0.6402      0.144312E-05      0.448334E+02     -0.193190E-11      0.787065E-04     -0.339152E-17
  0.6465      0.149519E-05      0.146966E+02     -0.330119E-12      0.264718E-04     -0.594617E-18
  0.6528      0.154863E-05      0.634110E+01     -0.344974E-12      0.117161E-04     -0.637392E-18
  0.6591      0.160344E-05      0.601180E+01     -0.200714E-12      0.113913E-04     -0.380318E-18
  0.6654      0.165964E-05      0.637418E+01     -0.449514E-12      0.123834E-04     -0.873291E-18
  0.6716      0.171725E-05      0.760887E+01      0.527430E-13      0.151523E-04      0.105032E-18
  0.6779      0.177628E-05      0.858237E+01     -0.256088E-12      0.175147E-04     -0.522619E-18
  0.6842      0.183675E-05      0.154680E+02     -0.156371E-12      0.323418E-04     -0.326955E-18
  0.6905      0.189866E-05      0.310647E+02      0.267353E-12      0.665319E-04      0.572594E-18
  0.6967      0.196203E-05      0.337492E+02     -0.906793E-12      0.740208E-04     -0.198883E-17
  0.7030      0.202687E-05      0.247875E+02     -0.146358E-12      0.556606E-04     -0.328649E-18
  0.7093      0.209319E-05      0.250605E+02     -0.104955E-11      0.576007E-04     -0.241235E-17
  0.7156      0.216100E-05      0.350087E+02     -0.751923E-12      0.823442E-04     -0.176860E-17
  0.7218      0.223031E-05      0.453650E+02     -0.262441E-11      0.109168E-03     -0.631548E-17
  0.7281      0.230113E-05      0.461769E+02     -0.170959E-11      0.113662E-03     -0.420806E-17
  0.7344      0.237346E-05      0.427874E+02     -0.315781E-11      0.107701E-03     -0.794856E-17
  0.7407      0.244730E-05      0.425894E+02     -0.223029E-11      0.109601E-03     -0.573950E-17
  0.7470      0.252268E-05      0.428163E+02     -0.135762E-11      0.112624E-03     -0.357109E-17
  0.7532      0.259958E-05      0.457945E+02     -0.310579E-11      0.123096E-03     -0.834836E-17
  0.7595      0.267802E-05      0.463570E+02      0.466355E-12      0.127306E-03      0.128071E-17
  0.7658      0.275799E-05      0.402169E+02     -0.106051E-11      0.112810E-03     -0.297478E-17
  0.7721      0.283950E-05      0.395364E+02     -0.224735E-12      0.113251E-03     -0.643745E-18
  0.7783      0.292255E-05      0.440766E+02     -0.186989E-11      0.128901E-03     -0.546844E-17
  0.7846      0.300714E-05      0.446662E+02     -0.942082E-12      0.133330E-03     -0.281215E-17
  0.7909      0.309326E-05      0.453844E+02     -0.260937E-11      0.138248E-03     -0.794856E-17
  0.7972      0.318091E-05      0.456684E+02     -0.168109E-11      0.141929E-03     -0.522450E-17
  0.8034      0.327009E-05      0.459296E+02     -0.726796E-12      0.145596E-03     -0.230393E-17
  0.8097      0.336080E-05      0.459286E+02     -0.240433E-11      0.148472E-03     -0.777237E-17
  0.8160      0.345302E-05      0.456521E+02     -0.144333E-11      0.150461E-03     -0.475694E-17
  0.8223      0.354676E-05      0.452170E+02     -0.308210E-11      0.151904E-03     -0.103541E-16
  0.8286      0.364199E-05      0.444529E+02     -0.208226E-11      0.152185E-03     -0.712863E-17
  0.8348      0.373872E-05      0.436836E+02     -0.361347E-11      0.152369E-03     -0.126039E-16
  0.8411      0.383693E-05      0.426145E+02     -0.263580E-11      0.151406E-03     -0.936480E-17
  0.8474      0.393661E-05      0.416316E+02     -0.406962E-11      0.150633E-03     -0.147248E-16
  0.8537      0.403775E-05      0.403712E+02     -0.831422E-12      0.148723E-03     -0.306287E-17
  0.8599      0.414033E-05      0.392300E+02      0.126493E-13      0.147109E-03      0.474338E-19
  0.8662      0.424433E-05      0.378382E+02     -0.137434E-11      0.144400E-03     -0.524483E-17
  0.8725      0.434975E-05      0.365875E+02     -0.553215E-12      0.142065E-03     -0.214808E-17
  0.8788      0.445655E-05      0.351266E+02     -0.178936E-11      0.138744E-03     -0.706764E-17
  0.8850      0.456472E-05      0.338312E+02     -0.101551E-11      0.135900E-03     -0.407931E-17
  0.8913      0.467425E-05      0.323530E+02     -0.213520E-11      0.132143E-03     -0.872105E-17
  0.8976      0.478510E-05      0.310586E+02     -0.141334E-11      0.128957E-03     -0.586824E-17
  0.9039      0.489725E-05      0.295472E+02     -0.727431E-12      0.124684E-03     -0.306965E-17
  0.9102      0.501068E-05      0.282210E+02     -0.172733E-11      0.121007E-03     -0.740646E-17
  0.9164      0.512537E-05      0.264574E+02     -0.105784E-11      0.115246E-03     -0.460786E-17
  0.9227      0.524128E-05      0.248110E+02     -0.188854E-11      0.109767E-03     -0.835513E-17
  0.9290      0.535839E-05      0.222725E+02     -0.122933E-11      0.100057E-03     -0.552265E-17
  0.9353      0.547667E-05      0.267524E+02     -0.244262E-11      0.122011E-03     -0.111402E-16
  0.9415      0.559608E-05      0.333507E+02     -0.465498E-12      0.154385E-03     -0.215485E-17
  0.9478      0.571660E-05      0.303908E+02     -0.152042E-11      0.142761E-03     -0.714218E-17
  0.9541      0.583818E-05      0.274576E+02     -0.816134E-12      0.130859E-03     -0.388958E-17
  0.9604      0.596080E-05      0.262793E+02     -0.222878E-12      0.127038E-03     -0.107743E-17
  0.9666      0.608441E-05      0.250929E+02     -0.112238E-11      0.123014E-03     -0.550233E-17
  0.9729      0.620899E-05      0.243711E+02     -0.584860E-12      0.121135E-03     -0.290702E-17
  0.9792      0.633449E-05      0.236190E+02     -0.141486E-11      0.119002E-03     -0.712863E-17
  0.9855      0.646087E-05      0.231116E+02     -0.909040E-12      0.118012E-03     -0.464174E-17
  0.9918      0.658808E-05      0.227095E+02     -0.171444E-11      0.117494E-03     -0.887013E-17
  0.9980      0.671610E-05      0.231425E+02     -0.127867E-11      0.121293E-03     -0.670172E-17
  1.0043      0.684487E-05      0.229117E+02     -0.208461E-11      0.121621E-03     -0.110656E-16
  1.0106      0.697435E-05      0.218991E+02     -0.153929E-11      0.117709E-03     -0.827382E-17
  1.0169      0.710449E-05      0.218260E+02     -0.107841E-11      0.118768E-03     -0.586824E-17
  1.0231      0.723525E-05      0.221185E+02     -0.188854E-11      0.121823E-03     -0.104016E-16
  1.0294      0.736657E-05      0.224806E+02     -0.183586E-12      0.125296E-03     -0.102322E-17
  1.0357      0.749841E-05      0.221726E+02     -0.979390E-12      0.125028E-03     -0.552265E-17
  1.0420      0.763073E-05      0.216445E+02     -0.174521E-11      0.123456E-03     -0.995433E-17
  1.0482      0.776346E-05      0.215083E+02     -0.599122E-13      0.124065E-03     -0.345589E-18
  1.0545      0.789655E-05      0.213418E+02     -0.823762E-12      0.124470E-03     -0.480437E-17
  1.0608      0.802996E-05      0.212108E+02     -0.158382E-11      0.125052E-03     -0.933769E-17
  1.0671      0.816362E-05      0.209947E+02      0.625479E-13      0.125098E-03      0.372694E-18
  1.0734      0.829749E-05      0.208068E+02     -0.696665E-12      0.125274E-03     -0.419451E-17
  1.0796      0.843150E-05      0.206115E+02     -0.142933E-11      0.125370E-03     -0.869395E-17
  1.0859      0.856560E-05      0.204542E+02     -0.216958E-11      0.125661E-03     -0.133289E-16
  1.0922      0.869974E-05      0.202901E+02     -0.566884E-12      0.125877E-03     -0.351688E-17
  1.0985      0.883385E-05      0.201404E+02     -0.128309E-11      0.126150E-03     -0.803665E-17
  1.1047      0.896787E-05      0.199768E+02     -0.199459E-11      0.126302E-03     -0.126106E-16
  1.1110      0.910176E-05      0.198178E+02     -0.268797E-11      0.126449E-03     -0.171507E-16
  1.1173      0.923543E-05      0.196491E+02     -0.114203E-11      0.126499E-03     -0.735225E-17
  1.1236      0.936885E-05      0.194855E+02     -0.184056E-11      0.126547E-03     -0.119533E-16
  1.1298      0.950193E-05      0.193160E+02     -0.252943E-11      0.126521E-03     -0.165680E-16
  1.1361      0.963463E-05      0.191506E+02     -0.101569E-11      0.126487E-03     -0.670850E-17
  1.1424      0.976688E-05      0.189777E+02     -0.168421E-11      0.126367E-03     -0.112147E-16
  1.1487      0.989861E-05      0.188058E+02     -0.234536E-11      0.126218E-03     -0.157413E-16
  1.1550      0.100298E-04      0.186228E+02     -0.299458E-11      0.125958E-03     -0.202543E-16
  1.1612      0.101603E-04      0.184382E+02      0.559832E-12      0.125649E-03      0.381504E-17
  1.1675      0.102901E-04      0.182398E+02     -0.105624E-12      0.125208E-03     -0.725060E-18
  1.1738      0.104191E-04      0.180382E+02     -0.763538E-12      0.124707E-03     -0.527871E-17
  1.1801      0.105474E-04      0.178219E+02      0.635639E-12      0.124065E-03      0.442490E-17
  1.1863      0.106747E-04      0.176034E+02     -0.773536E-14      0.123366E-03     -0.542101E-19
  1.1926      0.108010E-04      0.173769E+02     -0.635960E-12      0.122572E-03     -0.448589E-17
  1.1989      0.109264E-04      0.171637E+02     -0.124295E-11      0.121832E-03     -0.882270E-17
  1.2052      0.110506E-04      0.169953E+02      0.844479E-13      0.121372E-03      0.603087E-18
  1.2114      0.111737E-04      0.169666E+02     -0.527298E-12      0.121882E-03     -0.378793E-17
  1.2177      0.112956E-04      0.173804E+02     -0.117994E-11      0.125566E-03     -0.852454E-17
  1.2240      0.114161E-04      0.189934E+02      0.192161E-12      0.137973E-03      0.139591E-17
  1.2303      0.115354E-04      0.231096E+02     -0.603144E-12      0.168762E-03     -0.440457E-17
  1.2366      0.116532E-04      0.272943E+02     -0.169503E-11      0.200336E-03     -0.124412E-16
  1.2428      0.117696E-04      0.273929E+02     -0.268637E-11      0.202041E-03     -0.198138E-16
  1.2491      0.118844E-04      0.250271E+02     -0.517579E-12      0.185456E-03     -0.383537E-17
  1.2554      0.119976E-04      0.228998E+02     -0.130365E-11      0.170453E-03     -0.970361E-17
