 
 # Omega; pulse ft; proj flux t=    500.250000000000     
    0.000000000000         0.23733438E-09      0.00000000E+00      0.00000000E+00      0.16176066E-08     -0.55395955E-18      0.80799528E-12     -0.27670307E-21
    0.006276908399         0.26847166E-09      0.52297751E-01     -0.16627625E-10      0.17421607E-08     -0.55390519E-18      0.16782054E-11     -0.55337899E-21
    0.012553816798         0.36198451E-09      0.83360824E-01     -0.24684902E-10      0.18720987E-08     -0.55436800E-18      0.26133197E-11     -0.83028608E-21
    0.018830725196         0.51817601E-09      0.88825047E-01     -0.25854762E-10      0.19036988E-08     -0.55411938E-18      0.35642182E-11     -0.11070690E-20
    0.025107633595         0.73755180E-09      0.84407481E-01     -0.24219649E-10      0.19311688E-08     -0.55412420E-18      0.45288379E-11     -0.13838543E-20
    0.031384541994         0.10208207E-08      0.77015913E-01     -0.21885221E-10      0.19510423E-08     -0.55441778E-18      0.55033845E-11     -0.16607863E-20
    0.037661450393         0.13688958E-08      0.69595705E-01     -0.19572396E-10      0.19701909E-08     -0.55407668E-18      0.64874959E-11     -0.19375478E-20
    0.043938358791         0.17828953E-08      0.62860236E-01     -0.17534249E-10      0.19866006E-08     -0.55414285E-18      0.74798039E-11     -0.22143425E-20
    0.050215267190         0.22641447E-08      0.57101010E-01     -0.15785514E-10      0.20052325E-08     -0.55434441E-18      0.84814185E-11     -0.24912378E-20
    0.056492175589         0.28141777E-08      0.52084430E-01     -0.14284644E-10      0.20208016E-08     -0.55422379E-18      0.94908099E-11     -0.27680728E-20
    0.062769083988         0.34347388E-08      0.47941528E-01     -0.13001954E-10      0.20432069E-08     -0.55412674E-18      0.10511393E-10     -0.30448594E-20
    0.069045992387         0.41277855E-08      0.44341107E-01     -0.11896485E-10      0.20646085E-08     -0.55392358E-18      0.11542666E-10     -0.33215445E-20
    0.075322900785         0.48954902E-08      0.41118131E-01     -0.10957136E-10      0.20813976E-08     -0.55464964E-18      0.12582325E-10     -0.35985923E-20
    0.081599809184         0.57402438E-08      0.38310946E-01     -0.10107507E-10      0.20990202E-08     -0.55378068E-18      0.13630787E-10     -0.38752060E-20
    0.087876717583         0.66646579E-08      0.35847493E-01     -0.93851988E-11      0.21174607E-08     -0.55437042E-18      0.14688459E-10     -0.41521143E-20
    0.094153625982         0.76715684E-08      0.33662273E-01     -0.87391183E-11      0.21362058E-08     -0.55458391E-18      0.15755495E-10     -0.44291293E-20
    0.100430534380         0.87640384E-08      0.31696674E-01     -0.81544118E-11      0.21542928E-08     -0.55422189E-18      0.16831565E-10     -0.47059634E-20
    0.106707442779         0.99453622E-08      0.29936324E-01     -0.76353400E-11      0.21730860E-08     -0.55425141E-18      0.17917023E-10     -0.49828122E-20
    0.112984351178         0.11219069E-07      0.28337976E-01     -0.71714609E-11      0.21915929E-08     -0.55462403E-18      0.19011725E-10     -0.52598472E-20
    0.119261259577         0.12588925E-07      0.26890790E-01     -0.67476589E-11      0.22107792E-08     -0.55474695E-18      0.20116010E-10     -0.55369436E-20
    0.125538167976         0.14058942E-07      0.25567064E-01     -0.63527764E-11      0.22300277E-08     -0.55410614E-18      0.21229910E-10     -0.58137199E-20
    0.131815076374         0.15633376E-07      0.24357750E-01     -0.59994202E-11      0.22499734E-08     -0.55417829E-18      0.22353773E-10     -0.60905322E-20
    0.138091984773         0.17316734E-07      0.23244074E-01     -0.56750381E-11      0.22701905E-08     -0.55426677E-18      0.23487734E-10     -0.63673888E-20
    0.144368893172         0.19113780E-07      0.22221316E-01     -0.53728361E-11      0.22913703E-08     -0.55402466E-18      0.24632275E-10     -0.66441244E-20
    0.150645801571         0.21029537E-07      0.21265679E-01     -0.50960649E-11      0.23120887E-08     -0.55406432E-18      0.25787164E-10     -0.69208798E-20
    0.156922709970         0.23069292E-07      0.20385200E-01     -0.48395066E-11      0.23340814E-08     -0.55411780E-18      0.26953039E-10     -0.71976619E-20
    0.163199618368         0.25238602E-07      0.19555198E-01     -0.46027746E-11      0.23553796E-08     -0.55439384E-18      0.28129552E-10     -0.74745819E-20
    0.169476526767         0.27543295E-07      0.18789945E-01     -0.43771594E-11      0.23783973E-08     -0.55405292E-18      0.29317563E-10     -0.77513316E-20
    0.175753435166         0.29989481E-07      0.18062792E-01     -0.41717258E-11      0.24005047E-08     -0.55441302E-18      0.30516616E-10     -0.80282612E-20
    0.182030343565         0.32583550E-07      0.17391602E-01     -0.39760559E-11      0.24246370E-08     -0.55431883E-18      0.31727724E-10     -0.83051437E-20
    0.188307251963         0.35332181E-07      0.16747426E-01     -0.37960682E-11      0.24473947E-08     -0.55474059E-18      0.32950198E-10     -0.85822369E-20
    0.194584160362         0.38242343E-07      0.16153021E-01     -0.36242600E-11      0.24725399E-08     -0.55476481E-18      0.34185233E-10     -0.88593422E-20
    0.200861068761         0.41321305E-07      0.15578067E-01     -0.34622252E-11      0.24959988E-08     -0.55473570E-18      0.35431986E-10     -0.91364330E-20
    0.207137977160         0.44576634E-07      0.15047449E-01     -0.33118554E-11      0.25221039E-08     -0.55510028E-18      0.36691778E-10     -0.94137058E-20
    0.213414885559         0.48016203E-07      0.14531259E-01     -0.31650057E-11      0.25463547E-08     -0.55461312E-18      0.37963684E-10     -0.96907354E-20
    0.219691793957         0.51648196E-07      0.14054651E-01     -0.30254295E-11      0.25734392E-08     -0.55396317E-18      0.39249118E-10     -0.99674402E-20
    0.225968702356         0.55481108E-07      0.13588859E-01     -0.28990236E-11      0.25985576E-08     -0.55437179E-18      0.40547099E-10     -0.10244349E-19
    0.232245610755         0.59523755E-07      0.13158386E-01     -0.27751794E-11      0.26266244E-08     -0.55397020E-18      0.41859099E-10     -0.10521058E-19
    0.238522519154         0.63785271E-07      0.12735944E-01     -0.26574386E-11      0.26526179E-08     -0.55348619E-18      0.43184083E-10     -0.10797524E-19
    0.244799427552         0.68275117E-07      0.12344899E-01     -0.25494214E-11      0.26815886E-08     -0.55379142E-18      0.44523538E-10     -0.11074143E-19
    0.251076335951         0.73003082E-07      0.11960389E-01     -0.24473885E-11      0.27085276E-08     -0.55423107E-18      0.45876448E-10     -0.11350982E-19
    0.257353244350         0.77979284E-07      0.11603629E-01     -0.23477396E-11      0.27383942E-08     -0.55405395E-18      0.47244278E-10     -0.11627732E-19
    0.263630152749         0.83214178E-07      0.11253929E-01     -0.22547748E-11      0.27666802E-08     -0.55431668E-18      0.48626236E-10     -0.11904614E-19
    0.269907061148         0.88718553E-07      0.10927455E-01     -0.21659622E-11      0.27975108E-08     -0.55450264E-18      0.50023594E-10     -0.12181588E-19
    0.276183969546         0.94503538E-07      0.10608530E-01     -0.20790123E-11      0.28272054E-08     -0.55406305E-18      0.51435784E-10     -0.12458343E-19
    0.282460877945         0.10058060E-06      0.10309298E-01     -0.19977488E-11      0.28591540E-08     -0.55405049E-18      0.52863933E-10     -0.12735091E-19
    0.288737786344         0.10696156E-06      0.10018459E-01     -0.19207000E-11      0.28905306E-08     -0.55416128E-18      0.54307755E-10     -0.13011895E-19
    0.295014694743         0.11365856E-06      0.97440545E-02     -0.18474739E-11      0.29238206E-08     -0.55435675E-18      0.55768205E-10     -0.13288797E-19
    0.301291603141         0.12068410E-06      0.94784792E-02     -0.17769267E-11      0.29570197E-08     -0.55435132E-18      0.57245237E-10     -0.13565695E-19
    0.307568511540         0.12805103E-06      0.92256689E-02     -0.17094350E-11      0.29915179E-08     -0.55430185E-18      0.58739502E-10     -0.13842569E-19
    0.313845419939         0.13577253E-06      0.89903020E-02     -0.16461866E-11      0.30291650E-08     -0.55466110E-18      0.60252572E-10     -0.14119623E-19
    0.320122328338         0.14386214E-06      0.87563418E-02     -0.15843594E-11      0.30648257E-08     -0.55454498E-18      0.61783454E-10     -0.14396618E-19
    0.326399236737         0.15233372E-06      0.84736934E-02     -0.15244018E-11      0.30801523E-08     -0.55411371E-18      0.63321991E-10     -0.14673399E-19
    0.332676145135         0.16120149E-06      0.82524801E-02     -0.14680916E-11      0.31144720E-08     -0.55405529E-18      0.64877671E-10     -0.14950149E-19
    0.338953053534         0.17048002E-06      0.80692055E-02     -0.14164625E-11      0.31609472E-08     -0.55487038E-18      0.66456566E-10     -0.15227307E-19
    0.345229961933         0.18018417E-06      0.78720320E-02     -0.13631308E-11      0.31999822E-08     -0.55411289E-18      0.68054959E-10     -0.15504087E-19
    0.351506870332         0.19032920E-06      0.76842611E-02     -0.13138077E-11      0.32406061E-08     -0.55405891E-18      0.69673643E-10     -0.15780840E-19
    0.357783778731         0.20093064E-06      0.74998103E-02     -0.12671576E-11      0.32804115E-08     -0.55425382E-18      0.71312210E-10     -0.16057690E-19
    0.364060687129         0.21200438E-06      0.73291992E-02     -0.12229679E-11      0.33241461E-08     -0.55467506E-18      0.72972623E-10     -0.16334750E-19
    0.370337595528         0.22356662E-06      0.71653508E-02     -0.11796974E-11      0.33689856E-08     -0.55466699E-18      0.74655433E-10     -0.16611807E-19
    0.376614503927         0.23563389E-06      0.69945366E-02     -0.11382626E-11      0.34084128E-08     -0.55467134E-18      0.76357937E-10     -0.16888865E-19
    0.382891412326         0.24822301E-06      0.68319588E-02     -0.10983377E-11      0.34495639E-08     -0.55456804E-18      0.78080996E-10     -0.17165872E-19
    0.389168320724         0.26135112E-06      0.66811640E-02     -0.10600628E-11      0.34945524E-08     -0.55446103E-18      0.79826527E-10     -0.17442826E-19
    0.395445229123         0.27503566E-06      0.65339142E-02     -0.10230403E-11      0.35393917E-08     -0.55417627E-18      0.81594454E-10     -0.17719637E-19
    0.401722137522         0.28929433E-06      0.63936666E-02     -0.98784286E-12      0.35860529E-08     -0.55405715E-18      0.83385690E-10     -0.17996389E-19
    0.407999045921         0.30414516E-06      0.62567755E-02     -0.95537735E-12      0.36326610E-08     -0.55468860E-18      0.85200206E-10     -0.18273456E-19
    0.414275954320         0.31960641E-06      0.61269770E-02     -0.92323788E-12      0.36814977E-08     -0.55474309E-18      0.87039116E-10     -0.18550551E-19
    0.420552862718         0.33569662E-06      0.59996368E-02     -0.89204486E-12      0.37299574E-08     -0.55458179E-18      0.88902231E-10     -0.18827565E-19
    0.426829771117         0.35243458E-06      0.58796794E-02     -0.86245841E-12      0.37812030E-08     -0.55464425E-18      0.90790944E-10     -0.19104610E-19
    0.433106679516         0.36983933E-06      0.57606408E-02     -0.83308673E-12      0.38312593E-08     -0.55406532E-18      0.92704660E-10     -0.19381366E-19
    0.439383587915         0.38793013E-06      0.56496916E-02     -0.80579551E-12      0.38849637E-08     -0.55409862E-18      0.94645201E-10     -0.19658138E-19
    0.445660496313         0.40672647E-06      0.55362284E-02     -0.77954861E-12      0.39351820E-08     -0.55410751E-18      0.96610827E-10     -0.19934915E-19
    0.451937404712         0.42624802E-06      0.54322251E-02     -0.75446049E-12      0.39903812E-08     -0.55420843E-18      0.98604024E-10     -0.20211743E-19
    0.458214313111         0.44651466E-06      0.53017850E-02     -0.73003054E-12      0.40238495E-08     -0.55406491E-18      0.10061394E-09     -0.20488498E-19
    0.464491221510         0.46754647E-06      0.51506068E-02     -0.70684319E-12      0.40379246E-08     -0.55414432E-18      0.10263088E-09     -0.20765294E-19
    0.470768129909         0.48936365E-06      0.51258942E-02     -0.68511385E-12      0.41499879E-08     -0.55467671E-18      0.10470381E-09     -0.21042355E-19
    0.477045038307         0.51198657E-06      0.50935236E-02     -0.66318557E-12      0.42576508E-08     -0.55435349E-18      0.10683050E-09     -0.21319255E-19
    0.483321946706         0.53543573E-06      0.49962744E-02     -0.64226226E-12      0.43109169E-08     -0.55416076E-18      0.10898381E-09     -0.21596058E-19
    0.489598855105         0.55973174E-06      0.49154207E-02     -0.62223376E-12      0.43767604E-08     -0.55404578E-18      0.11117000E-09     -0.21872804E-19
    0.495875763504         0.58489532E-06      0.48325197E-02     -0.60361095E-12      0.44394732E-08     -0.55451707E-18      0.11338752E-09     -0.22149786E-19
    0.502152671902         0.61094726E-06      0.47557460E-02     -0.58462408E-12      0.45064975E-08     -0.55398395E-18      0.11563852E-09     -0.22426501E-19
    0.508429580301         0.63790841E-06      0.46747920E-02     -0.56704682E-12      0.45681709E-08     -0.55411382E-18      0.11792032E-09     -0.22703281E-19
    0.514706488700         0.66579967E-06      0.45968388E-02     -0.55057655E-12      0.46312235E-08     -0.55469491E-18      0.12023362E-09     -0.22980352E-19
    0.520983397099         0.69464194E-06      0.45884654E-02     -0.53355836E-12      0.47649365E-08     -0.55407887E-18      0.12261371E-09     -0.23257114E-19
    0.527260305498         0.72445614E-06      0.45369146E-02     -0.51765812E-12      0.48551222E-08     -0.55396534E-18      0.12503885E-09     -0.23533820E-19
    0.533537213896         0.75526319E-06      0.44605925E-02     -0.50219795E-12      0.49178886E-08     -0.55368286E-18      0.12749533E-09     -0.23810385E-19
    0.539814122295         0.78708392E-06      0.43982228E-02     -0.48825756E-12      0.49946672E-08     -0.55447033E-18      0.12999017E-09     -0.24087344E-19
    0.546091030694         0.81993914E-06      0.43380014E-02     -0.47356529E-12      0.50729292E-08     -0.55379494E-18      0.13252410E-09     -0.24363964E-19
    0.552367939093         0.85384956E-06      0.42975887E-02     -0.46034094E-12      0.51740461E-08     -0.55422362E-18      0.13510854E-09     -0.24640799E-19
    0.558644847491         0.88883579E-06      0.42406574E-02     -0.44782905E-12      0.52549848E-08     -0.55494575E-18      0.13773341E-09     -0.24917995E-19
    0.564921755890         0.92491828E-06      0.41966686E-02     -0.43477239E-12      0.53514598E-08     -0.55440809E-18      0.14040647E-09     -0.25194922E-19
    0.571198664289         0.96211735E-06      0.41480752E-02     -0.42241480E-12      0.54417680E-08     -0.55415662E-18      0.14312463E-09     -0.25471724E-19
    0.577475572688         0.10004531E-05      0.41122210E-02     -0.41076215E-12      0.55487112E-08     -0.55425051E-18      0.14589622E-09     -0.25748572E-19
    0.583752481087         0.10399456E-05      0.40659455E-02     -0.39912168E-12      0.56415179E-08     -0.55378315E-18      0.14871416E-09     -0.26025187E-19
    0.590029389485         0.10806144E-05      0.40358471E-02     -0.38803243E-12      0.57568425E-08     -0.55350005E-18      0.15158970E-09     -0.26301661E-19
    0.596306297884         0.11224790E-05      0.39944062E-02     -0.37781306E-12      0.58561689E-08     -0.55390888E-18      0.15451486E-09     -0.26578338E-19
    0.602583206283         0.11655585E-05      0.39634972E-02     -0.36810733E-12      0.59710151E-08     -0.55455429E-18      0.15749739E-09     -0.26855338E-19
    0.608860114682         0.12098719E-05      0.39283278E-02     -0.35760252E-12      0.60796998E-08     -0.55344566E-18      0.16053420E-09     -0.27131785E-19
    0.615137023081         0.12554376E-05      0.38890034E-02     -0.34842241E-12      0.61817885E-08     -0.55383692E-18      0.16362201E-09     -0.27408427E-19
    0.621413931479         0.13022739E-05      0.38723525E-02     -0.33950766E-12      0.63204610E-08     -0.55414504E-18      0.16677908E-09     -0.27685222E-19
    0.627690839878         0.13503983E-05      0.38128002E-02     -0.33067657E-12      0.63887028E-08     -0.55407949E-18      0.16997024E-09     -0.27961985E-19
    0.633967748277         0.13998285E-05      0.50957028E-02     -0.32241184E-12      0.87632315E-08     -0.55446123E-18      0.17434748E-09     -0.28238939E-19
    0.640244656676         0.14505812E-05      0.55709429E-02     -0.31366763E-12      0.98305386E-08     -0.55350088E-18      0.17925784E-09     -0.28515413E-19
    0.646521565074         0.15026729E-05      0.43909102E-02     -0.30634862E-12      0.79485612E-08     -0.55456173E-18      0.18322815E-09     -0.28792417E-19
    0.652798473473         0.15561195E-05      0.41384948E-02     -0.29841036E-12      0.76834943E-08     -0.55402614E-18      0.18706606E-09     -0.29069153E-19
    0.659075381872         0.16109365E-05      0.41182950E-02     -0.29138186E-12      0.78399507E-08     -0.55470029E-18      0.19098212E-09     -0.29346226E-19
    0.665352290271         0.16671388E-05      0.40957945E-02     -0.28426727E-12      0.79930183E-08     -0.55475281E-18      0.19497463E-09     -0.29623326E-19
    0.671629198670         0.17247407E-05      0.42234011E-02     -0.27710989E-12      0.84471286E-08     -0.55424120E-18      0.19919398E-09     -0.29900169E-19
    0.677906107068         0.17837558E-05      0.42884950E-02     -0.27068103E-12      0.87886727E-08     -0.55472304E-18      0.20358392E-09     -0.30177254E-19
    0.684183015467         0.18441971E-05      0.54349325E-02     -0.26391066E-12      0.11409898E-07     -0.55404433E-18      0.20928317E-09     -0.30453999E-19
    0.690459923866         0.19060772E-05      0.77803266E-02     -0.25786804E-12      0.16728322E-07     -0.55443683E-18      0.21763898E-09     -0.30730941E-19
    0.696736832265         0.19694076E-05      0.91712113E-02     -0.25199492E-12      0.20190454E-07     -0.55476770E-18      0.22772412E-09     -0.31008047E-19
    0.703013740663         0.20341994E-05      0.79396045E-02     -0.24585743E-12      0.17892916E-07     -0.55407122E-18      0.23666164E-09     -0.31284806E-19
    0.709290649062         0.21004628E-05      0.63116156E-02     -0.24012433E-12      0.14557401E-07     -0.55383382E-18      0.24393307E-09     -0.31561447E-19
    0.715567557461         0.21682073E-05      0.67656705E-02     -0.23483845E-12      0.15966641E-07     -0.55420687E-18      0.25190842E-09     -0.31838273E-19
    0.721844465860         0.22374415E-05      0.72723148E-02     -0.22978658E-12      0.17556311E-07     -0.55473462E-18      0.26067780E-09     -0.32115363E-19
    0.728121374259         0.23081733E-05      0.76605545E-02     -0.22434587E-12      0.18913739E-07     -0.55390495E-18      0.27012522E-09     -0.32392039E-19
    0.734398282657         0.23804097E-05      0.71462950E-02     -0.22005995E-12      0.18040707E-07     -0.55553781E-18      0.27913657E-09     -0.32669531E-19
    0.740675191056         0.24541568E-05      0.71746024E-02     -0.21480065E-12      0.18515050E-07     -0.55432268E-18      0.28838484E-09     -0.32946415E-19
    0.746952099455         0.25294198E-05      0.70759013E-02     -0.21028834E-12      0.18662184E-07     -0.55462046E-18      0.29770661E-09     -0.33223448E-19
    0.753229007854         0.26062031E-05      0.74166501E-02     -0.20585552E-12      0.19986721E-07     -0.55474868E-18      0.30768999E-09     -0.33500545E-19
    0.759505916252         0.26845099E-05      0.76359698E-02     -0.20104171E-12      0.21020866E-07     -0.55344256E-18      0.31818992E-09     -0.33776990E-19
    0.765782824651         0.27643427E-05      0.66943105E-02     -0.19721966E-12      0.18821085E-07     -0.55448398E-18      0.32759106E-09     -0.34053955E-19
