 
 # Omega; pulse ft; projected flux at t=    500.250000000000     
    0.000000000000         0.10341091E-10      0.00000000E+00      0.00000000E+00      0.41297013E-09      0.00000000E+00
    0.006276908399         0.40699280E-10      0.11033091E+00     -0.10418780E-13      0.41788032E-09     -0.39461322E-22
    0.012553816798         0.13187398E-09      0.68847953E-01     -0.20425327E-14      0.42246251E-09     -0.12533321E-22
    0.018830725196         0.28416575E-09      0.48502533E-01     -0.73362780E-14      0.42754607E-09     -0.64668722E-22
    0.025107633595         0.49807598E-09      0.37311242E-01     -0.46000414E-14      0.43235783E-09     -0.53304682E-22
    0.031384541994         0.77430759E-09      0.30365774E-01     -0.45237654E-14      0.43761870E-09     -0.65194595E-22
    0.037661450393         0.11137660E-08      0.25625857E-01     -0.15425727E-14      0.44267921E-09     -0.26647494E-22
    0.043938358791         0.15175606E-08      0.22211172E-01     -0.12388100E-14      0.44811293E-09     -0.24993133E-22
    0.050215267190         0.19870057E-08      0.19617609E-01      0.15210101E-14      0.45344352E-09      0.35156792E-22
    0.056492175589         0.25236231E-08      0.17592602E-01     -0.37333413E-16      0.45907124E-09     -0.97419904E-24
    0.062769083988         0.31291437E-08      0.15957127E-01     -0.15913899E-14      0.46467384E-09     -0.46341501E-22
    0.069045992387         0.38055096E-08      0.14614363E-01     -0.83190623E-15      0.47050911E-09     -0.26783204E-22
    0.075322900785         0.45548772E-08      0.13487129E-01     -0.21569533E-14      0.47641228E-09     -0.76191089E-22
    0.081599809184         0.53796196E-08      0.12528514E-01     -0.45551638E-15      0.48247607E-09     -0.17542045E-22
    0.087876717583         0.62823298E-08      0.11702253E-01     -0.20076445E-14      0.48868631E-09     -0.83839279E-22
    0.094153625982         0.72658239E-08      0.10980995E-01     -0.12032226E-14      0.49499786E-09     -0.54238491E-22
    0.100430534380         0.83331444E-08      0.10347658E-01     -0.10157210E-14      0.50153240E-09     -0.49230171E-22
    0.106707442779         0.94875639E-08      0.97833327E-02      0.83179822E-16      0.50811337E-09      0.43200800E-23
    0.112984351178         0.10732589E-07      0.92810440E-02     -0.44547343E-16      0.51498769E-09     -0.24718483E-23
    0.119261259577         0.12071965E-07      0.88259892E-02     -0.77795771E-15      0.52186211E-09     -0.45998997E-22
    0.125538167976         0.13509678E-07      0.84168487E-02     -0.67449294E-15      0.52909362E-09     -0.42399469E-22
    0.131815076374         0.15049961E-07      0.80410671E-02     -0.27315010E-15      0.53628762E-09     -0.18217361E-22
    0.138091984773         0.16697298E-07      0.77006242E-02     -0.15535904E-14      0.54389800E-09     -0.10973068E-21
    0.144368893172         0.18456429E-07      0.73842684E-02     -0.28868789E-15      0.55143627E-09     -0.21558395E-22
    0.150645801571         0.20332352E-07      0.70959947E-02     -0.74509194E-16      0.55944536E-09     -0.58742748E-23
    0.156922709970         0.22330332E-07      0.68255373E-02     -0.87050019E-15      0.56736172E-09     -0.72358917E-22
    0.163199618368         0.24455902E-07      0.65779387E-02     -0.14745359E-14      0.57579537E-09     -0.12907249E-21
    0.169476526767         0.26714868E-07      0.63437239E-02      0.38748139E-15      0.58411929E-09      0.35678626E-22
    0.175753435166         0.29113317E-07      0.61285155E-02     -0.13078801E-14      0.59300310E-09     -0.12655217E-21
    0.182030343565         0.31657619E-07      0.59235459E-02     -0.15648662E-14      0.60176930E-09     -0.15897377E-21
    0.188307251963         0.34354433E-07      0.57346637E-02     -0.20629200E-14      0.61113548E-09     -0.21984263E-21
    0.194584160362         0.37210710E-07      0.55537030E-02     -0.13747877E-14      0.62037876E-09     -0.15357125E-21
    0.200861068761         0.40233700E-07      0.53864821E-02     -0.11856976E-14      0.63025054E-09     -0.13873370E-21
    0.207137977160         0.43430955E-07      0.52256194E-02     -0.17150379E-14      0.64001658E-09     -0.21005218E-21
    0.213414885559         0.46810335E-07      0.50766706E-02     -0.53787291E-15      0.65044387E-09     -0.68914485E-22
    0.219691793957         0.50380010E-07      0.49328751E-02     -0.12909763E-15      0.66078220E-09     -0.17293245E-22
    0.225968702356         0.54148468E-07      0.47994373E-02      0.60673655E-15      0.67180311E-09      0.84928184E-22
    0.232245610755         0.58124513E-07      0.46702452E-02     -0.11227898E-16      0.68275565E-09     -0.16414365E-23
    0.238522519154         0.62317278E-07      0.45501709E-02     -0.17268106E-15      0.69441740E-09     -0.26353457E-22
    0.244799427552         0.66736218E-07      0.44335805E-02      0.37984046E-16      0.70602421E-09      0.60487582E-23
    0.251076335951         0.71391124E-07      0.43249097E-02     -0.68765878E-15      0.71833873E-09     -0.11421555E-21
    0.257353244350         0.76292116E-07      0.42199655E-02      0.36057333E-15      0.73075654E-09      0.62439212E-22
    0.263630152749         0.81449655E-07      0.41222640E-02     -0.35693607E-15      0.74395004E-09     -0.64416690E-22
    0.269907061148         0.86874540E-07      0.40268788E-02     -0.43356192E-15      0.75711289E-09     -0.81516064E-22
    0.276183969546         0.92577913E-07      0.39378040E-02     -0.84067997E-15      0.77103984E-09     -0.16460894E-21
    0.282460877945         0.98571259E-07      0.38512575E-02     -0.31746230E-15      0.78506996E-09     -0.64713958E-22
    0.288737786344         0.10486641E-06      0.37704596E-02     -0.42645365E-16      0.79990952E-09     -0.90472879E-23
    0.295014694743         0.11147554E-06      0.36919716E-02     -0.26478976E-15      0.81490710E-09     -0.58445480E-22
    0.301291603141         0.11841119E-06      0.36186969E-02      0.11620119E-15      0.83075261E-09      0.26676575E-22
    0.307568511540         0.12568621E-06      0.35476565E-02     -0.19838839E-15      0.84683957E-09     -0.47356090E-22
    0.313845419939         0.13331385E-06      0.34810591E-02     -0.21679496E-15      0.86374327E-09     -0.53792589E-22
    0.320122328338         0.14130766E-06      0.34178165E-02     -0.31799478E-15      0.88127671E-09     -0.81994278E-22
    0.326399236737         0.14968158E-06      0.33569517E-02      0.53363276E-16      0.89924517E-09      0.14294715E-22
    0.332676145135         0.15844985E-06      0.32966224E-02      0.24082490E-15      0.91717707E-09      0.67001630E-22
    0.338953053534         0.16762710E-06      0.32421365E-02     -0.66905105E-15      0.93659058E-09     -0.19327592E-21
    0.345229961933         0.17722828E-06      0.31897017E-02      0.86287147E-16      0.95650755E-09      0.25875244E-22
    0.351506870332         0.18726866E-06      0.31406193E-02     -0.31156764E-15      0.97737312E-09     -0.96961077E-22
    0.357783778731         0.19776389E-06      0.30935619E-02     -0.19790587E-15      0.99884697E-09     -0.63899702E-22
    0.364060687129         0.20872991E-06      0.30496089E-02     -0.24390053E-15      0.10213365E-08     -0.81684085E-22
    0.370337595528         0.22018301E-06      0.30076976E-02      0.20245079E-16      0.10445614E-08      0.70310352E-23
    0.376614503927         0.23213979E-06      0.29686107E-02     -0.53844987E-17      0.10688570E-08     -0.19387046E-23
    0.382891412326         0.24461718E-06      0.29316327E-02     -0.18951401E-15      0.10940438E-08     -0.70723942E-22
    0.389168320724         0.25763241E-06      0.28972537E-02      0.61832283E-16      0.11203748E-08      0.23910690E-22
    0.395445229123         0.27120301E-06      0.28650954E-02     -0.96335911E-16      0.11477863E-08     -0.38593145E-22
    0.401722137522         0.28534681E-06      0.28353224E-02     -0.16023607E-15      0.11764230E-08     -0.66484642E-22
    0.407999045921         0.30008192E-06      0.28078949E-02     -0.30251795E-15      0.12063556E-08     -0.12997075E-21
    0.414275954320         0.31542674E-06      0.27826578E-02     -0.20795440E-15      0.12376059E-08     -0.92489132E-22
    0.420552862718         0.33139993E-06      0.27599597E-02      0.65479189E-16      0.12704231E-08      0.30140394E-22
    0.426829771117         0.34802041E-06      0.27392626E-02     -0.66973302E-16      0.13046604E-08     -0.31898152E-22
    0.433106679516         0.36530735E-06      0.27214614E-02     -0.31164451E-16      0.13408479E-08     -0.15354540E-22
    0.439383587915         0.38328015E-06      0.27054198E-02     -0.13260798E-15      0.13785450E-08     -0.67570316E-22
    0.445660496313         0.40195843E-06      0.26931630E-02     -0.36709399E-15      0.14189054E-08     -0.19340517E-21
    0.451937404712         0.42136202E-06      0.26821616E-02     -0.26465629E-15      0.14607498E-08     -0.14413622E-21
    0.458214313111         0.44151098E-06      0.26802384E-02     -0.27987632E-15      0.15085513E-08     -0.15752621E-21
    0.464491221510         0.46242550E-06      0.26666079E-02     -0.97523420E-16      0.15507337E-08     -0.56713571E-22
    0.470768129909         0.48412598E-06      0.26424974E-02     -0.43461689E-16      0.15873756E-08     -0.26107888E-22
    0.477045038307         0.50663295E-06      0.26448968E-02     -0.34834437E-16      0.16408035E-08     -0.21610094E-22
    0.483321946706         0.52996708E-06      0.26513690E-02     -0.10622092E-15      0.16982294E-08     -0.68035605E-22
    0.489598855105         0.55414917E-06      0.26562837E-02     -0.10063726E-15      0.17562023E-08     -0.66536341E-22
    0.495875763504         0.57920011E-06      0.26633462E-02     -0.13085886E-15      0.18171768E-08     -0.89283807E-22
    0.502152671902         0.60514088E-06      0.26744866E-02     -0.30316952E-15      0.18826732E-08     -0.21341260E-21
    0.508429580301         0.63199252E-06      0.26826327E-02     -0.37024464E-16      0.19478528E-08     -0.26883370E-22
    0.514706488700         0.65977612E-06      0.27143621E-02     -0.87134264E-16      0.20324437E-08     -0.65243871E-22
    0.520983397099         0.68851279E-06      0.27740574E-02     -0.15001215E-15      0.21414965E-08     -0.11580529E-21
    0.527260305498         0.71822366E-06      0.27813117E-02     -0.12279869E-15      0.22130850E-08     -0.97710710E-22
    0.533537213896         0.74892983E-06      0.27834223E-02     -0.13240654E-15      0.22822821E-08     -0.10856746E-21
    0.539814122295         0.78065236E-06      0.28287997E-02     -0.26401784E-15      0.23896233E-08     -0.22302857E-21
    0.546091030694         0.81341227E-06      0.28965749E-02     -0.21640178E-15      0.25202536E-08     -0.18828699E-21
    0.552367939093         0.84723047E-06      0.29331842E-02     -0.16814463E-15      0.26280054E-08     -0.15065027E-21
    0.558644847491         0.88212778E-06      0.29765190E-02     -0.63447905E-16      0.27454792E-08     -0.58523028E-22
    0.564921755890         0.91812490E-06      0.30325507E-02     -0.17023234E-15      0.28789581E-08     -0.16161041E-21
    0.571198664289         0.95524236E-06      0.31102041E-02     -0.30515101E-15      0.30382890E-08     -0.29809521E-21
    0.577475572688         0.99350052E-06      0.31812973E-02     -0.35784228E-15      0.31970729E-08     -0.35961677E-21
    0.583752481087         0.10329195E-05      0.32724936E-02     -0.11744294E-15      0.33824420E-08     -0.12138875E-21
    0.590029389485         0.10735193E-05      0.33667350E-02     -0.59151249E-16      0.35781534E-08     -0.62865727E-22
    0.596306297884         0.11153196E-05      0.34870720E-02     -0.14574288E-15      0.38098216E-08     -0.15923227E-21
    0.602583206283         0.11583396E-05      0.35949454E-02     -0.11491911E-15      0.40366862E-08     -0.12904018E-21
    0.608860114682         0.12025986E-05      0.37595486E-02     -0.17188659E-15      0.43376317E-08     -0.19831655E-21
    0.615137023081         0.12481153E-05      0.38388505E-02     -0.45190119E-16      0.45498579E-08     -0.53559945E-22
    0.621413931479         0.12949080E-05      0.40666832E-02     -0.27318363E-15      0.49500783E-08     -0.33252661E-21
    0.627690839878         0.13429948E-05      0.36180236E-02     -0.15785066E-15      0.45218248E-08     -0.19728258E-21
    0.633967748277         0.13923932E-05      0.30608123E-02     -0.21905405E-15      0.39268583E-08     -0.28103461E-21
    0.640244656676         0.14431204E-05      0.55199453E-02     -0.22522630E-15      0.72678370E-08     -0.29654425E-21
    0.646521565074         0.14951931E-05      0.70387267E-02     -0.16716099E-15      0.95087222E-08     -0.22582031E-21
    0.652798473473         0.15486273E-05      0.73968923E-02     -0.45067733E-15      0.10250166E-07     -0.62452136E-21
    0.659075381872         0.16034389E-05      0.85848486E-02     -0.28113594E-15      0.12200110E-07     -0.39952824E-21
    0.665352290271         0.16596427E-05      0.97134248E-02     -0.69544002E-15      0.14153021E-07     -0.10132963E-20
    0.671629198670         0.17172535E-05      0.11268861E-01      0.12129023E-15      0.16830564E-07      0.18115255E-21
    0.677906107068         0.17762849E-05      0.23323736E-01     -0.68527156E-15      0.35698914E-07     -0.10488650E-20
    0.684183015467         0.18367504E-05      0.55852262E-01     -0.62243025E-15      0.87585544E-07     -0.97607312E-21
    0.690459923866         0.18986625E-05      0.16510577E+00      0.13347879E-14      0.26520723E-06      0.21440521E-20
    0.696736832265         0.19620330E-05      0.26234207E+00     -0.72573074E-14      0.43153824E-06     -0.11937871E-19
    0.703013740663         0.20268732E-05      0.17319994E+00     -0.12416547E-14      0.29169185E-06     -0.20911126E-20
    0.709290649062         0.20931935E-05      0.16455957E+00     -0.70786805E-14      0.28367567E-06     -0.12202568E-19
    0.715567557461         0.21610035E-05      0.28903131E+00     -0.63770619E-14      0.50987475E-06     -0.11249656E-19
    0.721844465860         0.22303120E-05      0.26242580E+00     -0.15252740E-13      0.47363339E-06     -0.27528571E-19
    0.728121374259         0.23011271E-05      0.19951063E+00     -0.74416126E-14      0.36831268E-06     -0.13737816E-19
    0.734398282657         0.23734559E-05      0.21474872E+00     -0.15928150E-13      0.40540948E-06     -0.30069670E-19
    0.740675191056         0.24473047E-05      0.26380940E+00     -0.14002385E-13      0.50917177E-06     -0.27025645E-19
    0.746952099455         0.25226788E-05      0.28142829E+00     -0.89762188E-14      0.55520167E-06     -0.17708283E-19
    0.753229007854         0.25995828E-05      0.29838163E+00     -0.20351274E-13      0.60153721E-06     -0.41028158E-19
    0.759505916252         0.26780200E-05      0.32228542E+00      0.30458058E-14      0.66379981E-06      0.62733378E-20
    0.765782824651         0.27579930E-05      0.26970939E+00     -0.71968925E-14      0.56741055E-06     -0.15140714E-19
    0.772059733050         0.28395032E-05      0.24501332E+00     -0.14292330E-14      0.52637465E-06     -0.30704944E-20
    0.778336641449         0.29225512E-05      0.29315362E+00     -0.12514705E-13      0.64298925E-06     -0.27449161E-19
    0.784613549848         0.30071363E-05      0.32078412E+00     -0.69048151E-14      0.71816457E-06     -0.15458351E-19
    0.790890458246         0.30932570E-05      0.33335833E+00     -0.19279252E-13      0.76159621E-06     -0.44045713E-19
    0.797167366645         0.31809104E-05      0.34966964E+00     -0.12968827E-13      0.81503010E-06     -0.30228488E-19
    0.803444275044         0.32700927E-05      0.35762373E+00     -0.58116937E-14      0.85024569E-06     -0.13817225E-19
    0.809721183443         0.33607990E-05      0.37048649E+00     -0.19433431E-13      0.89824171E-06     -0.47116208E-19
    0.815998091842         0.34530231E-05      0.37552559E+00     -0.11886368E-13      0.92824727E-06     -0.29381455E-19
    0.822275000240         0.35467578E-05      0.38165489E+00     -0.26053961E-13      0.96161025E-06     -0.65645053E-19
    0.828551908639         0.36419946E-05      0.38200112E+00     -0.18040767E-13      0.98083966E-06     -0.46322114E-19
    0.834828817038         0.37387238E-05      0.38061711E+00     -0.31569315E-13      0.99569899E-06     -0.82585712E-19
    0.841105725437         0.38369346E-05      0.37750917E+00     -0.23462949E-13      0.10059470E-05     -0.62521619E-19
    0.847382633835         0.39366149E-05      0.37053596E+00     -0.36324766E-13      0.10055126E-05     -0.98573459E-19
    0.853659542234         0.40377513E-05      0.36483955E+00     -0.75684813E-14      0.10080233E-05     -0.20911126E-19
    0.859936450633         0.41403294E-05      0.35328838E+00      0.18823396E-16      0.99360026E-06      0.52939559E-22
    0.866213359032         0.42443332E-05      0.34463384E+00     -0.12595895E-13      0.98640737E-06     -0.36051840E-19
    0.872490267431         0.43497456E-05      0.32936936E+00     -0.50900410E-14      0.95918033E-06     -0.14823077E-19
    0.878767175829         0.44565484E-05      0.31783619E+00     -0.16315955E-13      0.94154690E-06     -0.48333818E-19
    0.885044084228         0.45647219E-05      0.30032564E+00     -0.91549257E-14      0.90480632E-06     -0.27581510E-19
    0.891320992627         0.46742450E-05      0.28651086E+00     -0.19044553E-13      0.87767198E-06     -0.58339394E-19
    0.897597901026         0.47850957E-05      0.26777589E+00     -0.12291249E-13      0.83386178E-06     -0.38275301E-19
    0.903874809424         0.48972503E-05      0.25175501E+00     -0.63061435E-14      0.79677544E-06     -0.19958214E-19
    0.910151717823         0.50106841E-05      0.23119906E+00     -0.14256115E-13      0.74350362E-06     -0.45845658E-19
    0.916428626222         0.51253709E-05      0.21203262E+00     -0.86370826E-14      0.69269672E-06     -0.28216785E-19
    0.922705534621         0.52412834E-05      0.18648521E+00     -0.14279567E-13      0.61877493E-06     -0.47380905E-19
    0.928982443020         0.53583927E-05      0.20298933E+00     -0.11312849E-13      0.68393378E-06     -0.38116483E-19
    0.935259351418         0.54766690E-05      0.38564459E+00     -0.35318132E-13      0.13191236E-05     -0.12080807E-18
    0.941536259817         0.55960809E-05      0.44288685E+00     -0.62822730E-14      0.15376359E-05     -0.21811098E-19
    0.947813168216         0.57165958E-05      0.31132993E+00     -0.15657394E-13      0.10968555E-05     -0.55163021E-19
    0.954090076615         0.58381799E-05      0.25286784E+00     -0.76127495E-14      0.90384819E-06     -0.27210933E-19
    0.960366985013         0.59607981E-05      0.22474868E+00     -0.20004140E-14      0.81485088E-06     -0.72527196E-20
    0.966643893412         0.60844141E-05      0.20203250E+00     -0.91285863E-14      0.74282634E-06     -0.33563681E-19
    0.972920801811         0.62089900E-05      0.18668251E+00     -0.45443631E-14      0.69592256E-06     -0.16940659E-19
    0.979197710210         0.63344872E-05      0.17049818E+00     -0.10255020E-13      0.64427997E-06     -0.38751757E-19
    0.985474618609         0.64608656E-05      0.15864166E+00     -0.62897394E-14      0.60754201E-06     -0.24087499E-19
    0.991751527007         0.65880838E-05      0.14165673E+00     -0.10743872E-13      0.54967660E-06     -0.41689903E-19
    0.998028435406         0.67160994E-05      0.13831327E+00     -0.76698355E-14      0.54369065E-06     -0.30149079E-19
    1.004305343805         0.68448687E-05      0.15249056E+00     -0.13948987E-13      0.60709424E-06     -0.55533598E-19
    1.010582252204         0.69743470E-05      0.15669086E+00     -0.11057240E-13      0.63166871E-06     -0.44575109E-19
    1.016859160602         0.71044882E-05      0.14117815E+00     -0.70695379E-14      0.57617352E-06     -0.28852060E-19
