 
 # Omega; pulse ft; proj flux t=    500.100000000000     
    0.000000000000         0.76130340E-13      0.00000000E+00      0.00000000E+00      0.00000000E+00      0.00000000E+00      0.00000000E+00      0.00000000E+00
    0.006280045285         0.34874077E-10      0.23801869E-03      0.45568878E-12      0.81920705E-13      0.15683788E-21      0.51446574E-15      0.98494899E-24
    0.012560090569         0.13937409E-09      0.38448496E-03      0.44016858E-12      0.26443035E-12      0.30272688E-21      0.21751003E-14      0.28860875E-23
    0.018840135854         0.31389481E-09     -0.36441600E-03     -0.80494226E-13     -0.37630519E-12     -0.83120377E-22     -0.18811331E-15      0.23640878E-23
    0.025120181138         0.55896774E-09     -0.30346805E-03      0.20837323E-13     -0.41852328E-12      0.28737473E-22     -0.28164585E-14      0.25445604E-23
    0.031400226423         0.87533792E-09     -0.26641592E-03     -0.48492259E-12     -0.46030513E-12     -0.83783414E-21     -0.57071956E-14     -0.27170759E-23
    0.037680271707         0.12639648E-08     -0.22908434E-03     -0.36551452E-12     -0.47627637E-12     -0.75992070E-21     -0.86982327E-14     -0.74894123E-23
    0.043960316992         0.17260235E-08     -0.20214882E-03     -0.17213856E-12     -0.49192602E-12     -0.41889652E-21     -0.11787550E-13     -0.10120101E-22
    0.050240362276         0.22629062E-08     -0.16089743E-03     -0.22440928E-12     -0.44916466E-12     -0.62646565E-21     -0.14608325E-13     -0.14054334E-22
    0.056520407561         0.28762236E-08     -0.12886102E-03     -0.13124137E-12     -0.40642612E-12     -0.41393369E-21     -0.17160699E-13     -0.16653856E-22
    0.062800452845         0.35678072E-08     -0.10701077E-03     -0.16301262E-12     -0.37679815E-12     -0.57398760E-21     -0.19527009E-13     -0.20258524E-22
    0.069080498130         0.43397112E-08     -0.89274419E-04     -0.14387772E-12     -0.34759625E-12     -0.56019803E-21     -0.21709929E-13     -0.23776593E-22
    0.075360543414         0.51942150E-08     -0.81236973E-04     -0.10773913E-12     -0.34703423E-12     -0.46024813E-21     -0.23889319E-13     -0.26666973E-22
    0.081640588699         0.61338257E-08     -0.74390986E-04     -0.12076062E-12     -0.34640830E-12     -0.56233268E-21     -0.26064779E-13     -0.30198447E-22
    0.087920633984         0.71612808E-08     -0.64318224E-04     -0.59556931E-13     -0.32469575E-12     -0.30065946E-21     -0.28103883E-13     -0.32086602E-22
    0.094200679268         0.82795515E-08     -0.55674604E-04     -0.13464239E-12     -0.30328616E-12     -0.73346142E-21     -0.30008534E-13     -0.36692773E-22
    0.100480724553         0.94918457E-08     -0.49959171E-04     -0.11436339E-12     -0.29249996E-12     -0.66957250E-21     -0.31845447E-13     -0.40897719E-22
    0.106760769837         0.10801611E-07     -0.44965860E-04     -0.83636258E-13     -0.28196969E-12     -0.52446210E-21     -0.33616230E-13     -0.44191365E-22
    0.113040815122         0.12212540E-07     -0.39992639E-04     -0.88393912E-13     -0.26778944E-12     -0.59188282E-21     -0.35297959E-13     -0.47908416E-22
    0.119320860406         0.13728570E-07     -0.35625605E-04     -0.80545448E-13     -0.25404687E-12     -0.57437111E-21     -0.36893385E-13     -0.51515492E-22
    0.125600905691         0.15353891E-07     -0.31309967E-04     -0.42992667E-13     -0.23721982E-12     -0.32573374E-21     -0.38383136E-13     -0.53561115E-22
    0.131880950975         0.17092949E-07     -0.27551373E-04     -0.32291957E-13     -0.22132010E-12     -0.25940119E-21     -0.39773037E-13     -0.55190166E-22
    0.138160996260         0.18950447E-07     -0.35861489E-04     -0.32025739E-13     -0.30486319E-12     -0.27225498E-21     -0.41687591E-13     -0.56899940E-22
    0.144441041544         0.20931352E-07     -0.43098225E-04     -0.37812120E-13     -0.38708713E-12     -0.33960992E-21     -0.44118516E-13     -0.59032705E-22
    0.150721086829         0.23040899E-07     -0.34471038E-04     -0.20398916E-13     -0.32660470E-12     -0.19327477E-21     -0.46169608E-13     -0.60246480E-22
    0.157001132113         0.25284593E-07     -0.26859799E-04     -0.31694096E-13     -0.26810112E-12     -0.31635466E-21     -0.47853295E-13     -0.62233201E-22
    0.163281177398         0.27668217E-07     -0.25595788E-04     -0.31728023E-13     -0.26881668E-12     -0.33321974E-21     -0.49541476E-13     -0.64325836E-22
    0.169561222683         0.30197832E-07     -0.24447196E-04     -0.35448968E-13     -0.26984908E-12     -0.39128707E-21     -0.51236141E-13     -0.66783137E-22
    0.175841267967         0.32879785E-07     -0.23534776E-04     -0.37661593E-13     -0.27274758E-12     -0.43646510E-21     -0.52949008E-13     -0.69524157E-22
    0.182121313252         0.35720711E-07     -0.22674345E-04     -0.30490174E-13     -0.27563651E-12     -0.37064821E-21     -0.54680018E-13     -0.71851845E-22
    0.188401358536         0.38727539E-07     -0.88048595E-05     -0.26199949E-13     -0.11217627E-12     -0.33379435E-21     -0.55384490E-13     -0.73948089E-22
    0.194681403821         0.41907495E-07      0.35274137E-05     -0.21165493E-13      0.47061559E-13     -0.28238283E-21     -0.55088941E-13     -0.75721466E-22
    0.200961449105         0.45268105E-07     -0.75820250E-05     -0.16443028E-13     -0.10585404E-12     -0.22956413E-21     -0.55753709E-13     -0.77163139E-22
    0.207241494390         0.48817202E-07     -0.17652117E-04     -0.24127662E-13     -0.25771260E-12     -0.35225250E-21     -0.57372156E-13     -0.79375300E-22
    0.213521539674         0.52562928E-07     -0.17433510E-04     -0.22981062E-13     -0.26599003E-12     -0.35063125E-21     -0.59042585E-13     -0.81577280E-22
    0.219801584959         0.56513737E-07     -0.17307368E-04     -0.26396427E-13     -0.27580168E-12     -0.42064044E-21     -0.60774632E-13     -0.84218921E-22
    0.226081630243         0.60678401E-07     -0.16770729E-04     -0.24499566E-13     -0.27897383E-12     -0.40753969E-21     -0.62526601E-13     -0.86778289E-22
    0.232361675528         0.65066012E-07     -0.16393134E-04     -0.25971497E-13     -0.28450792E-12     -0.45074337E-21     -0.64313323E-13     -0.89608978E-22
    0.238641720812         0.69685984E-07     -0.16455202E-04     -0.21855613E-13     -0.29781390E-12     -0.39555304E-21     -0.66183608E-13     -0.92093069E-22
    0.244921766097         0.74548059E-07     -0.16638777E-04     -0.22691764E-13     -0.31388679E-12     -0.42807502E-21     -0.68154831E-13     -0.94781399E-22
    0.251201811381         0.79662308E-07     -0.15532744E-04     -0.22210655E-13     -0.30529590E-12     -0.43655017E-21     -0.70072103E-13     -0.97522954E-22
    0.257481856666         0.85039131E-07     -0.14678113E-04     -0.20967071E-13     -0.30045890E-12     -0.42919298E-21     -0.71958999E-13     -0.10021831E-21
    0.263761901951         0.90689267E-07     -0.13219514E-04     -0.20373712E-13     -0.28170983E-12     -0.43416685E-21     -0.73728149E-13     -0.10294489E-21
    0.270041947235         0.96623785E-07     -0.12145699E-04     -0.20142844E-13     -0.26935064E-12     -0.44670033E-21     -0.75419684E-13     -0.10575019E-21
    0.276321992520         0.10285409E-06     -0.93390119E-05     -0.17502504E-13     -0.21545161E-12     -0.40378391E-21     -0.76772730E-13     -0.10828597E-21
    0.282602037804         0.10939194E-06     -0.72274495E-05     -0.17834442E-13     -0.17339549E-12     -0.42787040E-21     -0.77861661E-13     -0.11097302E-21
    0.288882083089         0.11624942E-06     -0.22427535E-05     -0.15493590E-13     -0.55936387E-13     -0.38642475E-21     -0.78212944E-13     -0.11339978E-21
    0.295162128373         0.12343895E-06      0.13311677E-05     -0.13870641E-13      0.34503808E-13     -0.35952642E-21     -0.77996259E-13     -0.11565763E-21
    0.301442173658         0.13097330E-06      0.12390952E-04     -0.14299224E-13      0.33367689E-12     -0.38506486E-21     -0.75900753E-13     -0.11807585E-21
    0.307722218942         0.13886558E-06      0.18670715E-04     -0.13867899E-13      0.52220302E-12     -0.38787260E-21     -0.72621294E-13     -0.12051171E-21
    0.314002264227         0.14712923E-06      0.10157063E-03     -0.14214124E-13      0.29496942E-11     -0.41278980E-21     -0.54097081E-13     -0.12310405E-21
    0.320282309511         0.15577804E-06      0.28037976E-03     -0.13120230E-13      0.84520607E-11     -0.39550993E-21     -0.10177570E-14     -0.12558787E-21
    0.326562354796         0.16482612E-06      0.17528005E-03     -0.12354235E-13      0.54832126E-11     -0.38647237E-21      0.33417067E-13     -0.12801493E-21
    0.332842400080         0.17428793E-06     -0.85904611E-04     -0.12414714E-13     -0.27879683E-11     -0.40291003E-21      0.15908500E-13     -0.13054522E-21
    0.339122445365         0.18417826E-06     -0.11115651E-03     -0.11416755E-13     -0.37416178E-11     -0.38429716E-21     -0.75890296E-14     -0.13295863E-21
    0.345402490650         0.19451221E-06     -0.69865257E-04     -0.12477890E-13     -0.24385145E-11     -0.43551711E-21     -0.22903011E-13     -0.13569369E-21
    0.351682535934         0.20530523E-06     -0.61917835E-04     -0.11756776E-13     -0.22403076E-11     -0.42538301E-21     -0.36972244E-13     -0.13836512E-21
    0.357962581219         0.21657306E-06     -0.52555606E-04     -0.11082163E-13     -0.19707364E-11     -0.41556028E-21     -0.49348558E-13     -0.14097486E-21
    0.364242626503         0.22833179E-06     -0.47335581E-04     -0.10560069E-13     -0.18391028E-11     -0.41028442E-21     -0.60898207E-13     -0.14355146E-21
    0.370522671788         0.24059779E-06     -0.42156112E-04     -0.98540341E-14     -0.16966024E-11     -0.39658253E-21     -0.71552947E-13     -0.14604202E-21
    0.376802717072         0.25338774E-06     -0.40199756E-04     -0.95825623E-14     -0.16754739E-11     -0.39938882E-21     -0.82074999E-13     -0.14855020E-21
    0.383082762357         0.26671863E-06     -0.38272766E-04     -0.88336817E-14     -0.16515559E-11     -0.38119322E-21     -0.92446844E-13     -0.15094411E-21
    0.389362807641         0.28060773E-06     -0.35802511E-04     -0.87200148E-14     -0.15991946E-11     -0.38949785E-21     -0.10248986E-12     -0.15339017E-21
    0.395642852926         0.29507259E-06     -0.33586549E-04     -0.81929229E-14     -0.15525071E-11     -0.37871027E-21     -0.11223967E-12     -0.15576849E-21
    0.401922898210         0.31013104E-06     -0.31413001E-04     -0.75304623E-14     -0.15022928E-11     -0.36013621E-21     -0.12167414E-12     -0.15803016E-21
    0.408202943495         0.32580116E-06     -0.29511080E-04     -0.79795451E-14     -0.14598367E-11     -0.39472743E-21     -0.13084198E-12     -0.16050907E-21
    0.414482988779         0.34210131E-06     -0.26595371E-04     -0.78630679E-14     -0.13604944E-11     -0.40223766E-21     -0.13938595E-12     -0.16303514E-21
    0.420763034064         0.35905007E-06     -0.23987462E-04     -0.72791634E-14     -0.12686575E-11     -0.38498302E-21     -0.14735317E-12     -0.16545285E-21
    0.427043079349         0.37666626E-06     -0.19163607E-04     -0.72521557E-14     -0.10476229E-11     -0.39645585E-21     -0.15393229E-12     -0.16794261E-21
    0.433323124633         0.39496893E-06     -0.14585778E-04     -0.67223742E-14     -0.82399266E-12     -0.37976631E-21     -0.15910700E-12     -0.17032756E-21
    0.439603169918         0.41397733E-06     -0.35804733E-05     -0.73503245E-14     -0.20897718E-12     -0.42900755E-21     -0.16041939E-12     -0.17302175E-21
    0.445883215202         0.43371092E-06      0.78838173E-05     -0.71819907E-14      0.47528976E-12     -0.43297891E-21     -0.15743455E-12     -0.17574087E-21
    0.452163260487         0.45418931E-06      0.53073387E-04     -0.67750013E-14      0.33041603E-11     -0.42178749E-21     -0.13668427E-12     -0.17838972E-21
    0.458443305771         0.47543232E-06      0.12634060E-03     -0.65147598E-14      0.81206101E-11     -0.41873971E-21     -0.85686474E-13     -0.18101942E-21
    0.464723351056         0.49745989E-06     -0.66403489E-04     -0.61221753E-14     -0.44055197E-11     -0.40617390E-21     -0.11335334E-12     -0.18357021E-21
    0.471003396340         0.52029212E-06     -0.32493658E-03     -0.62314352E-14     -0.22246643E-10     -0.42663253E-21     -0.25306326E-12     -0.18624948E-21
    0.477283441625         0.54394922E-06     -0.26031829E-03     -0.58691572E-14     -0.18387782E-10     -0.41457243E-21     -0.36853937E-12     -0.18885302E-21
    0.483563486909         0.56845152E-06     -0.15445754E-03     -0.51119125E-14     -0.11253606E-10     -0.37244832E-21     -0.43921252E-12     -0.19119201E-21
    0.489843532194         0.59381941E-06     -0.13766536E-03     -0.53245548E-14     -0.10343425E-10     -0.40005803E-21     -0.50416970E-12     -0.19370439E-21
    0.496123577478         0.62007337E-06     -0.12417802E-03     -0.54640152E-14     -0.96192366E-11     -0.42326055E-21     -0.56457894E-12     -0.19636249E-21
    0.502403622763         0.64723393E-06     -0.11923860E-03     -0.50493461E-14     -0.95206823E-11     -0.40316825E-21     -0.62436926E-12     -0.19889440E-21
    0.508683668048         0.67532166E-06     -0.89386341E-04     -0.51303457E-14     -0.73548990E-11     -0.42213580E-21     -0.67055835E-12     -0.20154543E-21
    0.514963713332         0.70435711E-06     -0.39628278E-04     -0.49181203E-14     -0.33594188E-11     -0.41692515E-21     -0.69165566E-12     -0.20416374E-21
    0.521243758617         0.73436086E-06     -0.79277130E-04     -0.43626713E-14     -0.69224408E-11     -0.38094636E-21     -0.73512890E-12     -0.20655610E-21
    0.527523803901         0.76535344E-06     -0.16138472E-03     -0.46337716E-14     -0.14511927E-10     -0.41667484E-21     -0.82626445E-12     -0.20917284E-21
    0.533803849186         0.79735534E-06     -0.15578915E-03     -0.42035581E-14     -0.14422817E-10     -0.38916155E-21     -0.91684040E-12     -0.21161679E-21
    0.540083894470         0.83038696E-06     -0.12086715E-03     -0.41179177E-14     -0.11517819E-10     -0.39240960E-21     -0.98917282E-12     -0.21408114E-21
    0.546363939755         0.86446862E-06     -0.14498174E-03     -0.37849761E-14     -0.14217499E-10     -0.37117013E-21     -0.10784594E-11     -0.21641211E-21
    0.552643985039         0.89962053E-06     -0.18798009E-03     -0.37959981E-14     -0.18965681E-10     -0.38298571E-21     -0.11975647E-11     -0.21881728E-21
    0.558924030324         0.93586274E-06     -0.20052716E-03     -0.39410348E-14     -0.20810152E-10     -0.40898965E-21     -0.13282534E-11     -0.22138575E-21
    0.565204075608         0.97321515E-06     -0.22139335E-03     -0.38983073E-14     -0.23627122E-10     -0.41602777E-21     -0.14766328E-11     -0.22399842E-21
    0.571484120893         0.10116975E-05     -0.27167565E-03     -0.35625497E-14     -0.29808484E-10     -0.39088599E-21     -0.16638314E-11     -0.22645320E-21
    0.577764166177         0.10513292E-05     -0.31989609E-03     -0.34213082E-14     -0.36077773E-10     -0.38585398E-21     -0.18904015E-11     -0.22887639E-21
    0.584044211462         0.10921295E-05     -0.38092773E-03     -0.34768645E-14     -0.44148270E-10     -0.40295715E-21     -0.21676546E-11     -0.23140697E-21
    0.590324256747         0.11341175E-05     -0.47395936E-03     -0.34461667E-14     -0.56435349E-10     -0.41034240E-21     -0.25220711E-11     -0.23398394E-21
    0.596604302031         0.11773119E-05     -0.60619795E-03     -0.32122895E-14     -0.74141656E-10     -0.39288234E-21     -0.29876841E-11     -0.23645126E-21
    0.602884347316         0.12217310E-05     -0.79511088E-03     -0.30753791E-14     -0.99864686E-10     -0.38626281E-21     -0.36148388E-11     -0.23887701E-21
    0.609164392600         0.12673928E-05     -0.11179870E-02     -0.27877938E-14     -0.14416378E-09     -0.35948441E-21     -0.45201939E-11     -0.24113459E-21
    0.615444437885         0.13143151E-05     -0.16528878E-02     -0.28596602E-14     -0.21877450E-09     -0.37850164E-21     -0.58941077E-11     -0.24351160E-21
    0.621724483169         0.13625152E-05     -0.26669597E-02     -0.28760282E-14     -0.36224509E-09     -0.39064223E-21     -0.81690233E-11     -0.24596485E-21
    0.628004528454         0.14120099E-05     -0.72893306E-02     -0.25770765E-14     -0.10157931E-08     -0.35912443E-21     -0.14548250E-10     -0.24822016E-21
    0.634284573738         0.14628155E-05     -0.20694900E-02     -0.25289964E-14     -0.29580903E-09     -0.36149001E-21     -0.16405944E-10     -0.25049034E-21
    0.640564619023         0.15149482E-05      0.12663510E-01     -0.36237614E-14      0.18562292E-08     -0.53117437E-21     -0.47487408E-11     -0.25382614E-21
    0.646844664307         0.15684233E-05      0.12941841E-01     -0.32031708E-14      0.19449212E-08     -0.48137780E-21      0.74654527E-11     -0.25684921E-21
    0.653124709592         0.16232557E-05      0.70524627E-02     -0.30492752E-14      0.10863613E-08     -0.46971033E-21      0.14287851E-10     -0.25979901E-21
    0.659404754876         0.16794598E-05      0.65772181E-02     -0.29381429E-14      0.10382512E-08     -0.46380254E-21      0.20808116E-10     -0.26271171E-21
    0.665684800161         0.17370493E-05      0.50045999E-02     -0.29267019E-14      0.80938573E-09     -0.47333070E-21      0.25891095E-10     -0.26568425E-21
    0.671964845445         0.17960375E-05      0.13435979E-01     -0.39089823E-14      0.22257729E-08     -0.64755286E-21      0.39869049E-10     -0.26975091E-21
    0.678244890730         0.18564368E-05      0.40288348E-01     -0.47012509E-14      0.68346421E-08     -0.79753499E-21      0.82790911E-10     -0.27475947E-21
    0.684524936015         0.19182592E-05      0.21786073E+00     -0.16699894E-13      0.37838999E-07     -0.29005102E-20      0.32042154E-09     -0.29297481E-21
    0.690804981299         0.19815157E-05      0.58920409E+00     -0.15201358E-13      0.10474915E-06     -0.27025088E-20      0.97825092E-09     -0.30994668E-21
    0.697085026584         0.20462170E-05      0.65459107E+00     -0.25691482E-13      0.11909093E-06     -0.46740975E-20      0.17261473E-08     -0.33930023E-21
    0.703365071868         0.21123726E-05      0.32994486E+00      0.67898365E-16      0.61414902E-07      0.12638389E-22      0.21118357E-08     -0.33922086E-21
    0.709645117153         0.21799915E-05      0.19353800E+00     -0.36951380E-14      0.36848729E-07     -0.70353698E-21      0.23432474E-08     -0.34363910E-21
    0.715925162437         0.22490820E-05      0.28881409E+00     -0.24752334E-13      0.56233964E-07     -0.48194389E-20      0.26963992E-08     -0.37390540E-21
    0.722205207722         0.23196512E-05      0.36037748E+00     -0.14914228E-13      0.71740169E-07     -0.29689682E-20      0.31469307E-08     -0.39255065E-21
    0.728485253006         0.23917059E-05      0.36503779E+00     -0.20102960E-13      0.74279248E-07     -0.40906252E-20      0.36134078E-08     -0.41823996E-21
    0.734765298291         0.24652514E-05      0.35098321E+00     -0.43860452E-14      0.72986342E-07     -0.91207039E-21      0.40717653E-08     -0.42396781E-21
    0.741045343575         0.25402927E-05      0.37019082E+00     -0.97704696E-14      0.78651551E-07     -0.20758554E-20      0.45657006E-08     -0.43700427E-21
    0.747325388860         0.26168335E-05      0.40965891E+00     -0.39667614E-13      0.88906073E-07     -0.86088492E-20      0.51240348E-08     -0.49106823E-21
    0.753605434144         0.26948767E-05      0.47746229E+00     -0.25375475E-13      0.10582216E-06     -0.56240830E-20      0.57886027E-08     -0.52638773E-21
    0.759885479429         0.27744242E-05      0.51565085E+00     -0.34366457E-13      0.11668718E-06     -0.77768219E-20      0.65214035E-08     -0.57522652E-21
    0.766165524714         0.28554769E-05      0.43081953E+00     -0.10577907E-13      0.99516273E-07     -0.24434218E-20      0.71463702E-08     -0.59057132E-21
