 
 # Omega; pulse ft; projected flux at t=    500.250000000000     
    0.000000000000         0.10341091E-10      0.00000000E+00      0.00000000E+00      0.51887616E-28     -0.22241409E-39
    0.006276908399         0.40699280E-10      0.15009010E-19     -0.60427386E-31      0.56846901E-28     -0.22886983E-39
    0.012553816798         0.13187398E-09      0.93695506E-20     -0.38359382E-31      0.57493124E-28     -0.23537956E-39
    0.018830725196         0.28416575E-09      0.64498445E-20     -0.25423676E-31      0.56854879E-28     -0.22410774E-39
    0.025107633595         0.49807598E-09      0.49857881E-20     -0.20373012E-31      0.57774665E-28     -0.23607982E-39
    0.031384541994         0.77430759E-09      0.40509358E-20     -0.15873571E-31      0.58380375E-28     -0.22876320E-39
    0.037661450393         0.11137660E-08      0.34031891E-20     -0.11995419E-31      0.58789100E-28     -0.20721736E-39
    0.043938358791         0.15175606E-08      0.29384561E-20     -0.11376005E-31      0.59283687E-28     -0.22951219E-39
    0.050215267190         0.19870057E-08      0.25732854E-20     -0.97096180E-32      0.59479197E-28     -0.22442916E-39
    0.056492175589         0.25236231E-08      0.22870485E-20     -0.87754469E-32      0.59679527E-28     -0.22899144E-39
    0.062769083988         0.31291437E-08      0.20747312E-20     -0.78515636E-32      0.60416470E-28     -0.22863866E-39
    0.069045992387         0.38055096E-08      0.19000527E-20     -0.69447018E-32      0.61172158E-28     -0.22358453E-39
    0.075322900785         0.45548772E-08      0.17413689E-20     -0.63762624E-32      0.61511202E-28     -0.22523175E-39
    0.081599809184         0.53796196E-08      0.16110770E-20     -0.52493146E-32      0.62042964E-28     -0.20215237E-39
    0.087876717583         0.62823298E-08      0.14945424E-20     -0.45956090E-32      0.62412121E-28     -0.19191273E-39
    0.094153625982         0.72658239E-08      0.13974593E-20     -0.48659384E-32      0.62994231E-28     -0.21934525E-39
    0.100430534380         0.83331444E-08      0.13071147E-20     -0.46933384E-32      0.63353502E-28     -0.22747768E-39
    0.106707442779         0.94875639E-08      0.12301244E-20     -0.38851858E-32      0.63888521E-28     -0.20178348E-39
    0.112984351178         0.10732589E-07      0.11575003E-20     -0.39329863E-32      0.64227516E-28     -0.21823402E-39
    0.119261259577         0.12071965E-07      0.10956203E-20     -0.40837115E-32      0.64781716E-28     -0.24146124E-39
    0.125538167976         0.13509678E-07      0.10360034E-20     -0.31053883E-32      0.65124465E-28     -0.19520858E-39
    0.131815076374         0.15049961E-07      0.98364722E-21     -0.35578753E-32      0.65602963E-28     -0.23728747E-39
    0.138091984773         0.16697298E-07      0.93560898E-21     -0.34754714E-32      0.66082417E-28     -0.24547386E-39
    0.144368893172         0.18456429E-07      0.89274441E-21     -0.31141323E-32      0.66667626E-28     -0.23255459E-39
    0.150645801571         0.20332352E-07      0.85113764E-21     -0.26479593E-32      0.67103349E-28     -0.20876404E-39
    0.156922709970         0.22330332E-07      0.81340921E-21     -0.30051000E-32      0.67613322E-28     -0.24979406E-39
    0.163199618368         0.24455902E-07      0.77789855E-21     -0.23390029E-32      0.68092817E-28     -0.20474302E-39
    0.169476526767         0.26714868E-07      0.74544356E-21     -0.24479728E-32      0.68639173E-28     -0.22540516E-39
    0.175753435166         0.29113317E-07      0.71527028E-21     -0.25043892E-32      0.69210478E-28     -0.24232794E-39
    0.182030343565         0.31657619E-07      0.68733523E-21     -0.25093178E-32      0.69825953E-28     -0.25492001E-39
    0.188307251963         0.34354433E-07      0.66023110E-21     -0.23009090E-32      0.70359950E-28     -0.24520481E-39
    0.194584160362         0.37210710E-07      0.63449790E-21     -0.22974408E-32      0.70876860E-28     -0.25663660E-39
    0.200861068761         0.40233700E-07      0.61074504E-21     -0.21532308E-32      0.71460814E-28     -0.25194085E-39
    0.207137977160         0.43430955E-07      0.58834255E-21     -0.20111945E-32      0.72058250E-28     -0.24632445E-39
    0.213414885559         0.46810335E-07      0.56733575E-21     -0.18341963E-32      0.72689386E-28     -0.23500476E-39
    0.219691793957         0.50380010E-07      0.54683303E-21     -0.15467712E-32      0.73250899E-28     -0.20719739E-39
    0.225968702356         0.54148468E-07      0.53086636E-21     -0.15948579E-32      0.74308225E-28     -0.22324086E-39
    0.232245610755         0.58124513E-07      0.51452298E-21     -0.14889686E-32      0.75219491E-28     -0.21767630E-39
    0.238522519154         0.62317278E-07      0.49539763E-21     -0.14981367E-32      0.75604356E-28     -0.22863586E-39
    0.244799427552         0.66736218E-07      0.47783447E-21     -0.13887880E-32      0.76092609E-28     -0.22115713E-39
    0.251076335951         0.71391124E-07      0.46211294E-21     -0.15674839E-32      0.76753885E-28     -0.26034864E-39
    0.257353244350         0.76292116E-07      0.44646913E-21     -0.13435648E-32      0.77313486E-28     -0.23266039E-39
    0.263630152749         0.81449655E-07      0.43252152E-21     -0.12659974E-32      0.78057690E-28     -0.22847611E-39
    0.269907061148         0.86874540E-07      0.41842286E-21     -0.11588272E-32      0.78669697E-28     -0.21787669E-39
    0.276183969546         0.92577913E-07      0.40570948E-21     -0.12056614E-32      0.79439752E-28     -0.23607395E-39
    0.282460877945         0.98571259E-07      0.39326888E-21     -0.10412278E-32      0.80166954E-28     -0.21225188E-39
    0.288737786344         0.10486641E-06      0.38218785E-21     -0.10542844E-32      0.81081813E-28     -0.22366825E-39
    0.295014694743         0.11147554E-06      0.37094282E-21     -0.92807000E-33      0.81876019E-28     -0.20484741E-39
    0.301291603141         0.11841119E-06      0.36054220E-21     -0.91245543E-33      0.82770507E-28     -0.20947450E-39
    0.307568511540         0.12568621E-06      0.35031282E-21     -0.95876118E-33      0.83621048E-28     -0.22886007E-39
    0.313845419939         0.13331385E-06      0.34228593E-21     -0.85345242E-33      0.84930235E-28     -0.21176422E-39
    0.320122328338         0.14130766E-06      0.33491771E-21     -0.88763222E-33      0.86357818E-28     -0.22887408E-39
    0.326399236737         0.14968158E-06      0.31780898E-21     -0.82860456E-33      0.85133243E-28     -0.22196287E-39
    0.332676145135         0.15844985E-06      0.30490687E-21     -0.81908939E-33      0.84830338E-28     -0.22788476E-39
    0.338953053534         0.16762710E-06      0.29997251E-21     -0.75538387E-33      0.86656261E-28     -0.21821580E-39
    0.345229961933         0.17722828E-06      0.29225348E-21     -0.60277480E-33      0.87639124E-28     -0.18075629E-39
    0.351506870332         0.18726866E-06      0.28524274E-21     -0.68623129E-33      0.88768667E-28     -0.21355789E-39
    0.357783778731         0.19776389E-06      0.27784238E-21     -0.69296903E-33      0.89709543E-28     -0.22374533E-39
    0.364060687129         0.20872991E-06      0.27139117E-21     -0.70998118E-33      0.90890901E-28     -0.23777793E-39
    0.370337595528         0.22018301E-06      0.26517694E-21     -0.59117478E-33      0.92094895E-28     -0.20531265E-39
    0.376614503927         0.23213979E-06      0.25813110E-21     -0.52660060E-33      0.92940860E-28     -0.18960409E-39
    0.382891412326         0.24461718E-06      0.25128592E-21     -0.53566030E-33      0.93776345E-28     -0.19990083E-39
    0.389168320724         0.25763241E-06      0.24540194E-21     -0.60179731E-33      0.94897507E-28     -0.23271644E-39
    0.395445229123         0.27120301E-06      0.23958040E-21     -0.63492670E-33      0.95978346E-28     -0.25435809E-39
    0.401722137522         0.28534681E-06      0.23407123E-21     -0.52922960E-33      0.97120095E-28     -0.21958627E-39
    0.407999045921         0.30008192E-06      0.22857787E-21     -0.54626616E-33      0.98203887E-28     -0.23469227E-39
    0.414275954320         0.31542674E-06      0.22343081E-21     -0.49219089E-33      0.99372372E-28     -0.21890524E-39
    0.420552862718         0.33139993E-06      0.21828168E-21     -0.46825943E-33      0.10047613E-27     -0.21554212E-39
    0.426829771117         0.34802041E-06      0.21358613E-21     -0.50403382E-33      0.10172715E-27     -0.24006205E-39
    0.433106679516         0.36530735E-06      0.20889214E-21     -0.41772678E-33      0.10291992E-27     -0.20581151E-39
    0.439383587915         0.38328015E-06      0.20433472E-21     -0.42903352E-33      0.10411864E-27     -0.21861377E-39
    0.445660496313         0.40195843E-06      0.20004640E-21     -0.42881990E-33      0.10539537E-27     -0.22592575E-39
    0.451937404712         0.42136202E-06      0.19594570E-21     -0.44060562E-33      0.10671529E-27     -0.23996115E-39
    0.458214313111         0.44151098E-06      0.19183695E-21     -0.39548608E-33      0.10797393E-27     -0.22259626E-39
    0.464491221510         0.46242550E-06      0.18462609E-21     -0.43448260E-33      0.10736708E-27     -0.25266813E-39
    0.470768129909         0.48412598E-06      0.18023327E-21     -0.38796191E-33      0.10826799E-27     -0.23305275E-39
    0.477045038307         0.50663295E-06      0.17945240E-21     -0.36161095E-33      0.11132613E-27     -0.22433107E-39
    0.483321946706         0.52996708E-06      0.17641911E-21     -0.35117435E-33      0.11299828E-27     -0.22493082E-39
    0.489598855105         0.55414917E-06      0.17324299E-21     -0.34217829E-33      0.11453963E-27     -0.22623123E-39
    0.495875763504         0.57920011E-06      0.17003102E-21     -0.34160676E-33      0.11601062E-27     -0.23307517E-39
    0.502152671902         0.60514088E-06      0.16694227E-21     -0.32782116E-33      0.11751704E-27     -0.23076583E-39
    0.508429580301         0.63199252E-06      0.16360721E-21     -0.31374064E-33      0.11879478E-27     -0.22780629E-39
    0.514706488700         0.65977612E-06      0.16040592E-21     -0.30915724E-33      0.12010778E-27     -0.23148890E-39
    0.520983397099         0.68851279E-06      0.16047649E-21     -0.32033509E-33      0.12388347E-27     -0.24728994E-39
    0.527260305498         0.71822366E-06      0.15896493E-21     -0.28173256E-33      0.12648813E-27     -0.22417412E-39
    0.533537213896         0.74892983E-06      0.15555022E-21     -0.26872899E-33      0.12754424E-27     -0.22034578E-39
    0.539814122295         0.78065236E-06      0.15307283E-21     -0.28294431E-33      0.12930799E-27     -0.23901668E-39
    0.546091030694         0.81341227E-06      0.15089067E-21     -0.28040768E-33      0.13128704E-27     -0.24397727E-39
    0.552367939093         0.84723047E-06      0.14937598E-21     -0.27504947E-33      0.13383438E-27     -0.24643235E-39
    0.558644847491         0.88212778E-06      0.14700886E-21     -0.25448178E-33      0.13559792E-27     -0.23472870E-39
    0.564921755890         0.91812490E-06      0.14567133E-21     -0.26434425E-33      0.13829336E-27     -0.25095574E-39
    0.571198664289         0.95524236E-06      0.14351963E-21     -0.22595718E-33      0.14020112E-27     -0.22073253E-39
    0.577475572688         0.99350052E-06      0.14277261E-21     -0.22754672E-33      0.14348060E-27     -0.22867509E-39
    0.583752481087         0.10329195E-05      0.14084653E-21     -0.22597614E-33      0.14557866E-27     -0.23356843E-39
    0.590029389485         0.10735193E-05      0.14060078E-21     -0.20358718E-33      0.14942998E-27     -0.21637169E-39
    0.596306297884         0.11153196E-05      0.13917199E-21     -0.21397147E-33      0.15205319E-27     -0.23377582E-39
    0.602583206283         0.11583396E-05      0.13976925E-21     -0.20372570E-33      0.15694386E-27     -0.22875917E-39
    0.608860114682         0.12025986E-05      0.13886333E-21     -0.14542478E-33      0.16021551E-27     -0.16778587E-39
    0.615137023081         0.12481153E-05      0.14213979E-21     -0.17474648E-33      0.16846601E-27     -0.20711191E-39
    0.621413931479         0.12949080E-05      0.14277092E-21     -0.19241978E-33      0.17378468E-27     -0.23421863E-39
    0.627690839878         0.13429948E-05      0.16580207E-21     -0.19731563E-33      0.20722030E-27     -0.24660611E-39
    0.633967748277         0.13923932E-05      0.16741662E-21     -0.18952725E-33      0.21478656E-27     -0.24315331E-39
    0.640244656676         0.14431204E-05      0.11644596E-21     -0.16612725E-33      0.15331859E-27     -0.21873148E-39
    0.646521565074         0.14951931E-05      0.10769736E-21     -0.17869286E-33      0.14549000E-27     -0.24139888E-39
    0.652798473473         0.15486273E-05      0.11516930E-21     -0.12870505E-33      0.15959464E-27     -0.17835166E-39
    0.659075381872         0.16034389E-05      0.11573257E-21     -0.15548846E-33      0.16447001E-27     -0.22096795E-39
    0.665352290271         0.16596427E-05      0.11744944E-21     -0.14770659E-33      0.17113061E-27     -0.21521702E-39
    0.671629198670         0.17172535E-05      0.11924738E-21     -0.14770834E-33      0.17810146E-27     -0.22060922E-39
    0.677906107068         0.17762849E-05      0.11993576E-21     -0.16869235E-33      0.18357164E-27     -0.25819765E-39
    0.684183015467         0.18367504E-05      0.12241673E-21     -0.12929910E-33      0.19196959E-27     -0.20276228E-39
    0.690459923866         0.18986625E-05      0.12012161E-21     -0.14432018E-33      0.19294975E-27     -0.23181961E-39
    0.696736832265         0.19620330E-05      0.14620497E-21     -0.13687354E-33      0.24049911E-27     -0.22514943E-39
    0.703013740663         0.20268732E-05      0.16709457E-21     -0.13891390E-33      0.28140960E-27     -0.23394958E-39
    0.709290649062         0.20931935E-05      0.18134925E-21     -0.14671036E-33      0.31261852E-27     -0.25290635E-39
    0.715567557461         0.21610035E-05      0.20042347E-21     -0.12272393E-33      0.35356332E-27     -0.21649501E-39
    0.721844465860         0.22303120E-05      0.23672462E-21     -0.13700959E-33      0.42724719E-27     -0.24727873E-39
    0.728121374259         0.23011271E-05      0.24086299E-21     -0.12096489E-33      0.44465246E-27     -0.22331092E-39
    0.734398282657         0.23734559E-05      0.22894778E-21     -0.13304020E-33      0.43221491E-27     -0.25115753E-39
    0.740675191056         0.24473047E-05      0.23174157E-21     -0.11328444E-33      0.44727848E-27     -0.21864740E-39
    0.746952099455         0.25226788E-05      0.23030607E-21     -0.11605889E-33      0.45434777E-27     -0.22896096E-39
    0.753229007854         0.25995828E-05      0.24716681E-21     -0.12801866E-33      0.49828815E-27     -0.25808555E-39
    0.759505916252         0.26780200E-05      0.24094458E-21     -0.99766938E-34      0.49626497E-27     -0.20548641E-39
    0.765782824651         0.27579930E-05      0.23215032E-21     -0.12781362E-33      0.48839434E-27     -0.26889236E-39
    0.772059733050         0.28395032E-05      0.22733345E-21     -0.11158461E-33      0.48839208E-27     -0.23972293E-39
    0.778336641449         0.29225512E-05      0.25217715E-21     -0.12161290E-33      0.55311340E-27     -0.26673997E-39
    0.784613549848         0.30071363E-05      0.24565253E-21     -0.95430421E-34      0.54996159E-27     -0.21364757E-39
    0.790890458246         0.30932570E-05      0.25710770E-21     -0.10916870E-33      0.58739271E-27     -0.24940871E-39
    0.797167366645         0.31809104E-05      0.25147570E-21     -0.98634357E-34      0.58615401E-27     -0.22990263E-39
    0.803444275044         0.32700927E-05      0.25942215E-21     -0.10281079E-33      0.61677272E-27     -0.24443129E-39
    0.809721183443         0.33607990E-05      0.25547915E-21     -0.12092183E-33      0.61940729E-27     -0.29317406E-39
    0.815998091842         0.34530231E-05      0.25836321E-21     -0.10218714E-33      0.63863809E-27     -0.25259246E-39
    0.822275000240         0.35467578E-05      0.25681985E-21     -0.12968840E-33      0.64707831E-27     -0.32676038E-39
    0.828551908639         0.36419946E-05      0.25433520E-21     -0.93834833E-34      0.65304011E-27     -0.24093365E-39
    0.834828817038         0.37387238E-05      0.25587101E-21     -0.11618296E-33      0.66936167E-27     -0.30393603E-39
    0.841105725437         0.38369346E-05      0.24913431E-21     -0.10386254E-33      0.66386711E-27     -0.27676205E-39
    0.847382633835         0.39366149E-05      0.25380237E-21     -0.12171810E-33      0.68873609E-27     -0.33030286E-39
    0.853659542234         0.40377513E-05      0.24429318E-21     -0.11364074E-33      0.67496307E-27     -0.31398054E-39
    0.859936450633         0.41403294E-05      0.25180274E-21     -0.96238206E-34      0.70817858E-27     -0.27066360E-39
    0.866213359032         0.42443332E-05      0.24152411E-21     -0.14316386E-33      0.69128777E-27     -0.40976209E-39
    0.872490267431         0.43497456E-05      0.25146044E-21     -0.77682773E-34      0.73229615E-27     -0.22622562E-39
    0.878767175829         0.44565484E-05      0.24294211E-21     -0.11172676E-33      0.71968326E-27     -0.33097549E-39
    0.885044084228         0.45647219E-05      0.25517059E-21     -0.98219006E-34      0.76876543E-27     -0.29590939E-39
    0.891320992627         0.46742450E-05      0.25200127E-21     -0.99379153E-34      0.77195836E-27     -0.30442929E-39
    0.897597901026         0.47850957E-05      0.26748830E-21     -0.80495172E-34      0.83296624E-27     -0.25066427E-39
    0.903874809424         0.48972503E-05      0.27670823E-21     -0.71324053E-34      0.87574951E-27     -0.22573237E-39
    0.910151717823         0.50106841E-05      0.29947711E-21     -0.83244955E-34      0.96307625E-27     -0.26770406E-39
    0.916428626222         0.51253709E-05      0.34449224E-21     -0.74943300E-34      0.11254337E-26     -0.24483487E-39
    0.922705534621         0.52412834E-05      0.38722465E-21     -0.98167593E-34      0.12848467E-26     -0.32572903E-39
    0.928982443020         0.53583927E-05      0.67318617E-21     -0.10263768E-33      0.22681722E-26     -0.34581804E-39
    0.935259351418         0.54766690E-05      0.26451030E-21     -0.88055753E-34      0.90477547E-27     -0.30120070E-39
    0.941536259817         0.55960809E-05     -0.41689078E-21     -0.57190975E-34     -0.14473815E-26     -0.19855839E-39
    0.947813168216         0.57165958E-05     -0.14409597E-21     -0.50631040E-34     -0.50766869E-27     -0.17837969E-39
    0.954090076615         0.58381799E-05     -0.23442150E-22     -0.60856924E-34     -0.83791378E-28     -0.21752636E-39
    0.960366985013         0.59607981E-05      0.34031836E-22     -0.65599895E-34      0.12338614E-27     -0.23783959E-39
    0.966643893412         0.60844141E-05      0.56276688E-22     -0.68583757E-34      0.20691624E-27     -0.25216646E-39
    0.972920801811         0.62089900E-05      0.10071453E-21     -0.63452072E-34      0.37544766E-27     -0.23653918E-39
    0.979197710210         0.63344872E-05      0.87582504E-22     -0.71769104E-34      0.33095751E-27     -0.27120170E-39
    0.985474618609         0.64608656E-05      0.14003547E-21     -0.62643403E-34      0.53628680E-27     -0.23990230E-39
    0.991751527007         0.65880838E-05      0.85867353E-22     -0.66071894E-34      0.33319472E-27     -0.25638157E-39
    0.998028435406         0.67160994E-05      0.21703376E-21     -0.79658966E-34      0.85313018E-27     -0.31312855E-39
    1.004305343805         0.68448687E-05      0.14779739E-20     -0.18724188E-33      0.58840983E-26     -0.74544594E-39
    1.010582252204         0.69743470E-05      0.30330796E-20     -0.26482431E-33      0.12227270E-25     -0.10675876E-38
    1.016859160602         0.71044882E-05      0.50211489E-20     -0.29534124E-33      0.20492215E-25     -0.12053409E-38
