 
 # Omega; pulse ft; proj flux t=    500.100000000000     
    0.000000000000         0.76130340E-13      0.00000000E+00      0.00000000E+00      0.00000000E+00      0.00000000E+00      0.00000000E+00      0.00000000E+00
    0.006280045285         0.34874077E-10      0.37986856E-21      0.78142967E-31      0.13074226E-30      0.26895060E-40      0.82106729E-33      0.16890220E-42
    0.012560090569         0.13937409E-09      0.14477587E-21      0.34727224E-31      0.99569910E-31      0.23883722E-40      0.14463708E-32      0.31889305E-42
    0.018840135854         0.31389481E-09      0.42296258E-22     -0.14633949E-31      0.43676187E-31     -0.15111387E-40      0.17206593E-32      0.22399286E-42
    0.025120181138         0.55896774E-09      0.40667003E-22     -0.45343493E-32      0.56085271E-31     -0.62534779E-41      0.20728773E-32      0.18472074E-42
    0.031400226423         0.87533792E-09      0.39357990E-22      0.32077634E-32      0.68001509E-31      0.55422737E-41      0.24999299E-32      0.21952647E-42
    0.037680271707         0.12639648E-08      0.34012505E-22      0.72922935E-32      0.70713487E-31      0.15160998E-40      0.29440138E-32      0.31473822E-42
    0.043960316992         0.17260235E-08      0.30215934E-22      0.55319321E-32      0.73530005E-31      0.13461871E-40      0.34057855E-32      0.39927937E-42
    0.050240362276         0.22629062E-08      0.25077699E-22      0.48600585E-32      0.70007433E-31      0.13567441E-40      0.38454354E-32      0.48448352E-42
    0.056520407561         0.28762236E-08      0.21159823E-22      0.39677909E-32      0.66737828E-31      0.12514365E-40      0.42645520E-32      0.56307430E-42
    0.062800452845         0.35678072E-08      0.19938904E-22      0.46637647E-32      0.70207346E-31      0.16421692E-40      0.47054573E-32      0.66620327E-42
    0.069080498130         0.43397112E-08      0.18888611E-22      0.35982819E-32      0.73544139E-31      0.14010164E-40      0.51673178E-32      0.75418774E-42
    0.075360543414         0.51942150E-08      0.17901940E-22      0.44470031E-32      0.76474859E-31      0.18997043E-40      0.56475834E-32      0.87349003E-42
    0.081640588699         0.61338257E-08      0.17078428E-22      0.39580768E-32      0.79527231E-31      0.18431140E-40      0.61470180E-32      0.98923842E-42
    0.087920633984         0.71612808E-08      0.16181564E-22      0.23976579E-32      0.81688900E-31      0.12104024E-40      0.66600280E-32      0.10652522E-41
    0.094200679268         0.82795515E-08      0.15411040E-22     -0.94181787E-33      0.83951297E-31     -0.51305317E-41      0.71872459E-32      0.10330323E-41
    0.100480724553         0.94918457E-08      0.14708974E-22     -0.11748975E-32      0.86117807E-31     -0.68787667E-41      0.77280696E-32      0.98983330E-42
    0.106760769837         0.10801611E-07      0.14094834E-22     -0.65182101E-33      0.88385188E-31     -0.40874069E-41      0.82831326E-32      0.96416420E-42
    0.113040815122         0.12212540E-07      0.13251866E-22      0.59315373E-34      0.88734070E-31      0.39717385E-42      0.88403866E-32      0.96665847E-42
    0.119320860406         0.13728570E-07      0.12380771E-22     -0.62946801E-33      0.88287514E-31     -0.44887483E-41      0.93948362E-32      0.93846893E-42
    0.125600905691         0.15353891E-07      0.11693736E-22     -0.19349853E-33      0.88597533E-31     -0.14660407E-41      0.99512327E-32      0.92926213E-42
    0.131880950975         0.17092949E-07      0.11107173E-22     -0.64858033E-33      0.89223889E-31     -0.52100438E-41      0.10511563E-31      0.89654282E-42
    0.138160996260         0.18950447E-07      0.10519513E-22      0.20766968E-33      0.89427748E-31      0.17654270E-41      0.11073173E-31      0.90762978E-42
    0.144441041544         0.20931352E-07      0.10066553E-22      0.31699704E-33      0.90412843E-31      0.28471120E-41      0.11640970E-31      0.92550977E-42
    0.150721086829         0.23040899E-07      0.96438901E-23     -0.73632035E-35      0.91373514E-31     -0.69764563E-43      0.12214800E-31      0.92507165E-42
    0.157001132113         0.25284593E-07      0.92271240E-23      0.34837319E-33      0.92100548E-31      0.34772874E-41      0.12793195E-31      0.94690917E-42
    0.163281177398         0.27668217E-07      0.88851086E-23      0.26331478E-33      0.93314785E-31      0.27654318E-41      0.13379216E-31      0.96427621E-42
    0.169561222683         0.30197832E-07      0.84991587E-23     -0.33724791E-34      0.93814040E-31     -0.37225554E-42      0.13968373E-31      0.96193843E-42
    0.175841267967         0.32879785E-07      0.82365656E-23      0.60079276E-34      0.95454630E-31      0.69626654E-42      0.14567832E-31      0.96631101E-42
    0.182121313252         0.35720711E-07      0.80622744E-23     -0.11296254E-33      0.98007559E-31     -0.13732084E-41      0.15183324E-31      0.95768720E-42
    0.188401358536         0.38727539E-07      0.78929554E-23      0.27955674E-33      0.10055836E-30      0.35616277E-41      0.15814835E-31      0.98005438E-42
    0.194681403821         0.41907495E-07      0.77766811E-23      0.25968707E-33      0.10375384E-30      0.34646569E-41      0.16466414E-31      0.10018126E-41
    0.200961449105         0.45268105E-07      0.76572805E-23      0.20361625E-33      0.10690470E-30      0.28427239E-41      0.17137780E-31      0.10196650E-41
    0.207241494390         0.48817202E-07      0.75470384E-23      0.24461567E-33      0.11018321E-30      0.35712735E-41      0.17829736E-31      0.10420928E-41
    0.213521539674         0.52562928E-07      0.79297174E-23      0.17104961E-33      0.12098687E-30      0.26097722E-41      0.18589539E-31      0.10584823E-41
    0.219801584959         0.56513737E-07      0.77364145E-23     -0.55741164E-34      0.12328369E-30     -0.88826371E-42      0.19363766E-31      0.10529039E-41
    0.226081630243         0.60678401E-07      0.54131790E-23     -0.13372312E-33      0.90045894E-31     -0.22244263E-41      0.19929258E-31      0.10389344E-41
    0.232361675528         0.65066012E-07      0.40259833E-23      0.19030692E-34      0.69872185E-31      0.33028354E-42      0.20368059E-31      0.10410086E-41
    0.238641720812         0.69685984E-07      0.47723126E-23      0.14248375E-33      0.86371531E-31      0.25787371E-41      0.20910476E-31      0.10572032E-41
    0.244921766097         0.74548059E-07      0.51450254E-23      0.27282019E-34      0.97059747E-31      0.51466916E-42      0.21520016E-31      0.10604354E-41
    0.251201811381         0.79662308E-07      0.51463562E-23     -0.24770703E-34      0.10115157E-30     -0.48686787E-42      0.22155252E-31      0.10573778E-41
    0.257481856666         0.85039131E-07      0.50736911E-23     -0.97824842E-34      0.10385774E-30     -0.20024607E-41      0.22807483E-31      0.10448023E-41
    0.263761901951         0.90689267E-07      0.49123953E-23      0.23536202E-34      0.10468388E-30      0.50155999E-42      0.23464903E-31      0.10479521E-41
    0.270041947235         0.96623785E-07      0.48846011E-23      0.29152395E-34      0.10832398E-30      0.64650179E-42      0.24145182E-31      0.10520121E-41
    0.276321992520         0.10285409E-06      0.48041479E-23     -0.53761268E-34      0.11083200E-30     -0.12402759E-41      0.24841212E-31      0.10442232E-41
    0.282602037804         0.10939194E-06      0.46608965E-23     -0.52522634E-36      0.11182070E-30     -0.12600832E-43      0.25543451E-31      0.10441440E-41
    0.288882083089         0.11624942E-06      0.45952577E-23      0.11800839E-34      0.11461006E-30      0.29432404E-42      0.26263208E-31      0.10459924E-41
    0.295162128373         0.12343895E-06      0.45705773E-23      0.36380406E-34      0.11846916E-30      0.94297853E-42      0.27007199E-31      0.10519143E-41
    0.301442173658         0.13097330E-06      0.46292553E-23     -0.14272507E-34      0.12466156E-30     -0.38434542E-42      0.27790080E-31      0.10495006E-41
    0.307722218942         0.13886558E-06      0.47120090E-23      0.75679748E-35      0.13179063E-30      0.21166941E-42      0.28617731E-31      0.10508299E-41
    0.314002264227         0.14712923E-06      0.50389828E-23      0.72268918E-34      0.14633619E-30      0.20987486E-41      0.29536729E-31      0.10640102E-41
    0.320282309511         0.15577804E-06      0.43580905E-23      0.32445085E-34      0.13137484E-30      0.97805857E-42      0.30361769E-31      0.10701524E-41
    0.326562354796         0.16482612E-06      0.24942267E-23      0.51705764E-34      0.78025851E-31      0.16174898E-41      0.30851774E-31      0.10803103E-41
    0.332842400080         0.17428793E-06      0.23489325E-23     -0.69443904E-34      0.76232802E-31     -0.22537486E-41      0.31330520E-31      0.10661567E-41
    0.339122445365         0.18417826E-06      0.32133728E-23      0.16577421E-34      0.10816472E-30      0.55800935E-42      0.32009799E-31      0.10696610E-41
    0.345402490650         0.19451221E-06      0.33687695E-23      0.33414242E-34      0.11758052E-30      0.11662609E-41      0.32748210E-31      0.10769852E-41
    0.351682535934         0.20530523E-06      0.33784505E-23      0.31086663E-34      0.12223890E-30      0.11247759E-41      0.33515876E-31      0.10840488E-41
    0.357962581219         0.21657306E-06      0.33678690E-23      0.41913808E-35      0.12628876E-30      0.15716890E-42      0.34308975E-31      0.10850358E-41
    0.364242626503         0.22833179E-06      0.35335876E-23     -0.12510435E-33      0.13728850E-30     -0.48606089E-41      0.35171153E-31      0.10545110E-41
    0.370522671788         0.24059779E-06      0.36920090E-23     -0.65546753E-34      0.14858750E-30     -0.26379751E-41      0.36104289E-31      0.10379444E-41
    0.376802717072         0.25338774E-06      0.34971546E-23      0.78719014E-34      0.14575689E-30      0.32809068E-41      0.37019649E-31      0.10585486E-41
    0.383082762357         0.26671863E-06      0.32987472E-23      0.12462901E-33      0.14234835E-30      0.53780219E-41      0.37913603E-31      0.10923229E-41
    0.389362807641         0.28060773E-06      0.32519480E-23      0.82644436E-34      0.14525512E-30      0.36914880E-41      0.38825812E-31      0.11155056E-41
    0.395642852926         0.29507259E-06      0.32182050E-23      0.61383675E-34      0.14875854E-30      0.28374035E-41      0.39760022E-31      0.11333246E-41
    0.401922898210         0.31013104E-06      0.31837183E-23      0.62230728E-34      0.15225788E-30      0.29761172E-41      0.40716209E-31      0.11520147E-41
    0.408202943495         0.32580116E-06      0.31441302E-23      0.21670575E-34      0.15553198E-30      0.10719872E-41      0.41692957E-31      0.11587469E-41
    0.414482988779         0.34210131E-06      0.30882743E-23      0.33774832E-34      0.15798162E-30      0.17277619E-41      0.42685088E-31      0.11695973E-41
    0.420763034064         0.35905007E-06      0.30336007E-23      0.51305789E-34      0.16044217E-30      0.27134791E-41      0.43692672E-31      0.11866381E-41
    0.427043079349         0.37666626E-06      0.29796740E-23      0.14177427E-35      0.16289077E-30      0.77504178E-43      0.44715634E-31      0.11871248E-41
    0.433323124633         0.39496893E-06      0.29152505E-23      0.43108159E-34      0.16469091E-30      0.24353042E-41      0.45749900E-31      0.12024186E-41
    0.439603169918         0.41397733E-06      0.28610427E-23      0.12177270E-34      0.16698704E-30      0.71073607E-42      0.46798586E-31      0.12068821E-41
    0.445883215202         0.43371092E-06      0.27983659E-23      0.53525396E-36      0.16870440E-30      0.32268724E-43      0.47858058E-31      0.12070847E-41
    0.452163260487         0.45418931E-06      0.27533345E-23     -0.13631213E-34      0.17141281E-30     -0.84863085E-42      0.48934538E-31      0.12017553E-41
    0.458443305771         0.47543232E-06      0.23988427E-23      0.68828457E-35      0.15418691E-30      0.44239863E-42      0.49902839E-31      0.12045336E-41
    0.464723351056         0.49745989E-06      0.19598958E-23      0.65221379E-35      0.13002870E-30      0.43270930E-42      0.50719425E-31      0.12072510E-41
    0.471003396340         0.52029212E-06      0.22743364E-23      0.20773762E-34      0.15571147E-30      0.14222667E-41      0.51697300E-31      0.12161829E-41
    0.477283441625         0.54394922E-06      0.27067415E-23      0.12160727E-34      0.19119276E-30      0.85898228E-42      0.52897999E-31      0.12215773E-41
    0.483563486909         0.56845152E-06      0.26660362E-23      0.13017717E-34      0.19424446E-30      0.94845655E-42      0.54117863E-31      0.12275337E-41
    0.489843532194         0.59381941E-06      0.25864833E-23      0.11616298E-34      0.19433426E-30      0.87278535E-42      0.55338291E-31      0.12330148E-41
    0.496123577478         0.62007337E-06      0.25188239E-23      0.19436856E-34      0.19511637E-30      0.15056426E-41      0.56563631E-31      0.12424703E-41
    0.502403622763         0.64723393E-06      0.24404353E-23      0.14987398E-34      0.19485811E-30      0.11966783E-41      0.57787348E-31      0.12499855E-41
    0.508683668048         0.67532166E-06      0.22248929E-23      0.89475283E-36      0.18306894E-30      0.73622174E-43      0.58937030E-31      0.12504479E-41
    0.514963713332         0.70435711E-06      0.24133174E-23      0.53735817E-35      0.20458481E-30      0.45553611E-42      0.60221832E-31      0.12533087E-41
    0.521243758617         0.73436086E-06      0.31590122E-23      0.11118516E-34      0.27584342E-30      0.97086345E-42      0.61954141E-31      0.12594057E-41
    0.527523803901         0.76535344E-06      0.32427294E-23      0.18173415E-34      0.29159049E-30      0.16341774E-41      0.63785342E-31      0.12696684E-41
    0.533803849186         0.79735534E-06      0.29019786E-23     -0.42724852E-35      0.26866252E-30     -0.39554277E-42      0.65472555E-31      0.12671844E-41
    0.540083894470         0.83038696E-06      0.27323530E-23     -0.10185683E-34      0.26037470E-30     -0.97062649E-42      0.67107720E-31      0.12610888E-41
    0.546363939755         0.86446862E-06      0.27867787E-23     -0.22835388E-35      0.27328284E-30     -0.22393310E-42      0.68823948E-31      0.12596825E-41
    0.552643985039         0.89962053E-06      0.28635955E-23      0.13929722E-35      0.28891378E-30      0.14053970E-42      0.70638340E-31      0.12605651E-41
    0.558924030324         0.93586274E-06      0.28341993E-23     -0.57321499E-35      0.29412534E-30     -0.59486661E-42      0.72485460E-31      0.12568293E-41
    0.565204075608         0.97321515E-06      0.28312741E-23      0.40395816E-35      0.30215387E-30      0.43110458E-42      0.74383000E-31      0.12595367E-41
    0.571484120893         0.10116975E-05      0.28429121E-23      0.47417805E-37      0.31192674E-30      0.52027219E-44      0.76341914E-31      0.12595694E-41
    0.577764166177         0.10513292E-05      0.28809746E-23      0.52499031E-35      0.32491534E-30      0.59208230E-42      0.78382398E-31      0.12632877E-41
    0.584044211462         0.10921295E-05      0.29173269E-23     -0.82421183E-35      0.33810859E-30     -0.95523437E-42      0.80505735E-31      0.12572887E-41
    0.590324256747         0.11341175E-05      0.29964506E-23     -0.60316855E-36      0.35679374E-30     -0.71820561E-43      0.82746416E-31      0.12568377E-41
    0.596604302031         0.11773119E-05      0.30686506E-23     -0.78069798E-35      0.37531443E-30     -0.95484060E-42      0.85103407E-31      0.12508413E-41
    0.602884347316         0.12217310E-05      0.31896184E-23     -0.80690569E-35      0.40061109E-30     -0.10134610E-41      0.87619263E-31      0.12444767E-41
    0.609164392600         0.12673928E-05      0.33440015E-23     -0.48283437E-35      0.43120706E-30     -0.62261213E-42      0.90327263E-31      0.12405667E-41
    0.615444437885         0.13143151E-05      0.36075015E-23     -0.10710484E-34      0.47748514E-30     -0.14176285E-41      0.93325891E-31      0.12316639E-41
    0.621724483169         0.13625152E-05      0.45421374E-23      0.28878114E-35      0.61694482E-30      0.39224272E-42      0.97200333E-31      0.12341272E-41
    0.628004528454         0.14120099E-05      0.10501010E-22      0.56064607E-35      0.14633516E-29      0.78127947E-42      0.10639025E-30      0.12390337E-41
    0.634284573738         0.14628155E-05      0.18420342E-22     -0.40645307E-35      0.26329692E-29     -0.58097642E-42      0.12292541E-30      0.12353851E-41
    0.640564619023         0.15149482E-05      0.15790702E-22      0.20441414E-35      0.23146161E-29      0.29963218E-42      0.13746131E-30      0.12372668E-41
    0.646844664307         0.15684233E-05      0.70430949E-23     -0.33074554E-35      0.10584479E-29     -0.49704986E-42      0.14410841E-30      0.12341453E-41
    0.653124709592         0.16232557E-05      0.38129235E-23      0.57397373E-36      0.58734272E-30      0.88414909E-43      0.14779695E-30      0.12347006E-41
    0.659404754876         0.16794598E-05      0.37581668E-23      0.76224061E-35      0.59324797E-30      0.12032401E-41      0.15152257E-30      0.12422570E-41
    0.665684800161         0.17370493E-05      0.38589742E-23      0.66663927E-35      0.62410557E-30      0.10781448E-41      0.15544198E-30      0.12490278E-41
    0.671964845445         0.17960375E-05      0.39167128E-23      0.87553574E-35      0.64883347E-30      0.14503920E-41      0.15951669E-30      0.12581363E-41
    0.678244890730         0.18564368E-05      0.42276923E-23      0.66821858E-35      0.71719902E-30      0.11335870E-41      0.16402073E-30      0.12652553E-41
    0.684524936015         0.19182592E-05      0.60747107E-23      0.64600164E-35      0.10550822E-29      0.11220037E-41      0.17064669E-30      0.12723015E-41
    0.690804981299         0.19815157E-05      0.66855706E-23      0.73055029E-35      0.11885658E-29      0.12987778E-41      0.17811094E-30      0.12804579E-41
    0.697085026584         0.20462170E-05      0.56689906E-23      0.61441820E-35      0.10313696E-29      0.11178220E-41      0.18458799E-30      0.12874779E-41
    0.703365071868         0.21123726E-05      0.57898429E-23      0.10608745E-34      0.10777032E-29      0.19746786E-41      0.19135601E-30      0.12998789E-41
    0.709645117153         0.21799915E-05      0.55785762E-23      0.93046402E-35      0.10621348E-29      0.17715599E-41      0.19802627E-30      0.13110044E-41
    0.715925162437         0.22490820E-05      0.54826042E-23      0.59759491E-35      0.10674984E-29      0.11635558E-41      0.20473020E-30      0.13183116E-41
    0.722205207722         0.23196512E-05      0.58490844E-23     -0.19451732E-36      0.11643744E-29     -0.38722469E-43      0.21204253E-30      0.13180684E-41
    0.728485253006         0.23917059E-05      0.55401892E-23     -0.11520610E-35      0.11273383E-29     -0.23442566E-42      0.21912226E-30      0.13165962E-41
    0.734765298291         0.24652514E-05      0.52191517E-23      0.77139246E-36      0.10853134E-29      0.16040971E-42      0.22593808E-30      0.13176036E-41
    0.741045343575         0.25402927E-05      0.50671604E-23      0.23401961E-36      0.10765800E-29      0.49720319E-43      0.23269905E-30      0.13179158E-41
    0.747325388860         0.26168335E-05      0.51969769E-23      0.12090848E-35      0.11278720E-29      0.26240118E-42      0.23978214E-30      0.13195637E-41
    0.753605434144         0.26948767E-05      0.51879647E-23      0.86362865E-36      0.11498324E-29      0.19140999E-42      0.24700314E-30      0.13207658E-41
    0.759885479429         0.27744242E-05      0.55135967E-23     -0.25497688E-35      0.12476776E-29     -0.57698987E-42      0.25483861E-30      0.13171423E-41
    0.766165524714         0.28554769E-05      0.53604754E-23     -0.25067988E-35      0.12382320E-29     -0.57905284E-42      0.26261476E-30      0.13135058E-41
