 
 # Omega; pulse ft; projected flux at t=    500.250000000000     
    0.000000000000         0.10341091E-10      0.00000000E+00      0.00000000E+00      0.11562883E-08      0.19693516E-19
    0.006276908399         0.40699280E-10      0.32906796E+00      0.52341164E-11      0.12463509E-08      0.19824312E-19
    0.012553816798         0.13187398E-09      0.21943794E+00      0.32268212E-11      0.13465078E-08      0.19800313E-19
    0.018830725196         0.28416575E-09      0.15559064E+00      0.22484114E-11      0.13715194E-08      0.19819572E-19
    0.025107633595         0.49807598E-09      0.12005600E+00      0.17076281E-11      0.13911933E-08      0.19787773E-19
    0.031384541994         0.77430759E-09      0.97539088E-01      0.13537887E-11      0.14056921E-08      0.19510231E-19
    0.037661450393         0.11137660E-08      0.82174567E-01      0.11528229E-11      0.14195417E-08      0.19914680E-19
    0.043938358791         0.15175606E-08      0.70965486E-01      0.97468769E-12      0.14317368E-08      0.19664435E-19
    0.050215267190         0.19870057E-08      0.62520849E-01      0.87262630E-12      0.14451136E-08      0.20169979E-19
    0.056492175589         0.25236231E-08      0.55829246E-01      0.76441197E-12      0.14568397E-08      0.19946995E-19
    0.062769083988         0.31291437E-08      0.50571015E-01      0.68455263E-12      0.14726352E-08      0.19934271E-19
    0.069045992387         0.38055096E-08      0.46229808E-01      0.61346104E-12      0.14883677E-08      0.19750365E-19
    0.075322900785         0.45548772E-08      0.42469985E-01      0.55649286E-12      0.15001875E-08      0.19657262E-19
    0.081599809184         0.53796196E-08      0.39295844E-01      0.52058180E-12      0.15132924E-08      0.20047730E-19
    0.087876717583         0.62823298E-08      0.36548228E-01      0.46830864E-12      0.15262548E-08      0.19556579E-19
    0.094153625982         0.72658239E-08      0.34167528E-01      0.43342420E-12      0.15401931E-08      0.19537760E-19
    0.100430534380         0.83331444E-08      0.32038466E-01      0.40981740E-12      0.15528469E-08      0.19863114E-19
    0.106707442779         0.94875639E-08      0.30167602E-01      0.38134583E-12      0.15668037E-08      0.19805819E-19
    0.112984351178         0.10732589E-07      0.28470185E-01      0.35413775E-12      0.15797571E-08      0.19650438E-19
    0.119261259577         0.12071965E-07      0.26958525E-01      0.33051377E-12      0.15940007E-08      0.19542581E-19
    0.125538167976         0.13509678E-07      0.25572091E-01      0.31423044E-12      0.16074936E-08      0.19752918E-19
    0.131815076374         0.15049961E-07      0.24324611E-01      0.29408024E-12      0.16222956E-08      0.19613267E-19
    0.138091984773         0.16697298E-07      0.23169152E-01      0.28273662E-12      0.16364460E-08      0.19969794E-19
    0.144368893172         0.18456429E-07      0.22122507E-01      0.26644785E-12      0.16520462E-08      0.19897571E-19
    0.150645801571         0.20332352E-07      0.21139409E-01      0.24918235E-12      0.16666225E-08      0.19645436E-19
    0.156922709970         0.22330332E-07      0.20245452E-01      0.23545658E-12      0.16828704E-08      0.19571946E-19
    0.163199618368         0.24455902E-07      0.19396866E-01      0.22444366E-12      0.16978914E-08      0.19646522E-19
    0.169476526767         0.26714868E-07      0.18623149E-01      0.21870149E-12      0.17147878E-08      0.20137660E-19
    0.175753435166         0.29113317E-07      0.17883444E-01      0.20095391E-12      0.17304252E-08      0.19444561E-19
    0.182030343565         0.31657619E-07      0.17207307E-01      0.19571133E-12      0.17480794E-08      0.19882191E-19
    0.188307251963         0.34354433E-07      0.16554981E-01      0.18141810E-12      0.17642423E-08      0.19333486E-19
    0.194584160362         0.37210710E-07      0.15957847E-01      0.17359813E-12      0.17825781E-08      0.19391854E-19
    0.200861068761         0.40233700E-07      0.15377853E-01      0.16460651E-12      0.17993005E-08      0.19259944E-19
    0.207137977160         0.43430955E-07      0.14845905E-01      0.15477996E-12      0.18182773E-08      0.18956938E-19
    0.213414885559         0.46810335E-07      0.14326914E-01      0.15334704E-12      0.18356231E-08      0.19647452E-19
    0.219691793957         0.50380010E-07      0.13849765E-01      0.14866335E-12      0.18552422E-08      0.19914166E-19
    0.225968702356         0.54148468E-07      0.13382804E-01      0.14281698E-12      0.18732632E-08      0.19990862E-19
    0.232245610755         0.58124513E-07      0.12952195E-01      0.13612739E-12      0.18935161E-08      0.19900828E-19
    0.238522519154         0.62317278E-07      0.12530026E-01      0.13106078E-12      0.19122508E-08      0.20001641E-19
    0.244799427552         0.66736218E-07      0.12139343E-01      0.12283619E-12      0.19331261E-08      0.19561012E-19
    0.251076335951         0.71391124E-07      0.11756005E-01      0.11761743E-12      0.19525941E-08      0.19535473E-19
    0.257353244350         0.76292116E-07      0.11399794E-01      0.11592623E-12      0.19740622E-08      0.20074536E-19
    0.263630152749         0.81449655E-07      0.11051825E-01      0.10919751E-12      0.19945364E-08      0.19707009E-19
    0.269907061148         0.86874540E-07      0.10725935E-01      0.10649331E-12      0.20166347E-08      0.20022320E-19
    0.276183969546         0.92577913E-07      0.10409040E-01      0.10126022E-12      0.20381370E-08      0.19827209E-19
    0.282460877945         0.98571259E-07      0.10110511E-01      0.96736540E-13      0.20610043E-08      0.19719521E-19
    0.288737786344         0.10486641E-06      0.98218710E-02      0.92246554E-13      0.20837269E-08      0.19570266E-19
    0.295014694743         0.11147554E-06      0.95479060E-02      0.87287399E-13      0.21074530E-08      0.19266432E-19
    0.301291603141         0.11841119E-06      0.92849215E-02      0.87659607E-13      0.21315609E-08      0.20124219E-19
    0.307568511540         0.12568621E-06      0.90326224E-02      0.81897155E-13      0.21561225E-08      0.19549173E-19
    0.313845419939         0.13331385E-06      0.87993541E-02      0.80087036E-13      0.21833536E-08      0.19871722E-19
    0.320122328338         0.14130766E-06      0.85640290E-02      0.76376893E-13      0.22082167E-08      0.19693619E-19
    0.326399236737         0.14968158E-06      0.82881476E-02      0.74372774E-13      0.22201918E-08      0.19922645E-19
    0.332676145135         0.15844985E-06      0.80720947E-02      0.70178344E-13      0.22457956E-08      0.19524823E-19
    0.338953053534         0.16762710E-06      0.78898435E-02      0.67574067E-13      0.22792233E-08      0.19520842E-19
    0.345229961933         0.17722828E-06      0.76931959E-02      0.66495755E-13      0.23069869E-08      0.19940326E-19
    0.351506870332         0.18726866E-06      0.75077511E-02      0.63556309E-13      0.23364418E-08      0.19778974E-19
    0.357783778731         0.19776389E-06      0.73242963E-02      0.60925228E-13      0.23648634E-08      0.19671492E-19
    0.364060687129         0.20872991E-06      0.71559781E-02      0.58834983E-13      0.23965898E-08      0.19704269E-19
    0.370337595528         0.22018301E-06      0.69931363E-02      0.56615958E-13      0.24286884E-08      0.19662497E-19
    0.376614503927         0.23213979E-06      0.68246855E-02      0.54485814E-13      0.24572481E-08      0.19617777E-19
    0.382891412326         0.24461718E-06      0.66633478E-02      0.51665426E-13      0.24866669E-08      0.19280805E-19
    0.389168320724         0.25763241E-06      0.65147973E-02      0.51292051E-13      0.25192875E-08      0.19834757E-19
    0.395445229123         0.27120301E-06      0.63688871E-02      0.48971938E-13      0.25514409E-08      0.19618656E-19
    0.401722137522         0.28534681E-06      0.62307411E-02      0.47693530E-13      0.25852394E-08      0.19788849E-19
    0.407999045921         0.30008192E-06      0.60952668E-02      0.45288646E-13      0.26187088E-08      0.19457356E-19
    0.414275954320         0.31542674E-06      0.59674429E-02      0.44745882E-13      0.26540607E-08      0.19901035E-19
    0.420552862718         0.33139993E-06      0.58416300E-02      0.42482853E-13      0.26889311E-08      0.19555067E-19
    0.426829771117         0.34802041E-06      0.57235116E-02      0.40490951E-13      0.27260033E-08      0.19285096E-19
    0.433106679516         0.36530735E-06      0.56062104E-02      0.40073706E-13      0.27621466E-08      0.19744077E-19
    0.439383587915         0.38328015E-06      0.54970199E-02      0.38834353E-13      0.28010032E-08      0.19788021E-19
    0.445660496313         0.40195843E-06      0.53859282E-02      0.37930298E-13      0.28376012E-08      0.19983753E-19
    0.451937404712         0.42136202E-06      0.52838431E-02      0.36529024E-13      0.28776689E-08      0.19894314E-19
    0.458214313111         0.44151098E-06      0.51605678E-02      0.35298586E-13      0.29045854E-08      0.19867534E-19
    0.464491221510         0.46242550E-06      0.50163010E-02      0.33959842E-13      0.29171694E-08      0.19748937E-19
    0.470768129909         0.48412598E-06      0.49778418E-02      0.32163888E-13      0.29902413E-08      0.19321181E-19
    0.477045038307         0.50663295E-06      0.49408146E-02      0.31976680E-13      0.30651124E-08      0.19837239E-19
    0.483321946706         0.52996708E-06      0.48475467E-02      0.30829251E-13      0.31049040E-08      0.19746456E-19
    0.489598855105         0.55414917E-06      0.47682974E-02      0.30095468E-13      0.31525605E-08      0.19897623E-19
    0.495875763504         0.57920011E-06      0.46862444E-02      0.28967318E-13      0.31973818E-08      0.19764137E-19
    0.502152671902         0.60514088E-06      0.46124336E-02      0.27930079E-13      0.32468681E-08      0.19661049E-19
    0.508429580301         0.63199252E-06      0.45304677E-02      0.27435982E-13      0.32895612E-08      0.19921197E-19
    0.514706488700         0.65977612E-06      0.44693192E-02      0.25878048E-13      0.33465100E-08      0.19376809E-19
    0.520983397099         0.68851279E-06      0.44724689E-02      0.25631586E-13      0.34526238E-08      0.19786884E-19
    0.527260305498         0.71822366E-06      0.44029882E-02      0.24791171E-13      0.35034502E-08      0.19726293E-19
    0.533537213896         0.74892983E-06      0.43203517E-02      0.24633670E-13      0.35424956E-08      0.20198510E-19
    0.539814122295         0.78065236E-06      0.42598444E-02      0.23286447E-13      0.35984956E-08      0.19671182E-19
    0.546091030694         0.81341227E-06      0.42038369E-02      0.22814048E-13      0.36576768E-08      0.19850060E-19
    0.552367939093         0.84723047E-06      0.41599404E-02      0.22273797E-13      0.37271255E-08      0.19956353E-19
    0.558644847491         0.88212778E-06      0.41055985E-02      0.21272984E-13      0.37869187E-08      0.19621758E-19
    0.564921755890         0.91812490E-06      0.40602123E-02      0.20649629E-13      0.38545707E-08      0.19603767E-19
    0.571198664289         0.95524236E-06      0.40139831E-02      0.20324983E-13      0.39211706E-08      0.19855023E-19
    0.577475572688         0.99350052E-06      0.39762490E-02      0.19424724E-13      0.39959667E-08      0.19521049E-19
    0.583752481087         0.10329195E-05      0.39322405E-02      0.19368481E-13      0.40643549E-08      0.20019218E-19
    0.590029389485         0.10735193E-05      0.39005036E-02      0.18898824E-13      0.41454407E-08      0.20085600E-19
    0.596306297884         0.11153196E-05      0.38607797E-02      0.18519189E-13      0.42181182E-08      0.20233251E-19
    0.602583206283         0.11583396E-05      0.38284989E-02      0.17495145E-13      0.42989384E-08      0.19644919E-19
    0.608860114682         0.12025986E-05      0.37947869E-02      0.17462171E-13      0.43782884E-08      0.20147225E-19
    0.615137023081         0.12481153E-05      0.37535999E-02      0.16890287E-13      0.44488178E-08      0.20018598E-19
    0.621413931479         0.12949080E-05      0.37393607E-02      0.16397813E-13      0.45516524E-08      0.19959868E-19
    0.627690839878         0.13429948E-05      0.36693709E-02      0.15683141E-13      0.45859989E-08      0.19600872E-19
    0.633967748277         0.13923932E-05      0.46930323E-02      0.15091357E-13      0.60209092E-08      0.19361403E-19
    0.640244656676         0.14431204E-05      0.51683876E-02      0.14839492E-13      0.68049586E-08      0.19538420E-19
    0.646521565074         0.14951931E-05      0.41978767E-02      0.14478713E-13      0.56709750E-08      0.19559513E-19
    0.652798473473         0.15486273E-05      0.39562068E-02      0.14652236E-13      0.54822719E-08      0.20304182E-19
    0.659075381872         0.16034389E-05      0.39356366E-02      0.13675692E-13      0.55930166E-08      0.19434815E-19
    0.665352290271         0.16596427E-05      0.39141864E-02      0.13333146E-13      0.57031955E-08      0.19427164E-19
    0.671629198670         0.17172535E-05      0.40198934E-02      0.12980547E-13      0.60038962E-08      0.19387046E-19
    0.677906107068         0.17762849E-05      0.40849939E-02      0.12512691E-13      0.62524223E-08      0.19151713E-19
    0.684183015467         0.18367504E-05      0.51295255E-02      0.12616081E-13      0.80439406E-08      0.19784092E-19
    0.690459923866         0.18986625E-05      0.74352288E-02      0.12075401E-13      0.11943110E-07      0.19396558E-19
    0.696736832265         0.19620330E-05      0.92179950E-02      0.12037013E-13      0.15163094E-07      0.19800222E-19
    0.703013740663         0.20268732E-05      0.80357150E-02      0.11680297E-13      0.13533219E-07      0.19671182E-19
    0.709290649062         0.20931935E-05      0.62672760E-02      0.11472146E-13      0.10803830E-07      0.19776234E-19
    0.715567557461         0.21610035E-05      0.66551098E-02      0.11110155E-13      0.11740155E-07      0.19599217E-19
    0.721844465860         0.22303120E-05      0.71920423E-02      0.10515133E-13      0.12980398E-07      0.18978005E-19
    0.728121374259         0.23011271E-05      0.75608000E-02      0.10639517E-13      0.13957845E-07      0.19641404E-19
    0.734398282657         0.23734559E-05      0.70166331E-02      0.99270514E-14      0.13246224E-07      0.18740604E-19
    0.740675191056         0.24473047E-05      0.70591402E-02      0.10027786E-13      0.13624666E-07      0.19354372E-19
    0.746952099455         0.25226788E-05      0.69350421E-02      0.98860840E-14      0.13681450E-07      0.19503264E-19
    0.753229007854         0.25995828E-05      0.72925283E-02      0.95946411E-14      0.14701733E-07      0.19342791E-19
    0.759505916252         0.26780200E-05      0.74242335E-02      0.96976626E-14      0.15291429E-07      0.19973930E-19
    0.765782824651         0.27579930E-05      0.65597718E-02      0.91809135E-14      0.13800349E-07      0.19314667E-19
    0.772059733050         0.28395032E-05      0.63981888E-02      0.93631706E-14      0.13745556E-07      0.20115378E-19
    0.778336641449         0.29225512E-05      0.68032706E-02      0.87286901E-14      0.14921971E-07      0.19145095E-19
    0.784613549848         0.30071363E-05      0.70687800E-02      0.87954369E-14      0.15825432E-07      0.19691034E-19
    0.790890458246         0.30932570E-05      0.69661823E-02      0.81595031E-14      0.15915061E-07      0.18641342E-19
    0.797167366645         0.31809104E-05      0.72361140E-02      0.81949474E-14      0.16866351E-07      0.19101255E-19
    0.803444275044         0.32700927E-05      0.70541525E-02      0.81128517E-14      0.16771154E-07      0.19288198E-19
    0.809721183443         0.33607990E-05      0.73446562E-02      0.75413722E-14      0.17807064E-07      0.18284000E-19
    0.815998091842         0.34530231E-05      0.71244930E-02      0.77749962E-14      0.17610760E-07      0.19218714E-19
    0.822275000240         0.35467578E-05      0.73967158E-02      0.71815825E-14      0.18636621E-07      0.18094576E-19
    0.828551908639         0.36419946E-05      0.71924476E-02      0.71708827E-14      0.18467584E-07      0.18412213E-19
    0.834828817038         0.37387238E-05      0.74228314E-02      0.68495043E-14      0.19418217E-07      0.17918386E-19
    0.841105725437         0.38369346E-05      0.72860482E-02      0.70493771E-14      0.19415101E-07      0.18784445E-19
    0.847382633835         0.39366149E-05      0.74643520E-02      0.64640086E-14      0.20255795E-07      0.17541192E-19
    0.853659542234         0.40377513E-05      0.74322836E-02      0.68086393E-14      0.20534822E-07      0.18811741E-19
    0.859936450633         0.41403294E-05      0.75563265E-02      0.71358319E-14      0.21251669E-07      0.20069056E-19
    0.866213359032         0.42443332E-05      0.76588060E-02      0.65788583E-14      0.21920955E-07      0.18829939E-19
    0.872490267431         0.43497456E-05      0.77388058E-02      0.66642043E-14      0.22536736E-07      0.19407312E-19
    0.878767175829         0.44565484E-05      0.80107209E-02      0.63329315E-14      0.23730681E-07      0.18760456E-19
    0.885044084228         0.45647219E-05      0.80672935E-02      0.64148178E-14      0.24304745E-07      0.19326248E-19
    0.891320992627         0.46742450E-05      0.85777042E-02      0.59092983E-14      0.26276179E-07      0.18102021E-19
    0.897597901026         0.47850957E-05      0.86299432E-02      0.61424370E-14      0.26873890E-07      0.19127724E-19
    0.903874809424         0.48972503E-05      0.95736567E-02      0.62136213E-14      0.30299515E-07      0.19665392E-19
    0.910151717823         0.50106841E-05      0.96022811E-02      0.56711680E-14      0.30879585E-07      0.18237678E-19
    0.916428626222         0.51253709E-05      0.11762586E-01      0.58113954E-14      0.38427600E-07      0.18985449E-19
    0.922705534621         0.52412834E-05      0.11298958E-01      0.50646593E-14      0.37490972E-07      0.16805001E-19
    0.928982443020         0.53583927E-05      0.22751429E-01      0.46390536E-14      0.76656594E-07      0.15630405E-19
    0.935259351418         0.54766690E-05      0.18594819E-01      0.40220419E-14      0.63604842E-07      0.13757668E-19
    0.941536259817         0.55960809E-05     -0.40052740E-02      0.57280949E-14     -0.13905704E-07      0.19887076E-19
    0.947813168216         0.57165958E-05      0.13159629E-02      0.56185412E-14      0.46363072E-08      0.19794846E-19
    0.954090076615         0.58381799E-05      0.61109435E-02      0.53689138E-14      0.21842893E-07      0.19190590E-19
    0.960366985013         0.59607981E-05      0.74220816E-02      0.54491205E-14      0.26909568E-07      0.19756382E-19
    0.966643893412         0.60844141E-05      0.94937127E-02      0.49984949E-14      0.34906165E-07      0.18378299E-19
    0.972920801811         0.62089900E-05      0.11257719E-01      0.50254265E-14      0.41966978E-07      0.18733987E-19
    0.979197710210         0.63344872E-05      0.13403598E-01      0.42843079E-14      0.50649631E-07      0.16189579E-19
    0.985474618609         0.64608656E-05      0.16127321E-01      0.44658878E-14      0.61761993E-07      0.17102786E-19
    0.991751527007         0.65880838E-05      0.20685179E-01      0.36034607E-14      0.80265574E-07      0.13982661E-19
    0.998028435406         0.67160994E-05      0.45651506E-02      0.46816972E-14      0.17944986E-07      0.18403114E-19
    1.004305343805         0.68448687E-05      0.57613008E-02      0.44338563E-14      0.22936846E-07      0.17652034E-19
    1.010582252204         0.69743470E-05      0.87501654E-01     -0.12738150E-14      0.35274588E-06     -0.51351372E-20
    1.016859160602         0.71044882E-05      0.19542451E+00     -0.48384177E-14      0.79756268E-06     -0.19746456E-19
