 
 # Omega; pulse ft; projected flux at t=    500.250000000000     
    0.000000000000         0.10341091E-10      0.00000000E+00      0.00000000E+00      0.60241276E-10     -0.66174449E-23
    0.006276908399         0.40699280E-10      0.16022256E-01      0.48534362E-14      0.60684588E-10      0.18382479E-22
    0.012553816798         0.13187398E-09      0.99688552E-02      0.20611275E-14      0.61170556E-10      0.12647422E-22
    0.018830725196         0.28416575E-09      0.69910294E-02      0.47573411E-15      0.61625382E-10      0.41935593E-23
    0.025107633595         0.49807598E-09      0.53612340E-02      0.14139509E-14      0.62125283E-10      0.16384679E-22
    0.031384541994         0.77430759E-09      0.43434608E-02      0.89469740E-15      0.62596122E-10      0.12894001E-22
    0.037661450393         0.11137660E-08      0.36532601E-02      0.44660866E-15      0.63109004E-10      0.77150344E-23
    0.043938358791         0.15175606E-08      0.31522493E-02     -0.86764746E-16      0.63596989E-10     -0.17504887E-23
    0.050215267190         0.19870057E-08      0.27741182E-02      0.60864693E-15      0.64121268E-10      0.14068331E-22
    0.056492175589         0.25236231E-08      0.24767235E-02     -0.52409178E-16      0.64629015E-10     -0.13675945E-23
    0.062769083988         0.31291437E-08      0.22379028E-02     -0.92360419E-16      0.65168051E-10     -0.26895487E-23
    0.069045992387         0.38055096E-08      0.20405136E-02      0.41325587E-15      0.65694294E-10      0.13304764E-22
    0.075322900785         0.45548772E-08      0.18752785E-02      0.31764293E-15      0.66241356E-10      0.11220253E-22
    0.081599809184         0.53796196E-08      0.17342862E-02      0.21360983E-15      0.66787778E-10      0.82261658E-23
    0.087876717583         0.62823298E-08      0.16126267E-02     -0.71552368E-16      0.67343324E-10     -0.29880284E-23
    0.094153625982         0.72658239E-08      0.15065333E-02     -0.58320743E-16      0.67911036E-10     -0.26289642E-23
    0.100430534380         0.83331444E-08      0.14129058E-02      0.10076544E-15      0.68481010E-10      0.48839199E-23
    0.106707442779         0.94875639E-08      0.13299620E-02     -0.16284457E-15      0.69073749E-10     -0.84575986E-23
    0.112984351178         0.10732589E-07      0.12553425E-02     -0.30033062E-16      0.69656593E-10     -0.16664781E-23
    0.119261259577         0.12071965E-07      0.11884496E-02     -0.32897622E-16      0.70270513E-10     -0.19451669E-23
    0.125538167976         0.13509678E-07      0.11273746E-02      0.42175085E-16      0.70868178E-10      0.26511785E-23
    0.131815076374         0.15049961E-07      0.10721590E-02     -0.79793937E-16      0.71506130E-10     -0.53217440E-23
    0.138091984773         0.16697298E-07      0.10211214E-02      0.19019588E-15      0.72122189E-10      0.13433607E-22
    0.144368893172         0.18456429E-07      0.97462700E-03      0.11822055E-15      0.72782386E-10      0.88283759E-23
    0.150645801571         0.20332352E-07      0.93124903E-03     -0.10273703E-15      0.73419298E-10     -0.80997461E-23
    0.156922709970         0.22330332E-07      0.89148059E-03      0.29124867E-16      0.74102878E-10      0.24209573E-23
    0.163199618368         0.24455902E-07      0.85408770E-03     -0.31560811E-17      0.74761983E-10     -0.27626540E-24
    0.169476526767         0.26714868E-07      0.81961546E-03      0.49303691E-17      0.75468796E-10      0.45397998E-24
    0.175753435166         0.29113317E-07      0.78701488E-03     -0.14455104E-15      0.76152578E-10     -0.13986946E-22
    0.182030343565         0.31657619E-07      0.75681506E-03      0.10257507E-17      0.76884365E-10      0.10420537E-24
    0.188307251963         0.34354433E-07      0.72811312E-03     -0.16913318E-15      0.77594046E-10     -0.18024298E-22
    0.194584160362         0.37210710E-07      0.70141640E-03     -0.48812369E-16      0.78352019E-10     -0.54526066E-23
    0.200861068761         0.40233700E-07      0.67592948E-03     -0.61927682E-16      0.79087782E-10     -0.72459083E-23
    0.207137977160         0.43430955E-07      0.65214922E-03     -0.12960134E-15      0.79873080E-10     -0.15873144E-22
    0.213414885559         0.46810335E-07      0.62936519E-03     -0.21490454E-15      0.80636851E-10     -0.27534452E-22
    0.219691793957         0.50380010E-07      0.60805336E-03      0.29898451E-16      0.81451654E-10      0.40050405E-23
    0.225968702356         0.54148468E-07      0.58755869E-03      0.11086031E-15      0.82243756E-10      0.15517714E-22
    0.232245610755         0.58124513E-07      0.56835201E-03      0.72881880E-16      0.83088901E-10      0.10654797E-22
    0.238522519154         0.62317278E-07      0.54982582E-03      0.14241530E-15      0.83910830E-10      0.21734494E-22
    0.244799427552         0.66736218E-07      0.53243829E-03      0.11614353E-15      0.84787978E-10      0.18495242E-22
    0.251076335951         0.71391124E-07      0.51562765E-03     -0.22012162E-16      0.85642322E-10     -0.36560737E-23
    0.257353244350         0.76292116E-07      0.49982308E-03      0.62760732E-16      0.86552600E-10      0.10868055E-22
    0.263630152749         0.81449655E-07      0.48451773E-03      0.34366913E-16      0.87441510E-10      0.62022390E-23
    0.269907061148         0.86874540E-07      0.47008969E-03      0.11600376E-16      0.88383827E-10      0.21810426E-23
    0.276183969546         0.92577913E-07      0.45611555E-03     -0.90596205E-17      0.89309488E-10     -0.17739147E-23
    0.282460877945         0.98571259E-07      0.44290429E-03      0.35355486E-16      0.90285018E-10      0.72071342E-23
    0.288737786344         0.10486641E-06      0.43012993E-03      0.33872604E-16      0.91252809E-10      0.71861316E-23
    0.295014694743         0.11147554E-06      0.41800104E-03     -0.18093771E-16      0.92262903E-10     -0.39937314E-23
    0.301291603141         0.11841119E-06      0.40628994E-03     -0.68832594E-16      0.93272921E-10     -0.15802058E-22
    0.307568511540         0.12568621E-06      0.39512696E-03     -0.28866215E-16      0.94318359E-10     -0.68904791E-23
    0.313845419939         0.13331385E-06      0.38438402E-03     -0.14428689E-16      0.95375888E-10     -0.35801411E-23
    0.320122328338         0.14130766E-06      0.37409695E-03     -0.18759386E-16      0.96460103E-10     -0.48370679E-23
    0.326399236737         0.14968158E-06      0.36421896E-03     -0.47525160E-17      0.97565342E-10     -0.12730827E-23
    0.332676145135         0.15844985E-06      0.35472876E-03      0.11671924E-16      0.98691643E-10      0.32473301E-23
    0.338953053534         0.16762710E-06      0.34563783E-03     -0.93507870E-17      0.99848090E-10     -0.27012617E-23
    0.345229961933         0.17722828E-06      0.33686983E-03      0.23058753E-17      0.10101839E-09      0.69147129E-24
    0.351506870332         0.18726866E-06      0.32848682E-03      0.24067375E-16      0.10222639E-09      0.74898620E-23
    0.357783778731         0.19776389E-06      0.32038744E-03     -0.17632997E-16      0.10344646E-09     -0.56933291E-23
    0.364060687129         0.20872991E-06      0.31265030E-03      0.10014587E-16      0.10470889E-09      0.33539589E-23
    0.370337595528         0.22018301E-06      0.30515922E-03      0.15202417E-16      0.10598058E-09      0.52797388E-23
    0.376614503927         0.23213979E-06      0.29800828E-03      0.20003413E-16      0.10729876E-09      0.72022874E-23
    0.382891412326         0.24461718E-06      0.29109391E-03     -0.61907217E-17      0.10863212E-09     -0.23102896E-23
    0.389168320724         0.25763241E-06      0.28449568E-03     -0.16753206E-16      0.11001515E-09     -0.64785044E-23
    0.395445229123         0.27120301E-06      0.27808583E-03     -0.45006228E-17      0.11140401E-09     -0.18029952E-23
    0.401722137522         0.28534681E-06      0.27196771E-03     -0.80912360E-17      0.11284398E-09     -0.33571901E-23
    0.407999045921         0.30008192E-06      0.26604046E-03     -0.15748622E-16      0.11429893E-09     -0.67660789E-23
    0.414275954320         0.31542674E-06      0.26038366E-03     -0.44897925E-17      0.11580740E-09     -0.19968657E-23
    0.420552862718         0.33139993E-06      0.25489587E-03      0.25158385E-16      0.11732982E-09      0.11580529E-22
    0.426829771117         0.34802041E-06      0.24965626E-03     -0.37991338E-16      0.11890669E-09     -0.18094576E-22
    0.433106679516         0.36530735E-06      0.24458060E-03     -0.24278366E-16      0.12050341E-09     -0.11961807E-22
    0.439383587915         0.38328015E-06      0.23972956E-03      0.74129078E-17      0.12215406E-09      0.37772427E-23
    0.445660496313         0.40195843E-06      0.23502965E-03     -0.11953124E-16      0.12382646E-09     -0.62975586E-23
    0.451937404712         0.42136202E-06      0.23054180E-03      0.55413598E-17      0.12555690E-09      0.30179168E-23
    0.458214313111         0.44151098E-06      0.22617575E-03      0.36775675E-16      0.12730126E-09      0.20698902E-22
    0.464491221510         0.46242550E-06      0.22207313E-03      0.37238033E-16      0.12914395E-09      0.21655330E-22
    0.470768129909         0.48412598E-06      0.21815491E-03     -0.17589075E-16      0.13104792E-09     -0.10565940E-22
    0.477045038307         0.50663295E-06      0.21428820E-03      0.12146218E-16      0.13293707E-09      0.75350984E-23
    0.483321946706         0.52996708E-06      0.21056196E-03      0.15123971E-16      0.13486712E-09      0.96870605E-23
    0.489598855105         0.55414917E-06      0.20701158E-03      0.14896191E-16      0.13686574E-09      0.98486192E-23
    0.495875763504         0.57920011E-06      0.20358307E-03     -0.55029675E-17      0.13890287E-09     -0.37546245E-23
    0.502152671902         0.60514088E-06      0.20027770E-03     -0.46911223E-17      0.14098312E-09     -0.33022601E-23
    0.508429580301         0.63199252E-06      0.19705145E-03      0.34754935E-16      0.14307856E-09      0.25235471E-22
    0.514706488700         0.65977612E-06      0.19352160E-03     -0.39959553E-17      0.14490394E-09     -0.29920674E-23
    0.520983397099         0.68851279E-06      0.19099122E-03     -0.90241687E-17      0.14744000E-09     -0.69664117E-23
    0.527260305498         0.71822366E-06      0.18909214E-03      0.54820844E-17      0.15046029E-09      0.43620853E-23
    0.533537213896         0.74892983E-06      0.18649024E-03      0.15124295E-16      0.15291367E-09      0.12401247E-22
    0.539814122295         0.78065236E-06      0.18398725E-03     -0.13999555E-17      0.15542288E-09     -0.11826098E-23
    0.546091030694         0.81341227E-06      0.18129564E-03      0.14631779E-17      0.15774181E-09      0.12730827E-23
    0.552367939093         0.84723047E-06      0.17915885E-03      0.28303000E-16      0.16051852E-09      0.25358256E-22
    0.558644847491         0.88212778E-06      0.17699438E-03     -0.31387656E-17      0.16325594E-09     -0.28951321E-23
    0.564921755890         0.91812490E-06      0.17509627E-03     -0.18671917E-16      0.16622799E-09     -0.17726222E-22
    0.571198664289         0.95524236E-06      0.17313459E-03      0.13825997E-16      0.16913132E-09      0.13506308E-22
    0.577475572688         0.99350052E-06      0.17129226E-03     -0.10378764E-16      0.17214167E-09     -0.10430231E-22
    0.583752481087         0.10329195E-05      0.16967621E-03      0.20051081E-16      0.17537695E-09      0.20724752E-22
    0.590029389485         0.10735193E-05      0.16800027E-03      0.16636289E-16      0.17855006E-09      0.17680986E-22
    0.596306297884         0.11153196E-05      0.16665626E-03      0.29314194E-16      0.18208130E-09      0.32027399E-22
    0.602583206283         0.11583396E-05      0.16520662E-03      0.10359295E-16      0.18550693E-09      0.11632227E-22
    0.608860114682         0.12025986E-05      0.16417768E-03      0.11549470E-16      0.18942229E-09      0.13325363E-22
    0.615137023081         0.12481153E-05      0.16315285E-03      0.31624359E-17      0.19337098E-09      0.37481622E-23
    0.621413931479         0.12949080E-05      0.16262805E-03      0.30049350E-17      0.19795532E-09      0.36576893E-23
    0.627690839878         0.13429948E-05      0.16434530E-03      0.14250406E-16      0.20539962E-09      0.17810233E-22
    0.633967748277         0.13923932E-05      0.16770656E-03     -0.10960762E-16      0.21515854E-09     -0.14062070E-22
    0.640244656676         0.14431204E-05      0.16434816E-03      0.11769802E-16      0.21638904E-09      0.15496712E-22
    0.646521565074         0.14951931E-05      0.15924833E-03     -0.79313451E-17      0.21513098E-09     -0.10714574E-22
    0.652798473473         0.15486273E-05      0.15721509E-03     -0.12871165E-17      0.21785915E-09     -0.17836082E-23
    0.659075381872         0.16034389E-05      0.15694446E-03     -0.20572253E-16      0.22303710E-09     -0.29235665E-22
    0.665352290271         0.16596427E-05      0.15630507E-03     -0.17386001E-16      0.22774550E-09     -0.25332406E-22
    0.671629198670         0.17172535E-05      0.15683848E-03     -0.62566237E-17      0.23424551E-09     -0.93445560E-23
    0.677906107068         0.17762849E-05      0.15633802E-03     -0.62065580E-17      0.23928832E-09     -0.94996523E-23
    0.684183015467         0.18367504E-05      0.15911248E-03      0.14786015E-16      0.24951456E-09      0.23186907E-22
    0.690459923866         0.18986625E-05      0.15393134E-03     -0.15794925E-16      0.24725789E-09     -0.25371180E-22
    0.696736832265         0.19620330E-05      0.13771495E-03     -0.55314843E-17      0.22653351E-09     -0.90989867E-23
    0.703013740663         0.20268732E-05      0.14475613E-03     -0.12662742E-17      0.24378868E-09     -0.21325750E-23
    0.709290649062         0.20931935E-05      0.15857242E-03     -0.98218371E-18      0.27335474E-09     -0.16931353E-23
    0.715567557461         0.21610035E-05      0.17121349E-03      0.98103009E-17      0.30203453E-09      0.17306169E-22
    0.721844465860         0.22303120E-05      0.17166624E-03     -0.14179136E-17      0.30982801E-09     -0.25590900E-23
    0.728121374259         0.23011271E-05      0.16996268E-03      0.15514561E-16      0.31376478E-09      0.28641129E-22
    0.734398282657         0.23734559E-05      0.16999839E-03     -0.21415282E-16      0.32092838E-09     -0.40428452E-22
    0.740675191056         0.24473047E-05      0.17247736E-03     -0.64620995E-17      0.33289413E-09     -0.12472333E-22
    0.746952099455         0.25226788E-05      0.17777518E-03     -0.40225896E-17      0.35071484E-09     -0.79357640E-23
    0.753229007854         0.25995828E-05      0.17536077E-03     -0.13809427E-16      0.35352722E-09     -0.27839797E-22
    0.759505916252         0.26780200E-05      0.18050856E-03      0.83835966E-17      0.37178704E-09      0.17267395E-22
    0.765782824651         0.27579930E-05      0.17599496E-03     -0.73845410E-17      0.37025554E-09     -0.15535486E-22
    0.772059733050         0.28395032E-05      0.17821549E-03      0.22211444E-16      0.38286945E-09      0.47717982E-22
    0.778336641449         0.29225512E-05      0.17896219E-03     -0.11148926E-16      0.39252718E-09     -0.24453527E-22
    0.784613549848         0.30071363E-05      0.18378406E-03     -0.31982987E-17      0.41145179E-09     -0.71602822E-23
    0.790890458246         0.30932570E-05      0.18449009E-03     -0.15184113E-16      0.42148926E-09     -0.34689887E-22
    0.797167366645         0.31809104E-05      0.18698055E-03     -0.93156665E-17      0.43582503E-09     -0.21713491E-22
    0.803444275044         0.32700927E-05      0.18949919E-03     -0.85240958E-17      0.45053181E-09     -0.20265925E-22
    0.809721183443         0.33607990E-05      0.19067306E-03     -0.19436416E-16      0.46228540E-09     -0.47123446E-22
    0.815998091842         0.34530231E-05      0.19503387E-03     -0.38065155E-17      0.48209672E-09     -0.94091795E-23
    0.822275000240         0.35467578E-05      0.19513502E-03     -0.21442154E-16      0.49165841E-09     -0.54025234E-22
    0.828551908639         0.36419946E-05      0.20079828E-03     -0.19208584E-16      0.51557680E-09     -0.49320644E-22
    0.834828817038         0.37387238E-05      0.20056534E-03     -0.13398936E-16      0.52468136E-09     -0.35051778E-22
    0.841105725437         0.38369346E-05      0.20685577E-03     -0.14851761E-16      0.55120768E-09     -0.39575422E-22
    0.847382633835         0.39366149E-05      0.20732832E-03     -0.14583722E-16      0.56262083E-09     -0.39575422E-22
    0.853659542234         0.40377513E-05      0.21377898E-03     -0.79617998E-17      0.59065473E-09     -0.21997834E-22
    0.859936450633         0.41403294E-05      0.21577180E-03      0.59926047E-17      0.60684395E-09      0.16853805E-22
    0.866213359032         0.42443332E-05      0.22213326E-03     -0.89048968E-17      0.63578750E-09     -0.25487503E-22
    0.872490267431         0.43497456E-05      0.22625931E-03      0.13136964E-17      0.65890612E-09      0.38257103E-23
    0.878767175829         0.44565484E-05      0.23257737E-03     -0.70331002E-17      0.68897913E-09     -0.20834612E-22
    0.885044084228         0.45647219E-05      0.23932345E-03      0.50621984E-17      0.72102194E-09      0.15251143E-22
    0.891320992627         0.46742450E-05      0.24597560E-03     -0.11155542E-16      0.75349985E-09     -0.34172899E-22
    0.897597901026         0.47850957E-05      0.25585911E-03     -0.71388165E-17      0.79675259E-09     -0.22230479E-22
    0.903874809424         0.48972503E-05      0.26341669E-03      0.75794994E-17      0.83368333E-09      0.23988238E-22
    0.910151717823         0.50106841E-05      0.27746879E-03     -0.11156881E-16      0.89230057E-09     -0.35878959E-22
    0.916428626222         0.51253709E-05      0.28641272E-03     -0.26744015E-17      0.93569164E-09     -0.87370952E-23
    0.922705534621         0.52412834E-05      0.30867033E-03     -0.23916654E-16      0.10241963E-08     -0.79357640E-22
    0.928982443020         0.53583927E-05      0.31894170E-03     -0.15789010E-16      0.10746131E-08     -0.53198053E-22
    0.935259351418         0.54766690E-05      0.28962014E-03     -0.30303759E-16      0.99066539E-09     -0.10365607E-21
    0.941536259817         0.55960809E-05      0.32530646E-03     -0.22187374E-17      0.11294147E-08     -0.77031195E-23
    0.947813168216         0.57165958E-05      0.38212019E-03     -0.10682753E-16      0.13462587E-08     -0.37636718E-22
    0.954090076615         0.58381799E-05      0.40654671E-03     -0.10327059E-16      0.14531564E-08     -0.36912935E-22
    0.960366985013         0.59607981E-05      0.45006633E-03     -0.42778014E-18      0.16317647E-08     -0.15509636E-23
    0.966643893412         0.60844141E-05      0.49600506E-03     -0.19966533E-16      0.18236948E-08     -0.73412279E-22
    0.972920801811         0.62089900E-05      0.55853471E-03     -0.16697428E-16      0.20821281E-08     -0.62245341E-22
    0.979197710210         0.63344872E-05      0.64479410E-03     -0.45312269E-16      0.24365534E-08     -0.17122639E-21
    0.985474618609         0.64608656E-05      0.75333530E-03     -0.30617121E-16      0.28850104E-08     -0.11725285E-21
    0.991751527007         0.65880838E-05      0.98950091E-03     -0.69973733E-16      0.38396022E-08     -0.27152204E-21
    0.998028435406         0.67160994E-05      0.14789467E-02     -0.81121641E-16      0.58135382E-08     -0.31887813E-21
    1.004305343805         0.68448687E-05      0.13996455E-02     -0.12497491E-15      0.55722580E-08     -0.49754914E-21
    1.010582252204         0.69743470E-05      0.17875472E-02     -0.12537065E-15      0.72061486E-08     -0.50540735E-21
    1.016859160602         0.71044882E-05      0.41166890E-02     -0.20511389E-15      0.16800951E-07     -0.83710678E-21
