 
 # Omega; pulse ft; projected flux at t=    500.250000000000     
    0.000000000000         0.10341091E-10      0.00000000E+00      0.00000000E+00      0.34466511E-12      0.25849394E-25
    0.006276908399         0.40699280E-10      0.92070020E-04     -0.13065400E-16      0.34871689E-12     -0.49485442E-25
    0.012553816798         0.13187398E-09      0.57452556E-04     -0.34520727E-17      0.35253846E-12     -0.21182493E-25
    0.018830725196         0.28416575E-09      0.40474748E-04      0.41479325E-17      0.35678177E-12      0.36563703E-25
    0.025107633595         0.49807598E-09      0.31135974E-04     -0.43140038E-18      0.36079962E-12     -0.49990116E-26
    0.031384541994         0.77430759E-09      0.25339938E-04     -0.89819581E-18      0.36518848E-12     -0.12944419E-25
    0.037661450393         0.11137660E-08      0.21384521E-04      0.28253342E-18      0.36941137E-12      0.48806824E-26
    0.043938358791         0.15175606E-08      0.18535199E-04      0.29726691E-17      0.37394975E-12      0.59973939E-25
    0.050215267190         0.19870057E-08      0.16372253E-04     -0.32565872E-18      0.37843003E-12     -0.75273108E-26
    0.056492175589         0.25236231E-08      0.14682230E-04     -0.54070907E-18      0.38312634E-12     -0.14109566E-25
    0.062769083988         0.31291437E-08      0.13316214E-04      0.19717091E-17      0.38777007E-12      0.57416452E-25
    0.069045992387         0.38055096E-08      0.12195878E-04     -0.12300309E-19      0.39264602E-12     -0.39600817E-27
    0.075322900785         0.45548772E-08      0.11255499E-04     -0.16052588E-18      0.39758334E-12     -0.56703322E-26
    0.081599809184         0.53796196E-08      0.10455351E-04      0.25875951E-18      0.40263810E-12      0.99648910E-26
    0.087876717583         0.62823298E-08      0.97656883E-05      0.34954681E-18      0.40781535E-12      0.14597082E-25
    0.094153625982         0.72658239E-08      0.91637471E-05     -0.39291069E-18      0.41308052E-12     -0.17711505E-25
    0.100430534380         0.83331444E-08      0.86351959E-05     -0.88618712E-18      0.41853244E-12     -0.42951899E-25
    0.106707442779         0.94875639E-08      0.81641297E-05      0.10139509E-17      0.42401742E-12      0.52661199E-25
    0.112984351178         0.10732589E-07      0.77449434E-05     -0.35598750E-19      0.42975235E-12     -0.19753077E-26
    0.119261259577         0.12071965E-07      0.73652464E-05      0.62001104E-18      0.43549147E-12      0.36659944E-25
    0.125538167976         0.13509678E-07      0.70236055E-05     -0.46266539E-18      0.44151262E-12     -0.29083724E-25
    0.131815076374         0.15049961E-07      0.67100508E-05     -0.55412456E-18      0.44751737E-12     -0.36956556E-25
    0.138091984773         0.16697298E-07      0.64260347E-05     -0.41208631E-18      0.45387326E-12     -0.29105812E-25
    0.144368893172         0.18456429E-07      0.61619411E-05     -0.14358066E-18      0.46015632E-12     -0.10722197E-25
    0.150645801571         0.20332352E-07      0.59212814E-05      0.53703651E-18      0.46683144E-12      0.42339743E-25
    0.156922709970         0.22330332E-07      0.56955483E-05      0.39365520E-18      0.47343322E-12      0.32721950E-25
    0.163199618368         0.24455902E-07      0.54889231E-05     -0.43985862E-18      0.48046913E-12     -0.38502723E-25
    0.169476526767         0.26714868E-07      0.52935986E-05      0.53055475E-18      0.48742554E-12      0.48852578E-25
    0.175753435166         0.29113317E-07      0.51141134E-05     -0.65429903E-18      0.49484823E-12     -0.63310821E-25
    0.182030343565         0.31657619E-07      0.49429891E-05     -0.55983924E-18      0.50215514E-12     -0.56873716E-25
    0.188307251963         0.34354433E-07      0.47854113E-05     -0.13543971E-17      0.50997491E-12     -0.14433630E-24
    0.194584160362         0.37210710E-07      0.46342126E-05     -0.11930218E-17      0.51766670E-12     -0.13326701E-24
    0.200861068761         0.40233700E-07      0.44942979E-05     -0.55333411E-18      0.52585967E-12     -0.64743392E-25
    0.207137977160         0.43430955E-07      0.43599043E-05     -0.74683597E-18      0.53398666E-12     -0.91470000E-25
    0.213414885559         0.46810335E-07      0.42355741E-05     -0.48517209E-18      0.54267914E-12     -0.62162239E-25
    0.219691793957         0.50380010E-07      0.41156390E-05      0.36361097E-18      0.55130952E-12      0.48707428E-25
    0.225968702356         0.54148468E-07      0.40043289E-05      0.82146131E-18      0.56050750E-12      0.11498437E-24
    0.232245610755         0.58124513E-07      0.38966653E-05     -0.77098558E-19      0.56966393E-12     -0.11271245E-25
    0.238522519154         0.62317278E-07      0.37965731E-05      0.92132471E-19      0.57940823E-12      0.14060657E-25
    0.244799427552         0.66736218E-07      0.36992838E-05      0.47302515E-18      0.58909136E-12      0.75326750E-25
    0.251076335951         0.71391124E-07      0.36086154E-05     -0.15449184E-18      0.59936701E-12     -0.25660068E-25
    0.257353244350         0.76292116E-07      0.35210831E-05      0.89871021E-18      0.60973354E-12      0.15562648E-24
    0.263630152749         0.81449655E-07      0.34395733E-05      0.10651539E-18      0.62074401E-12      0.19222963E-25
    0.269907061148         0.86874540E-07      0.33599968E-05     -0.10808221E-19      0.63172918E-12     -0.20321057E-26
    0.276183969546         0.92577913E-07      0.32857280E-05      0.77546700E-19      0.64336041E-12      0.15183995E-25
    0.282460877945         0.98571259E-07      0.32135413E-05      0.28048705E-19      0.65507299E-12      0.57176638E-26
    0.288737786344         0.10486641E-06      0.31462872E-05      0.35874937E-19      0.66749028E-12      0.76109300E-26
    0.295014694743         0.11147554E-06      0.30810072E-05     -0.10864863E-20      0.68005254E-12     -0.23981372E-27
    0.301291603141         0.11841119E-06      0.30206793E-05      0.12843215E-18      0.69346432E-12      0.29484465E-25
    0.307568511540         0.12568621E-06      0.29622023E-05      0.31937269E-19      0.70708934E-12      0.76235518E-26
    0.313845419939         0.13331385E-06      0.29058444E-05      0.18556752E-18      0.72101720E-12      0.46044233E-25
    0.320122328338         0.14130766E-06      0.28525878E-05     -0.32503112E-19      0.73553370E-12     -0.83808583E-26
    0.326399236737         0.14968158E-06      0.28011346E-05      0.10535598E-18      0.75035538E-12      0.28222288E-25
    0.332676145135         0.15844985E-06      0.27498086E-05      0.37109896E-19      0.76504408E-12      0.10324612E-25
    0.338953053534         0.16762710E-06      0.27043521E-05     -0.37278014E-18      0.78123505E-12     -0.10768898E-24
    0.345229961933         0.17722828E-06      0.26605773E-05      0.23966220E-18      0.79783708E-12      0.71868384E-25
    0.351506870332         0.18726866E-06      0.26196399E-05     -0.37313256E-20      0.81524227E-12     -0.11612033E-26
    0.357783778731         0.19776389E-06      0.25805346E-05     -0.56135127E-19      0.83320111E-12     -0.18124868E-25
    0.364060687129         0.20872991E-06      0.25441051E-05     -0.12926764E-18      0.85203955E-12     -0.43292686E-25
    0.370337595528         0.22018301E-06      0.25090588E-05     -0.12058603E-18      0.87138614E-12     -0.41879048E-25
    0.376614503927         0.23213979E-06      0.24761958E-05      0.37789646E-19      0.89156156E-12      0.13606273E-25
    0.382891412326         0.24461718E-06      0.24452617E-05     -0.15909722E-18      0.91253699E-12     -0.59372827E-25
    0.389168320724         0.25763241E-06      0.24165735E-05      0.97657406E-19      0.93449466E-12      0.37764349E-25
    0.395445229123         0.27120301E-06      0.23897128E-05      0.10365598E-18      0.95734327E-12      0.41525638E-25
    0.401722137522         0.28534681E-06      0.23648200E-05      0.10087275E-18      0.98120364E-12      0.41853804E-25
    0.407999045921         0.30008192E-06      0.23419234E-05     -0.12280109E-18      0.10061603E-11     -0.52759017E-25
    0.414275954320         0.31542674E-06      0.23208690E-05     -0.10301595E-18      0.10322223E-11     -0.45817041E-25
    0.420552862718         0.33139993E-06      0.23019282E-05      0.59612087E-19      0.10595889E-11      0.27439738E-25
    0.426829771117         0.34802041E-06      0.22846407E-05      0.21200523E-19      0.10881324E-11      0.10097420E-25
    0.433106679516         0.36530735E-06      0.22697544E-05      0.17819793E-18      0.11182945E-11      0.87797063E-25
    0.439383587915         0.38328015E-06      0.22563942E-05     -0.50234499E-19      0.11497443E-11     -0.25596959E-25
    0.445660496313         0.40195843E-06      0.22461894E-05     -0.14872409E-18      0.11834153E-11     -0.78355976E-25
    0.451937404712         0.42136202E-06      0.22369720E-05     -0.18262311E-18      0.12182922E-11     -0.99459583E-25
    0.458214313111         0.44151098E-06      0.22353094E-05     -0.16854681E-18      0.12581265E-11     -0.94865257E-25
    0.464491221510         0.46242550E-06      0.22239193E-05     -0.28128550E-19      0.12932935E-11     -0.16357820E-25
    0.470768129909         0.48412598E-06      0.22038116E-05      0.15296309E-18      0.13238525E-11      0.91886518E-25
    0.477045038307         0.50663295E-06      0.22057919E-05     -0.81382787E-21      0.13683978E-11     -0.50487098E-27
    0.483321946706         0.52996708E-06      0.22111561E-05      0.64004462E-19      0.14162684E-11      0.40995524E-25
    0.489598855105         0.55414917E-06      0.22152230E-05     -0.56279185E-19      0.14645950E-11     -0.37208991E-25
    0.495875763504         0.57920011E-06      0.22210797E-05     -0.70074632E-19      0.15154224E-11     -0.47811282E-25
    0.502152671902         0.60514088E-06      0.22303536E-05     -0.17320604E-18      0.15700311E-11     -0.12192634E-24
    0.508429580301         0.63199252E-06      0.22371372E-05      0.18495544E-19      0.16243797E-11      0.13429568E-25
    0.514706488700         0.65977612E-06      0.22635858E-05      0.15170929E-19      0.16949142E-11      0.11359597E-25
    0.520983397099         0.68851279E-06      0.23133471E-05     -0.26944845E-19      0.17858407E-11     -0.20800684E-25
    0.527260305498         0.71822366E-06      0.23193868E-05     -0.31725025E-19      0.18455321E-11     -0.25243549E-25
    0.533537213896         0.74892983E-06      0.23211515E-05     -0.50489846E-20      0.19032407E-11     -0.41399420E-26
    0.539814122295         0.78065236E-06      0.23589855E-05     -0.17427725E-18      0.19927486E-11     -0.14722038E-24
    0.546091030694         0.81341227E-06      0.24155102E-05     -0.12022940E-18      0.21016885E-11     -0.10460927E-24
    0.552367939093         0.84723047E-06      0.24460570E-05     -0.50940351E-19      0.21915606E-11     -0.45640337E-25
    0.558644847491         0.88212778E-06      0.24822222E-05     -0.17077547E-19      0.22895501E-11     -0.15751975E-25
    0.564921755890         0.91812490E-06      0.25289682E-05     -0.11274285E-18      0.24008811E-11     -0.10703265E-24
    0.571198664289         0.95524236E-06      0.25937507E-05     -0.16455583E-18      0.25337772E-11     -0.16075092E-24
    0.577475572688         0.99350052E-06      0.26530516E-05     -0.19974619E-18      0.26662077E-11     -0.20073670E-24
    0.583752481087         0.10329195E-05      0.27291250E-05     -0.66332845E-19      0.28208175E-11     -0.68561479E-25
    0.590029389485         0.10735193E-05      0.28077143E-05      0.13206118E-19      0.29840283E-11      0.14035413E-25
    0.596306297884         0.11153196E-05      0.29080531E-05     -0.79573751E-19      0.31772109E-11     -0.86938783E-25
    0.602583206283         0.11583396E-05      0.29980075E-05     -0.26977330E-19      0.33663975E-11     -0.30292259E-25
    0.608860114682         0.12025986E-05      0.31352118E-05     -0.69838727E-19      0.36172945E-11     -0.80577408E-25
    0.615137023081         0.12481153E-05      0.32013684E-05     -0.34929923E-19      0.37943055E-11     -0.41399420E-25
    0.621413931479         0.12949080E-05      0.33914185E-05     -0.13438589E-18      0.41281277E-11     -0.16357820E-24
    0.627690839878         0.13429948E-05      0.30173780E-05     -0.61886630E-19      0.37711348E-11     -0.77346234E-25
    0.633967748277         0.13923932E-05      0.25528725E-05     -0.10152934E-18      0.32751988E-11     -0.13025671E-24
    0.640244656676         0.14431204E-05      0.46032869E-05     -0.13926944E-18      0.60609186E-11     -0.18336914E-24
    0.646521565074         0.14951931E-05      0.58696635E-05     -0.10135427E-18      0.79294171E-11     -0.13692101E-24
    0.652798473473         0.15486273E-05      0.61683507E-05     -0.30370820E-18      0.85477271E-11     -0.42086045E-24
    0.659075381872         0.16034389E-05      0.71588815E-05     -0.20804168E-18      0.10173638E-10     -0.29565245E-24
    0.665352290271         0.16596427E-05      0.80999474E-05     -0.52889810E-18      0.11802091E-10     -0.77063506E-24
    0.671629198670         0.17172535E-05      0.93967589E-05      0.14657201E-18      0.14034493E-10      0.21891206E-24
    0.677906107068         0.17762849E-05      0.19448032E-04     -0.56471234E-18      0.29766828E-10     -0.86433912E-24
    0.684183015467         0.18367504E-05      0.46569091E-04     -0.49245508E-18      0.73028003E-10     -0.77225065E-24
    0.690459923866         0.18986625E-05      0.13766172E-03      0.11425774E-17      0.22112421E-09      0.18353070E-23
    0.696736832265         0.19620330E-05      0.21873590E-03     -0.60107748E-17      0.35980850E-09     -0.98873933E-23
    0.703013740663         0.20268732E-05      0.14441140E-03     -0.94394982E-18      0.24320811E-09     -0.15897377E-23
    0.709290649062         0.20931935E-05      0.13720801E-03     -0.58481167E-17      0.23652575E-09     -0.10081264E-22
    0.715567557461         0.21610035E-05      0.24099085E-03     -0.52604899E-17      0.42512747E-09     -0.92799325E-23
    0.721844465860         0.22303120E-05      0.21880746E-03     -0.12718255E-16      0.39490980E-09     -0.22954262E-22
    0.728121374259         0.23011271E-05      0.16634970E-03     -0.62240276E-17      0.30709493E-09     -0.11490056E-22
    0.734398282657         0.23734559E-05      0.17905499E-03     -0.13261318E-16      0.33802571E-09     -0.25035138E-22
    0.740675191056         0.24473047E-05      0.21996094E-03     -0.11625083E-16      0.42454097E-09     -0.22437274E-22
    0.746952099455         0.25226788E-05      0.23465121E-03     -0.75079605E-17      0.46291985E-09     -0.14811703E-22
    0.753229007854         0.25995828E-05      0.24878659E-03     -0.16899559E-16      0.50155364E-09     -0.34069501E-22
    0.759505916252         0.26780200E-05      0.26871709E-03      0.26104612E-17      0.55346702E-09      0.53766740E-23
    0.765782824651         0.27579930E-05      0.22488006E-03     -0.59715256E-17      0.47309929E-09     -0.12562806E-22
    0.772059733050         0.28395032E-05      0.20428893E-03     -0.11911880E-17      0.43888435E-09     -0.25590900E-23
    0.778336641449         0.29225512E-05      0.24442749E-03     -0.10418236E-16      0.53611568E-09     -0.22850864E-22
    0.784613549848         0.30071363E-05      0.26746526E-03     -0.57615561E-17      0.59879546E-09     -0.12898848E-22
    0.790890458246         0.30932570E-05      0.27794942E-03     -0.16066647E-16      0.63500807E-09     -0.36706140E-22
    0.797167366645         0.31809104E-05      0.29154956E-03     -0.10801737E-16      0.67956047E-09     -0.25177310E-22
    0.803444275044         0.32700927E-05      0.29818157E-03     -0.48491667E-17      0.70892274E-09     -0.11528830E-22
    0.809721183443         0.33607990E-05      0.30890635E-03     -0.16205898E-16      0.74894112E-09     -0.39291079E-22
    0.815998091842         0.34530231E-05      0.31310792E-03     -0.99136723E-17      0.77395944E-09     -0.24505226E-22
    0.822275000240         0.35467578E-05      0.31821847E-03     -0.21729417E-16      0.80177709E-09     -0.54749017E-22
    0.828551908639         0.36419946E-05      0.31850707E-03     -0.14980280E-16      0.81781009E-09     -0.38463898E-22
    0.834828817038         0.37387238E-05      0.31735221E-03     -0.26303810E-16      0.83019722E-09     -0.68811087E-22
    0.841105725437         0.38369346E-05      0.31476046E-03     -0.19537195E-16      0.83874081E-09     -0.52060680E-22
    0.847382633835         0.39366149E-05      0.30894744E-03     -0.30272416E-16      0.83838166E-09     -0.82149375E-22
    0.853659542234         0.40377513E-05      0.30419791E-03     -0.62871087E-17      0.84047520E-09     -0.17370793E-22
    0.859936450633         0.41403294E-05      0.29456685E-03      0.18382223E-19      0.82844982E-09      0.51698788E-25
    0.866213359032         0.42443332E-05      0.28735196E-03     -0.10494412E-16      0.82245577E-09     -0.30036996E-22
    0.872490267431         0.43497456E-05      0.27462498E-03     -0.42251317E-17      0.79975528E-09     -0.12304312E-22
    0.878767175829         0.44565484E-05      0.26500872E-03     -0.13577548E-16      0.78505263E-09     -0.40221657E-22
    0.885044084228         0.45647219E-05      0.25040894E-03     -0.75675576E-17      0.75441975E-09     -0.22799166E-22
    0.891320992627         0.46742450E-05      0.23889072E-03     -0.15847283E-16      0.73179664E-09     -0.48545162E-22
    0.897597901026         0.47850957E-05      0.22326973E-03     -0.10243372E-16      0.69526833E-09     -0.31898152E-22
    0.903874809424         0.48972503E-05      0.20991192E-03     -0.52925815E-17      0.66434690E-09     -0.16750407E-22
    0.910151717823         0.50106841E-05      0.19277312E-03     -0.11864234E-16      0.61993123E-09     -0.38153706E-22
    0.916428626222         0.51253709E-05      0.17679306E-03     -0.71844870E-17      0.57757137E-09     -0.23471250E-22
    0.922705534621         0.52412834E-05      0.15549231E-03     -0.11872632E-16      0.51593767E-09     -0.39394477E-22
    0.928982443020         0.53583927E-05      0.16925335E-03     -0.93828763E-17      0.57026683E-09     -0.31613809E-22
    0.935259351418         0.54766690E-05      0.32154673E-03     -0.29442256E-16      0.10998725E-08     -0.10070924E-21
    0.941536259817         0.55960809E-05      0.36927524E-03     -0.52117992E-17      0.12820676E-08     -0.18094576E-22
    0.947813168216         0.57165958E-05      0.25958734E-03     -0.13074633E-16      0.91455970E-09     -0.46063620E-22
    0.954090076615         0.58381799E-05      0.21083128E-03     -0.63350869E-17      0.75359316E-09     -0.22644069E-22
    0.960366985013         0.59607981E-05      0.18737414E-03     -0.16683426E-17      0.67934540E-09     -0.60487582E-23
    0.966643893412         0.60844141E-05      0.16843994E-03     -0.75788459E-17      0.61931434E-09     -0.27865647E-22
    0.972920801811         0.62089900E-05      0.15565192E-03     -0.37583081E-17      0.58024548E-09     -0.14010372E-22
    0.979197710210         0.63344872E-05      0.14216081E-03     -0.85370942E-17      0.53719846E-09     -0.32260044E-22
    0.985474618609         0.64608656E-05      0.13227596E-03     -0.52378496E-17      0.50657062E-09     -0.20059130E-22
    0.991751527007         0.65880838E-05      0.11811515E-03     -0.89665503E-17      0.45832723E-09     -0.34793285E-22
    0.998028435406         0.67160994E-05      0.11532769E-03     -0.63918803E-17      0.45333743E-09     -0.25125611E-22
    1.004305343805         0.68448687E-05      0.12714748E-03     -0.11589787E-16      0.50619855E-09     -0.46141169E-22
    1.010582252204         0.69743470E-05      0.13064863E-03     -0.92142810E-17      0.52668451E-09     -0.37145579E-22
    1.016859160602         0.71044882E-05      0.11771745E-03     -0.58587681E-17      0.48042617E-09     -0.23910690E-22
