 
 # Omega; pulse ft; projected flux at t=    500.250000000000     
    0.000000000000         0.61823026E-09      0.00000000E+00      0.00000000E+00      0.76191717E-26      0.36734198E-39
    0.006276908399         0.61747610E-09      0.13359221E-18      0.23257275E-31      0.76766066E-26      0.13364324E-38
    0.012553816798         0.61521579E-09      0.27041540E-18     -0.90818562E-32      0.77409973E-26     -0.25998010E-39
    0.018830725196         0.61145675E-09      0.41123495E-18     -0.28236368E-31      0.78001422E-26     -0.53557627E-39
    0.025107633595         0.60621417E-09      0.55771968E-18     -0.72714694E-31      0.78659300E-26     -0.10255487E-38
    0.031384541994         0.59951527E-09      0.71057440E-18     -0.21668469E-30      0.79288064E-26     -0.24178340E-38
    0.037661450393         0.59140524E-09      0.87166248E-18      0.26317426E-31      0.79955856E-26      0.24140449E-39
    0.043938358791         0.58195487E-09      0.10420530E-17     -0.45381945E-31      0.80621167E-26     -0.35110934E-39
    0.050215267190         0.57126980E-09      0.12233423E-17      0.80015253E-31      0.81295644E-26      0.53173111E-39
    0.056492175589         0.55950140E-09      0.14174037E-17     -0.12572787E-30      0.82001206E-26     -0.72737480E-39
    0.062769083988         0.54685933E-09      0.16249042E-17     -0.63335187E-31      0.82693505E-26     -0.32232107E-39
    0.069045992387         0.53362554E-09      0.18481129E-17     -0.26754805E-30      0.83433495E-26     -0.12078520E-38
    0.075322900785         0.52016993E-09      0.20852354E-17     -0.51312577E-30      0.84117642E-26     -0.20699308E-38
    0.081599809184         0.50696746E-09      0.23389251E-17      0.22234519E-30      0.84883067E-26      0.80692371E-39
    0.087876717583         0.49461670E-09      0.26025049E-17      0.22783390E-30      0.85565820E-26      0.74907811E-39
    0.094153625982         0.48385983E-09      0.28769850E-17      0.20551314E-30      0.86364234E-26      0.61693006E-39
    0.100430534380         0.47560399E-09      0.31478971E-17     -0.57144031E-30      0.87079123E-26     -0.15807544E-38
    0.106707442779         0.47094388E-09      0.34102940E-17     -0.34853528E-30      0.87918460E-26     -0.89853500E-39
    0.112984351178         0.47118573E-09      0.36391794E-17     -0.10653848E-29      0.88652522E-26     -0.25953393E-38
    0.119261259577         0.47787234E-09      0.38240871E-17     -0.16431974E-29      0.89506397E-26     -0.38460598E-38
    0.125538167976         0.49280933E-09      0.39364220E-17     -0.10163653E-29      0.90264834E-26     -0.23305948E-38
    0.131815076374         0.51809239E-09      0.39700143E-17      0.49921261E-31      0.91148180E-26      0.11461500E-39
    0.138091984773         0.55613556E-09      0.39082774E-17      0.63569745E-30      0.91941455E-26      0.14954657E-38
    0.144368893172         0.60970041E-09      0.37635582E-17     -0.47682099E-30      0.92844311E-26     -0.11762836E-38
    0.150645801571         0.68192607E-09      0.35427845E-17     -0.30864408E-32      0.93678257E-26     -0.81611623E-41
    0.156922709970         0.77635999E-09      0.32735569E-17      0.27988386E-30      0.94604336E-26      0.80885189E-39
    0.163199618368         0.89698941E-09      0.29738219E-17     -0.53604792E-30      0.95476597E-26     -0.17210187E-38
    0.169476526767         0.10482735E-08      0.26687224E-17      0.16134115E-31      0.96423354E-26      0.58294016E-40
    0.175753435166         0.12351757E-08      0.23711588E-17     -0.36456604E-30      0.97341792E-26     -0.14966316E-38
    0.182030343565         0.14631970E-08      0.20940087E-17      0.45840470E-32      0.98322133E-26      0.21523944E-40
    0.188307251963         0.17384091E-08      0.18410636E-17     -0.55293924E-30      0.99281313E-26     -0.29817838E-38
    0.194584160362         0.20674879E-08      0.16158504E-17     -0.50473092E-30      0.10028834E-25     -0.31326307E-38
    0.200861068761         0.24577476E-08      0.14171399E-17     -0.38149253E-30      0.10129034E-25     -0.27267250E-38
    0.207137977160         0.29171738E-08      0.12439523E-17     -0.51841947E-30      0.10233403E-25     -0.42647902E-38
    0.213414885559         0.34544578E-08      0.10933932E-17     -0.26051759E-30      0.10338210E-25     -0.24632361E-38
    0.219691793957         0.40790298E-08      0.96316010E-18      0.38649375E-31      0.10446128E-25      0.41917882E-39
    0.225968702356         0.48010926E-08      0.85049633E-18      0.11415821E-30      0.10555481E-25      0.14168136E-38
    0.232245610755         0.56316541E-08      0.75307823E-18     -0.57667534E-31      0.10667001E-25     -0.81683369E-39
    0.238522519154         0.65825603E-08      0.66877648E-18     -0.42859553E-31      0.10781030E-25     -0.69091862E-39
    0.244799427552         0.76665268E-08      0.59564542E-18      0.57210983E-31      0.10896572E-25      0.10466018E-38
    0.251076335951         0.88971707E-08      0.53218257E-18     -0.91799568E-31      0.11015915E-25     -0.19002056E-38
    0.257353244350         0.10289041E-07      0.47683570E-18     -0.34031675E-31      0.11135964E-25     -0.79477165E-39
    0.263630152749         0.11857647E-07      0.42859139E-18     -0.12807259E-31      0.11260578E-25     -0.33649100E-39
    0.269907061148         0.13619491E-07      0.38624897E-18      0.35775329E-31      0.11384862E-25      0.10544939E-38
    0.276183969546         0.15592091E-07      0.34915886E-18     -0.75945083E-31      0.11514438E-25     -0.25044903E-38
    0.282460877945         0.17794010E-07      0.31640814E-18     -0.88127146E-32      0.11643324E-25     -0.32429410E-39
    0.288737786344         0.20244883E-07      0.28759990E-18     -0.41254000E-32      0.11779156E-25     -0.16896296E-39
    0.295014694743         0.22965437E-07      0.26200187E-18     -0.77036758E-31      0.11913771E-25     -0.35030220E-38
    0.301291603141         0.25977515E-07      0.23934151E-18     -0.28027926E-31      0.12054312E-25     -0.14116120E-38
    0.307568511540         0.29304101E-07      0.21908803E-18     -0.28038807E-31      0.12193236E-25     -0.15604860E-38
    0.313845419939         0.32969333E-07      0.20109458E-18      0.74361743E-32      0.12339812E-25      0.45630762E-39
    0.320122328338         0.36998524E-07      0.18494200E-18     -0.30861355E-31      0.12485841E-25     -0.20835178E-38
    0.326399236737         0.41418179E-07      0.17051159E-18     -0.34361593E-33      0.12638909E-25     -0.25470001E-40
    0.332676145135         0.46256007E-07      0.15749420E-18      0.65987387E-32      0.12791599E-25      0.53594622E-39
    0.338953053534         0.51540931E-07      0.14579625E-18     -0.36477749E-31      0.12950093E-25     -0.32400711E-38
    0.345229961933         0.57303105E-07      0.13520349E-18      0.95160803E-32      0.13109055E-25      0.92265975E-39
    0.351506870332         0.63573913E-07      0.12563962E-18     -0.87503637E-32      0.13273503E-25     -0.92445341E-39
    0.357783778731         0.70385980E-07      0.11695795E-18      0.82818726E-32      0.13440303E-25      0.95171708E-39
    0.364060687129         0.77773174E-07      0.10908473E-18     -0.17576249E-31      0.13612372E-25     -0.21932899E-38
    0.370337595528         0.85770606E-07      0.10191656E-18     -0.42532460E-32      0.13787936E-25     -0.57540678E-39
    0.376614503927         0.94414629E-07      0.95380681E-19      0.53893606E-32      0.13967429E-25      0.78921130E-39
    0.382891412326         0.10374284E-06      0.89418040E-19     -0.93814452E-32      0.14152118E-25     -0.14847934E-38
    0.389168320724         0.11379405E-06      0.83959781E-19     -0.79033090E-32      0.14340595E-25     -0.13499100E-38
    0.395445229123         0.12460831E-06      0.78958070E-19     -0.94523085E-32      0.14533526E-25     -0.17398522E-38
    0.401722137522         0.13622687E-06      0.74359971E-19      0.47140475E-32      0.14729569E-25      0.93378046E-39
    0.407999045921         0.14869219E-06      0.70140852E-19     -0.12592814E-31      0.14931858E-25     -0.26808073E-38
    0.414275954320         0.16204789E-06      0.66245945E-19     -0.18243547E-32      0.15136545E-25     -0.41684706E-39
    0.420552862718         0.17633876E-06      0.62662329E-19      0.52580422E-33      0.15347849E-25      0.12878493E-39
    0.426829771117         0.19161071E-06      0.59343934E-19     -0.11583006E-31      0.15561635E-25     -0.30373873E-38
    0.433106679516         0.20791078E-06      0.56285852E-19     -0.10595218E-31      0.15783204E-25     -0.29710218E-38
    0.439383587915         0.22528707E-06      0.53444597E-19     -0.47430702E-33      0.16007004E-25     -0.14205803E-39
    0.445660496313         0.24378875E-06      0.50823415E-19      0.41762860E-32      0.16240042E-25      0.13344846E-38
    0.451937404712         0.26346597E-06      0.48381563E-19     -0.17318584E-32      0.16475551E-25     -0.58975608E-39
    0.458214313111         0.28436989E-06      0.46122468E-19      0.75404423E-33      0.16720194E-25      0.27335409E-39
    0.464491221510         0.30655259E-06      0.44014021E-19      0.23281804E-32      0.16968065E-25      0.89754848E-39
    0.470768129909         0.33006704E-06      0.42058384E-19     -0.86452759E-32      0.17225090E-25     -0.35406889E-38
    0.477045038307         0.35496707E-06      0.40228703E-19      0.94417861E-33      0.17485518E-25      0.41038987E-39
    0.483321946706         0.38130728E-06      0.38530639E-19      0.27400652E-33      0.17756550E-25      0.12627381E-39
    0.489598855105         0.40914305E-06      0.36937420E-19      0.27514262E-32      0.18030806E-25      0.13430941E-38
    0.495875763504         0.43853041E-06      0.35452771E-19     -0.22069062E-32      0.18314321E-25     -0.11400516E-38
    0.502152671902         0.46952606E-06      0.34061277E-19     -0.25483825E-33      0.18603671E-25     -0.13918817E-39
    0.508429580301         0.50218725E-06      0.32745888E-19      0.28004016E-32      0.18893197E-25      0.16157308E-38
    0.514706488700         0.53657174E-06      0.31545832E-19     -0.40883506E-32      0.19209849E-25     -0.24896029E-38
    0.520983397099         0.57273772E-06      0.30535510E-19     -0.21920674E-32      0.19608794E-25     -0.14076660E-38
    0.527260305498         0.61074378E-06      0.29461764E-19     -0.31280583E-33      0.19934555E-25     -0.21165212E-39
    0.533537213896         0.65064880E-06      0.28408124E-19      0.17786708E-32      0.20236634E-25      0.12670429E-38
    0.539814122295         0.69251188E-06      0.27436782E-19     -0.88657362E-33      0.20560324E-25     -0.66437242E-39
    0.546091030694         0.73639228E-06      0.26545480E-19      0.18517400E-32      0.20909737E-25      0.14586060E-38
    0.552367939093         0.78234932E-06      0.25738987E-19      0.12097309E-32      0.21294993E-25      0.10008634E-38
    0.558644847491         0.83044233E-06      0.24959905E-19     -0.28034769E-32      0.21673568E-25     -0.24343581E-38
    0.564921755890         0.88073054E-06      0.24244466E-19     -0.99581606E-33      0.22079091E-25     -0.90687552E-39
    0.571198664289         0.93327299E-06      0.23535190E-19      0.28716311E-33      0.22462238E-25      0.27407156E-39
    0.577475572688         0.98812849E-06      0.22906580E-19     -0.16150632E-33      0.22895697E-25     -0.16142958E-39
    0.583752481087         0.10453555E-05      0.22292275E-19      0.25857879E-32      0.23318653E-25      0.27048423E-38
    0.590029389485         0.11050119E-05      0.21732277E-19      0.22272100E-32      0.23774552E-25      0.24365105E-38
    0.596306297884         0.11671553E-05      0.21196827E-19      0.31501504E-32      0.24235049E-25      0.36016734E-38
    0.602583206283         0.12318424E-05      0.20707671E-19     -0.44461121E-33      0.24727669E-25     -0.53092396E-39
    0.608860114682         0.12991293E-05      0.20249300E-19      0.30693195E-32      0.25238218E-25      0.38255224E-38
    0.615137023081         0.13690713E-05      0.19841732E-19      0.17990788E-33      0.25795716E-25      0.23389353E-39
    0.621413931479         0.14417228E-05      0.19476910E-19     -0.21176101E-33      0.26395788E-25     -0.28698593E-39
    0.627690839878         0.15171371E-05      0.19384752E-19      0.11891144E-33      0.27368632E-25      0.16788677E-39
    0.633967748277         0.15953663E-05      0.19554924E-19      0.21475646E-33      0.28745058E-25      0.31568452E-39
    0.640244656676         0.16764615E-05      0.18958493E-19      0.22440388E-32      0.28997812E-25      0.34323517E-38
    0.646521565074         0.17604722E-05      0.18096469E-19     -0.18890668E-32      0.28784176E-25     -0.30047426E-38
    0.652798473473         0.18474468E-05      0.17650387E-19      0.93571321E-33      0.29178357E-25      0.15468541E-38
    0.659075381872         0.19374318E-05      0.17384667E-19     -0.15735327E-32      0.29851869E-25     -0.27019725E-38
    0.665352290271         0.20304724E-05      0.17101877E-19     -0.24848947E-32      0.30486180E-25     -0.44296278E-38
    0.671629198670         0.21266118E-05      0.16910321E-19     -0.10543325E-32      0.31276943E-25     -0.19500694E-38
    0.677906107068         0.22258916E-05      0.16634684E-19     -0.15097446E-32      0.31905299E-25     -0.28956880E-38
    0.684183015467         0.23283513E-05      0.16527295E-19      0.10834810E-32      0.32854269E-25      0.21538294E-38
    0.690459923866         0.24340282E-05      0.15905497E-19     -0.12508180E-32      0.32752782E-25     -0.25756987E-38
    0.696736832265         0.25429579E-05      0.15367835E-19      0.57478347E-33      0.32763999E-25      0.12254299E-38
    0.703013740663         0.26551734E-05      0.15788770E-19      0.28097746E-33      0.34833023E-25      0.61988960E-39
    0.709290649062         0.27707053E-05      0.16130415E-19     -0.29556197E-33      0.36806579E-25     -0.67441692E-39
    0.715567557461         0.28895822E-05      0.16292289E-19      0.59615401E-34      0.38430877E-25      0.14062310E-39
    0.721844465860         0.30118296E-05      0.15924012E-19     -0.89784193E-33      0.38810841E-25     -0.21882677E-38
    0.728121374259         0.31374707E-05      0.15996814E-19      0.10637818E-32      0.40264581E-25      0.26775787E-38
    0.734398282657         0.32665259E-05      0.15785739E-19     -0.14226832E-32      0.41014098E-25     -0.36963787E-38
    0.740675191056         0.33990128E-05      0.15971491E-19     -0.12204687E-33      0.42813849E-25     -0.32716396E-39
    0.746952099455         0.35349461E-05      0.15946346E-19     -0.83985686E-33      0.44082380E-25     -0.23217161E-38
    0.753229007854         0.36743374E-05      0.15855684E-19     -0.86715744E-33      0.45180475E-25     -0.24709488E-38
    0.759505916252         0.38171952E-05      0.16018100E-19     -0.13001254E-33      0.47025998E-25     -0.38169128E-39
    0.765782824651         0.39635250E-05      0.15751162E-19     -0.54295875E-33      0.47621426E-25     -0.16415595E-38
    0.772059733050         0.41133290E-05      0.15870821E-19      0.12098683E-32      0.49391902E-25      0.37652553E-38
    0.778336641449         0.42666060E-05      0.15811343E-19     -0.10979127E-32      0.50628800E-25     -0.35155776E-38
    0.784613549848         0.44233513E-05      0.16150474E-19      0.44967720E-33      0.53185679E-25      0.14808474E-38
    0.790890458246         0.45835571E-05      0.16028984E-19     -0.13436611E-32      0.54263288E-25     -0.45487269E-38
    0.797167366645         0.47472116E-05      0.16328132E-19     -0.59978020E-33      0.56798828E-25     -0.20863877E-38
    0.803444275044         0.49142998E-05      0.16306907E-19     -0.66507595E-33      0.58262792E-25     -0.23762435E-38
    0.809721183443         0.50848028E-05      0.16559730E-19     -0.19347832E-32      0.60744317E-25     -0.70971619E-38
    0.815998091842         0.52586980E-05      0.16678451E-19     -0.47266060E-34      0.62785389E-25     -0.17793127E-39
    0.822275000240         0.54359592E-05      0.16857575E-19     -0.21217480E-32      0.65098053E-25     -0.81934482E-38
    0.828551908639         0.56165561E-05      0.17132537E-19     -0.76824949E-33      0.67840005E-25     -0.30420508E-38
    0.834828817038         0.58004548E-05      0.17244826E-19     -0.18596787E-32      0.69990200E-25     -0.75477298E-38
    0.841105725437         0.59876175E-05      0.17660308E-19     -0.12836785E-32      0.73437102E-25     -0.53379382E-38
    0.847382633835         0.61780022E-05      0.17758402E-19     -0.19798400E-32      0.75628620E-25     -0.84316465E-38
    0.853659542234         0.63715632E-05      0.18282950E-19     -0.81227046E-33      0.79711569E-25     -0.35414063E-38
    0.859936450633         0.65682506E-05      0.18429269E-19      0.84262577E-33      0.82225262E-25      0.37595156E-38
    0.866213359032         0.67680107E-05      0.19030388E-19     -0.77845100E-33      0.86855558E-25     -0.35528858E-38
    0.872490267431         0.69707857E-05      0.19289821E-19     -0.11314711E-33      0.90025000E-25     -0.52805410E-39
    0.878767175829         0.71765137E-05      0.19944333E-19     -0.64010134E-33      0.95142162E-25     -0.30535302E-38
    0.885044084228         0.73851287E-05      0.20381513E-19     -0.10244786E-33      0.99344400E-25     -0.49935551E-39
    0.891320992627         0.75965609E-05      0.21086609E-19     -0.10491445E-32      0.10497924E-24     -0.52231438E-38
    0.897597901026         0.78107362E-05      0.21766544E-19     -0.27552212E-33      0.11064032E-24     -0.14004913E-38
    0.903874809424         0.80275766E-05      0.22535505E-19      0.36178318E-33      0.11691151E-24      0.18768880E-38
    0.910151717823         0.82470002E-05      0.23548485E-19     -0.71354353E-33      0.12464044E-24     -0.37767348E-38
    0.916428626222         0.84689209E-05      0.24369170E-19     -0.41467893E-33      0.13154791E-24     -0.22384902E-38
    0.922705534621         0.86932488E-05      0.25985777E-19     -0.19398616E-32      0.14301069E-24     -0.10675876E-37
    0.928982443020         0.89198899E-05      0.26427816E-19     -0.17089969E-32      0.14822691E-24     -0.95853299E-38
    0.935259351418         0.91487464E-05      0.25573482E-19     -0.26157018E-32      0.14612792E-24     -0.14946227E-37
    0.941536259817         0.93797169E-05      0.29742950E-19     -0.56418319E-33      0.17308145E-24     -0.32831190E-38
    0.947813168216         0.96126957E-05      0.33525301E-19     -0.13060032E-32      0.19861358E-24     -0.77371406E-38
    0.954090076615         0.98475739E-05      0.35578357E-19     -0.96342394E-33      0.21450606E-24     -0.58085951E-38
    0.960366985013         0.10084238E-04      0.39141460E-19     -0.17031084E-33      0.24008040E-24     -0.10446288E-38
    0.966643893412         0.10322573E-04      0.43147116E-19     -0.22157044E-32      0.26914544E-24     -0.13821242E-37
    0.972920801811         0.10562458E-04      0.48421205E-19     -0.13395256E-32      0.30706965E-24     -0.84947834E-38
    0.979197710210         0.10803769E-04      0.55977389E-19     -0.38615456E-32      0.36077076E-24     -0.24887419E-37
    0.985474618609         0.11046380E-04      0.65108637E-19     -0.26753881E-32      0.42631140E-24     -0.17517621E-37
    0.991751527007         0.11290161E-04      0.85635813E-19     -0.63181601E-32      0.56946426E-24     -0.42014739E-37
    0.998028435406         0.11534978E-04      0.12177530E-18     -0.66992958E-32      0.82214203E-24     -0.45228982E-37
    1.004305343805         0.11780695E-04      0.10777173E-18     -0.96767346E-32      0.73845461E-24     -0.66305228E-37
    1.010582252204         0.12027173E-04      0.14442403E-18     -0.10330269E-31      0.10040264E-23     -0.71815358E-37
    1.016859160602         0.12274269E-04      0.34788035E-18     -0.17687306E-31      0.24528927E-23     -0.12471260E-36
