 
 # Omega; pulse ft; proj flux t=    500.250000000000     
    0.000000000000         0.19000442E-09      0.00000000E+00      0.00000000E+00     -0.32066903E-12      0.22393119E-19     -0.20128101E-14      0.14055955E-21
    0.006276908399         0.22160172E-09     -0.15523108E-03      0.10229646E-10     -0.33966334E-12      0.22383634E-19     -0.41448458E-14      0.28105957E-21
    0.012553816798         0.31649624E-09      0.39562786E-03      0.14326068E-10      0.61819048E-12      0.22385276E-19     -0.26452076E-15      0.42156990E-21
    0.018830725196         0.47499603E-09      0.55417448E-03      0.14324110E-10      0.86638741E-12      0.22394082E-19      0.51737137E-14      0.56213551E-21
    0.025107633595         0.69761494E-09      0.54440630E-03      0.12997311E-10      0.93750978E-12      0.22382375E-19      0.11058377E-13      0.70262762E-21
    0.031384541994         0.98507334E-09      0.51875755E-03      0.11501637E-10      0.10091596E-11      0.22374591E-19      0.17392779E-13      0.84307088E-21
    0.037661450393         0.13382991E-08      0.44015570E-03      0.10164853E-10      0.96940475E-12      0.22387206E-19      0.23477644E-13      0.98359332E-21
    0.043938358791         0.17584287E-08      0.37561917E-03      0.90216798E-11      0.93168983E-12      0.22377472E-19      0.29325776E-13      0.11240547E-20
    0.050215267190         0.22468091E-08      0.36810434E-03      0.80671449E-11      0.10208079E-11      0.22371388E-19      0.35733293E-13      0.12644778E-20
    0.056492175589         0.28049990E-08      0.36053602E-03      0.72716905E-11      0.11095215E-11      0.22378062E-19      0.42697658E-13      0.14049429E-20
    0.062769083988         0.34347712E-08      0.32996031E-03      0.65973476E-11      0.11190678E-11      0.22375053E-19      0.49721945E-13      0.15453890E-20
    0.069045992387         0.41381150E-08      0.30420090E-03      0.60257337E-11      0.11299709E-11      0.22382917E-19      0.56814668E-13      0.16858845E-20
    0.075322900785         0.49172381E-08      0.28910349E-03      0.55333829E-11      0.11697423E-11      0.22388634E-19      0.64157034E-13      0.18264159E-20
    0.081599809184         0.57745703E-08      0.27587464E-03      0.51059033E-11      0.12099989E-11      0.22394728E-19      0.71752086E-13      0.19669856E-20
    0.087876717583         0.67127654E-08      0.26221779E-03      0.47238939E-11      0.12414593E-11      0.22365080E-19      0.79544612E-13      0.21073692E-20
    0.094153625982         0.77347054E-08      0.25014885E-03      0.43943038E-11      0.12736436E-11      0.22373786E-19      0.87539156E-13      0.22478074E-20
    0.100430534380         0.88435030E-08      0.23808348E-03      0.40992123E-11      0.12993630E-11      0.22371837E-19      0.95695139E-13      0.23882333E-20
    0.106707442779         0.10042506E-07      0.22733425E-03      0.38361801E-11      0.13260349E-11      0.22376340E-19      0.10401854E-12      0.25286876E-20
    0.112984351178         0.11335300E-07      0.21745598E-03      0.35975247E-11      0.13521621E-11      0.22369753E-19      0.11250594E-12      0.26691005E-20
    0.119261259577         0.12725715E-07      0.20855939E-03      0.33820883E-11      0.13792888E-11      0.22367137E-19      0.12116361E-12      0.28094969E-20
    0.125538167976         0.14217824E-07      0.20004986E-03      0.31895965E-11      0.14042301E-11      0.22389055E-19      0.12997783E-12      0.29500310E-20
    0.131815076374         0.15815953E-07      0.19235687E-03      0.30108040E-11      0.14304762E-11      0.22390070E-19      0.13895680E-12      0.30905714E-20
    0.138091984773         0.17524683E-07      0.18600283E-03      0.28454461E-11      0.14629987E-11      0.22380755E-19      0.14813991E-12      0.32310533E-20
    0.144368893172         0.19348855E-07      0.18018500E-03      0.26950896E-11      0.14967282E-11      0.22387083E-19      0.15753473E-12      0.33715750E-20
    0.150645801571         0.21293571E-07      0.17500701E-03      0.25561299E-11      0.15331674E-11      0.22393247E-19      0.16715828E-12      0.35121354E-20
    0.156922709970         0.23364205E-07      0.17022811E-03      0.24256541E-11      0.15708661E-11      0.22383951E-19      0.17701847E-12      0.36526374E-20
    0.163199618368         0.25566403E-07      0.16561805E-03      0.23041598E-11      0.16080548E-11      0.22372049E-19      0.18711208E-12      0.37930647E-20
    0.169476526767         0.27906088E-07      0.16135791E-03      0.21930747E-11      0.16467298E-11      0.22381310E-19      0.19744845E-12      0.39335501E-20
    0.175753435166         0.30389467E-07      0.15722844E-03      0.20870285E-11      0.16849734E-11      0.22366103E-19      0.20802487E-12      0.40739401E-20
    0.182030343565         0.33023034E-07      0.15341661E-03      0.19896488E-11      0.17249966E-11      0.22371355E-19      0.21885252E-12      0.42143630E-20
    0.188307251963         0.35813574E-07      0.15014800E-03      0.18977343E-11      0.17698760E-11      0.22369625E-19      0.22996187E-12      0.43547751E-20
    0.194584160362         0.38768170E-07      0.14710933E-03      0.18106292E-11      0.18165640E-11      0.22358364E-19      0.24136428E-12      0.44951165E-20
    0.200861068761         0.41894206E-07      0.14464996E-03      0.17304378E-11      0.18699035E-11      0.22369530E-19      0.25310149E-12      0.46355280E-20
    0.207137977160         0.45199371E-07      0.14231822E-03      0.16531764E-11      0.19247567E-11      0.22358081E-19      0.26518301E-12      0.47758676E-20
    0.213414885559         0.48691666E-07      0.13952211E-03      0.15818645E-11      0.19729479E-11      0.22368759E-19      0.27756702E-12      0.49162743E-20
    0.219691793957         0.52379403E-07      0.13692446E-03      0.15165923E-11      0.20233472E-11      0.22410845E-19      0.29026739E-12      0.50569451E-20
    0.225968702356         0.56271216E-07      0.13403114E-03      0.14509139E-11      0.20686471E-11      0.22393518E-19      0.30325210E-12      0.51975072E-20
    0.232245610755         0.60376060E-07      0.13138668E-03      0.13902159E-11      0.21169533E-11      0.22399700E-19      0.31654002E-12      0.53381080E-20
    0.238522519154         0.64703218E-07      0.12960132E-03      0.13315560E-11      0.21789566E-11      0.22387139E-19      0.33021713E-12      0.54786301E-20
    0.244799427552         0.69262300E-07      0.12790601E-03      0.12768651E-11      0.22429528E-11      0.22391036E-19      0.34429594E-12      0.56191766E-20
    0.251076335951         0.74063251E-07      0.12582754E-03      0.12245811E-11      0.23004636E-11      0.22388615E-19      0.35873574E-12      0.57597078E-20
    0.257353244350         0.79116352E-07      0.12390633E-03      0.11756319E-11      0.23608738E-11      0.22400136E-19      0.37355473E-12      0.59003114E-20
    0.263630152749         0.84432224E-07      0.12190278E-03      0.11280017E-11      0.24197441E-11      0.22390593E-19      0.38874324E-12      0.60408551E-20
    0.269907061148         0.90021830E-07      0.12003229E-03      0.10832029E-11      0.24812719E-11      0.22391648E-19      0.40431796E-12      0.61814055E-20
    0.276183969546         0.95896474E-07      0.11772304E-03      0.10409312E-11      0.25334266E-11      0.22401076E-19      0.42022004E-12      0.63220150E-20
    0.282460877945         0.10206781E-06      0.11554313E-03      0.99885988E-12      0.25877201E-11      0.22370605E-19      0.43646292E-12      0.64624332E-20
    0.288737786344         0.10854784E-06      0.11233128E-03      0.96085006E-12      0.26173446E-11      0.22388028E-19      0.45289176E-12      0.66029608E-20
    0.295014694743         0.11534890E-06      0.10919255E-03      0.92349342E-12      0.26460952E-11      0.22379289E-19      0.46950105E-12      0.67434336E-20
    0.301291603141         0.12248370E-06      0.10274026E-03      0.88836194E-12      0.25886576E-11      0.22383288E-19      0.48574982E-12      0.68839314E-20
    0.307568511540         0.12996528E-06      0.95929152E-04      0.85513195E-12      0.25123420E-11      0.22395527E-19      0.50151956E-12      0.70245061E-20
    0.313845419939         0.13780704E-06      0.64679398E-04      0.82231482E-12      0.17602091E-11      0.22378780E-19      0.51256823E-12      0.71649756E-20
    0.320122328338         0.14602273E-06      0.71958769E-04      0.79161376E-12      0.20343744E-11      0.22380021E-19      0.52533781E-12      0.73054530E-20
    0.326399236737         0.15462643E-06      0.17905055E-03      0.76195021E-12      0.52571810E-11      0.22371951E-19      0.55833666E-12      0.74458797E-20
    0.332676145135         0.16363259E-06      0.21908201E-03      0.73456041E-12      0.66787860E-11      0.22393312E-19      0.60025879E-12      0.75864404E-20
    0.338953053534         0.17305599E-06      0.17085970E-03      0.70722013E-12      0.54066642E-11      0.22379191E-19      0.63419592E-12      0.77269126E-20
    0.345229961933         0.18291177E-06      0.15104423E-03      0.68179370E-12      0.49599807E-11      0.22388697E-19      0.66532927E-12      0.78674444E-20
    0.351506870332         0.19321538E-06      0.14821181E-03      0.65680723E-12      0.50493255E-11      0.22376310E-19      0.69702342E-12      0.80078984E-20
    0.357783778731         0.20398262E-06      0.14649390E-03      0.63309004E-12      0.51764826E-11      0.22370757E-19      0.72951573E-12      0.81483176E-20
    0.364060687129         0.21522964E-06      0.14862854E-03      0.61082195E-12      0.54459440E-11      0.22381316E-19      0.76369942E-12      0.82888031E-20
    0.370337595528         0.22697289E-06      0.15101172E-03      0.58915573E-12      0.57362690E-11      0.22379427E-19      0.79970545E-12      0.84292767E-20
    0.376614503927         0.23922915E-06      0.14795273E-03      0.56850157E-12      0.58248228E-11      0.22381614E-19      0.83626733E-12      0.85697640E-20
    0.382891412326         0.25201552E-06      0.14673679E-03      0.54840974E-12      0.59859539E-11      0.22371726E-19      0.87384062E-12      0.87101893E-20
    0.389168320724         0.26534940E-06      0.14770679E-03      0.52952268E-12      0.62420000E-11      0.22377310E-19      0.91302108E-12      0.88506496E-20
    0.395445229123         0.27924851E-06      0.15065852E-03      0.51158427E-12      0.65938776E-11      0.22390530E-19      0.95441024E-12      0.89911929E-20
    0.401722137522         0.29373083E-06      0.15160491E-03      0.49359788E-12      0.68703633E-11      0.22368648E-19      0.99753489E-12      0.91315989E-20
    0.407999045921         0.30881467E-06      0.15660251E-03      0.47706219E-12      0.73464947E-11      0.22379812E-19      0.10436482E-11      0.92720749E-20
    0.414275954320         0.32451858E-06      0.15820482E-03      0.46072664E-12      0.76809020E-11      0.22368447E-19      0.10918605E-11      0.94124796E-20
    0.420552862718         0.34086139E-06      0.16858042E-03      0.44550511E-12      0.84685102E-11      0.22379613E-19      0.11450165E-11      0.95529544E-20
    0.426829771117         0.35786219E-06      0.16965888E-03      0.43038990E-12      0.88161786E-11      0.22364843E-19      0.12003549E-11      0.96933365E-20
    0.433106679516         0.37554031E-06      0.19404803E-03      0.41668635E-12      0.10428302E-10      0.22393069E-19      0.12658124E-11      0.98338957E-20
    0.439383587915         0.39391532E-06      0.18944683E-03      0.40286301E-12      0.10526623E-10      0.22385104E-19      0.13318870E-11      0.99744050E-20
    0.445660496313         0.41300701E-06      0.27437102E-03      0.38954047E-12      0.15759201E-10      0.22374253E-19      0.14308061E-11      0.10114846E-19
    0.451937404712         0.43283537E-06      0.19266941E-03      0.37716970E-12      0.11436678E-10      0.22388444E-19      0.15025931E-11      0.10255376E-19
    0.458214313111         0.45342059E-06      0.16760433E-02      0.36470285E-12      0.10279228E-09      0.22367344E-19      0.21478108E-11      0.10395774E-19
    0.464491221510         0.47478305E-06      0.44939197E-02      0.35331367E-12      0.28469883E-09      0.22383130E-19      0.39348392E-11      0.10536271E-19
    0.470768129909         0.49694328E-06      0.31275881E-02      0.34201693E-12      0.20462184E-09      0.22376391E-19      0.52192318E-11      0.10676725E-19
    0.477045038307         0.51992196E-06      0.12851979E-03      0.33146184E-12      0.86814341E-11      0.22390046E-19      0.52737244E-11      0.10817266E-19
    0.483321946706         0.54373993E-06     -0.28612879E-03      0.32116894E-12     -0.19950737E-10      0.22393961E-19      0.51484954E-11      0.10957831E-19
    0.489598855105         0.56841810E-06     -0.13914799E-03      0.31105809E-12     -0.10012606E-10      0.22382659E-19      0.50856472E-11      0.11098325E-19
    0.495875763504         0.59397753E-06     -0.24546258E-03      0.30157145E-12     -0.18223220E-10      0.22388760E-19      0.49712617E-11      0.11238857E-19
    0.502152671902         0.62043932E-06     -0.23900190E-03      0.29215889E-12     -0.18302380E-10      0.22373057E-19      0.48563793E-11      0.11379290E-19
    0.508429580301         0.64782466E-06      0.21682914E-02      0.28350777E-12      0.17123281E-09      0.22388980E-19      0.59311920E-11      0.11519824E-19
    0.514706488700         0.67615476E-06      0.19476767E-01      0.27458874E-12      0.15857912E-08      0.22356915E-19      0.15885058E-10      0.11660156E-19
    0.520983397099         0.70545086E-06      0.39338369E-01      0.26521393E-12      0.33014286E-08      0.22257782E-19      0.36607823E-10      0.11799866E-19
    0.527260305498         0.73573422E-06      0.37113778E-01      0.25816206E-12      0.32097685E-08      0.22327030E-19      0.56755246E-10      0.11940011E-19
    0.533537213896         0.76702604E-06      0.34904997E-01      0.25120149E-12      0.31101094E-08      0.22382587E-19      0.76277118E-10      0.12080504E-19
    0.539814122295         0.79934752E-06      0.46461076E-01      0.24237240E-12      0.42640603E-08      0.22244223E-19      0.10304223E-09      0.12220129E-19
    0.546091030694         0.83271978E-06      0.59309763E-01      0.23588674E-12      0.56053496E-08      0.22293591E-19      0.13822650E-09      0.12360064E-19
    0.552367939093         0.86716384E-06      0.66520632E-01      0.22693980E-12      0.64724952E-08      0.22081372E-19      0.17885376E-09      0.12498667E-19
    0.558644847491         0.90270064E-06      0.71623641E-01      0.22145591E-12      0.71731023E-08      0.22178793E-19      0.22387867E-09      0.12637881E-19
    0.564921755890         0.93935095E-06      0.75181450E-01      0.21244482E-12      0.77480595E-08      0.21894165E-19      0.27251253E-09      0.12775309E-19
    0.571198664289         0.97713540E-06      0.80447364E-01      0.20753714E-12      0.85294703E-08      0.22004225E-19      0.32605123E-09      0.12913427E-19
    0.577475572688         0.10160745E-05      0.87299782E-01      0.19827357E-12      0.95202368E-08      0.21622177E-19      0.38580888E-09      0.13049148E-19
    0.583752481087         0.10561883E-05      0.98340337E-01      0.19940021E-12      0.11027752E-07      0.22360469E-19      0.45502907E-09      0.13189502E-19
    0.590029389485         0.10974971E-05      0.11062432E+00      0.19608240E-12      0.12753313E-07      0.22605338E-19      0.53508045E-09      0.13331394E-19
    0.596306297884         0.11400204E-05      0.12721010E+00      0.18665237E-12      0.15073271E-07      0.22116654E-19      0.62969399E-09      0.13470218E-19
    0.602583206283         0.11837778E-05      0.14554693E+00      0.18390703E-12      0.17721434E-07      0.22392065E-19      0.74092981E-09      0.13610771E-19
    0.608860114682         0.12287883E-05      0.17690110E+00      0.17302105E-12      0.22127521E-07      0.21642188E-19      0.87982223E-09      0.13746617E-19
    0.615137023081         0.12750709E-05      0.22006696E+00      0.17147654E-12      0.28272225E-07      0.22029765E-19      0.10572844E-08      0.13884896E-19
    0.621413931479         0.13226439E-05      0.36682001E+00      0.15173877E-12      0.48390225E-07      0.20017101E-19      0.13610254E-08      0.14010542E-19
    0.627690839878         0.13715254E-05      0.10632359E+01      0.13525684E-12      0.14398935E-06      0.18317238E-19      0.22648334E-08      0.14125517E-19
    0.633967748277         0.14217330E-05      0.17015366E+01      0.51283451E-13      0.23650203E-06      0.71280513E-20      0.37493349E-08      0.14170259E-19
    0.640244656676         0.14732840E-05      0.11947086E+01      0.10468416E-12      0.17039042E-06      0.14930150E-19      0.48188600E-08      0.14263975E-19
    0.646521565074         0.15261949E-05      0.34706494E+00      0.14474704E-12      0.50778563E-07      0.21177727E-19      0.51375924E-08      0.14396905E-19
    0.652798473473         0.15804821E-05      0.72615773E-01      0.14499955E-12      0.10896426E-07      0.21758040E-19      0.52059883E-08      0.14533478E-19
    0.659075381872         0.16361611E-05      0.77169421E-01      0.14265091E-12      0.11873503E-07      0.21948669E-19      0.52805172E-08      0.14671248E-19
    0.665352290271         0.16932470E-05      0.97610489E-01      0.13472066E-12      0.15395997E-07      0.21249344E-19      0.53771564E-08      0.14804628E-19
    0.671629198670         0.17517545E-05      0.11718467E+00      0.13905927E-12      0.18943366E-07      0.22479481E-19      0.54960622E-08      0.14945730E-19
    0.677906107068         0.18116973E-05      0.13430135E+00      0.13070443E-12      0.22245346E-07      0.21649560E-19      0.56356942E-08      0.15081622E-19
    0.684183015467         0.18730887E-05      0.26177947E+00      0.12891938E-12      0.44418544E-07      0.21874945E-19      0.59145053E-08      0.15218929E-19
    0.690459923866         0.19359414E-05      0.41392575E+00      0.13231454E-12      0.71931457E-07      0.22993442E-19      0.63660125E-08      0.15363257E-19
    0.696736832265         0.20002671E-05      0.30639344E+00      0.11743302E-12      0.54518182E-07      0.20895469E-19      0.67082181E-08      0.15494416E-19
    0.703013740663         0.20660771E-05      0.13271707E+00      0.12208312E-12      0.24174202E-07      0.22237245E-19      0.68599574E-08      0.15633997E-19
    0.709290649062         0.21333816E-05      0.12113057E+00      0.11498219E-12      0.22580874E-07      0.21434707E-19      0.70016955E-08      0.15768541E-19
    0.715567557461         0.22021904E-05      0.15220470E+00      0.11410902E-12      0.29031867E-07      0.21765412E-19      0.71839258E-08      0.15905160E-19
    0.721844465860         0.22725123E-05      0.15842965E+00      0.10544860E-12      0.30913043E-07      0.20575297E-19      0.73779642E-08      0.16034310E-19
    0.728121374259         0.23443551E-05      0.14781352E+00      0.10673706E-12      0.29496905E-07      0.21299898E-19      0.75631135E-08      0.16168007E-19
    0.734398282657         0.24177260E-05      0.13885475E+00      0.99486515E-13      0.28332106E-07      0.20299359E-19      0.77409516E-08      0.16295424E-19
    0.740675191056         0.24926312E-05      0.14102158E+00      0.99967512E-13      0.29414297E-07      0.20851235E-19      0.79255824E-08      0.16426306E-19
    0.746952099455         0.25690760E-05      0.14762710E+00      0.10032472E-12      0.31469727E-07      0.21386260E-19      0.81231150E-08      0.16560545E-19
    0.753229007854         0.26470648E-05      0.15390518E+00      0.92297659E-13      0.33522271E-07      0.20103464E-19      0.83335312E-08      0.16686733E-19
    0.759505916252         0.27266009E-05      0.14577928E+00      0.10205308E-12      0.32436119E-07      0.22706972E-19      0.85371298E-08      0.16829262E-19
    0.765782824651         0.28076868E-05      0.14412668E+00      0.94539291E-13      0.32751416E-07      0.21483155E-19      0.87427074E-08      0.16964110E-19
