 
 # Omega; pulse ft; proj flux t=    500.100000000000     
    0.000000000000         0.76130340E-13      0.00000000E+00      0.00000000E+00      0.00000000E+00      0.00000000E+00      0.00000000E+00      0.00000000E+00
    0.006280045285         0.34874077E-10      0.10568440E-22      0.32960274E-31      0.36374205E-32      0.11344189E-40      0.22843166E-34      0.71242018E-43
    0.012560090569         0.13937409E-09      0.53667151E-22      0.19699087E-31      0.36909697E-31      0.13548089E-40      0.25463773E-33      0.15632463E-42
    0.018840135854         0.31389481E-09      0.49364643E-22      0.13821763E-32      0.50975181E-31      0.14272702E-41      0.57476418E-33      0.16528795E-42
    0.025120181138         0.55896774E-09      0.38606855E-22      0.12574892E-32      0.53244049E-31      0.17342469E-41      0.90913922E-33      0.17617910E-42
    0.031400226423         0.87533792E-09      0.32148805E-22      0.19360029E-33      0.55545705E-31      0.33449654E-42      0.12579688E-32      0.17827975E-42
    0.037680271707         0.12639648E-08      0.27037787E-22     -0.28604082E-33      0.56212742E-31     -0.59469139E-42      0.16109873E-32      0.17454507E-42
    0.043960316992         0.17260235E-08      0.23373658E-22      0.99631067E-33      0.56879433E-31      0.24245065E-41      0.19681927E-32      0.18977108E-42
    0.050240362276         0.22629062E-08      0.20691196E-22      0.63252495E-33      0.57761978E-31      0.17657700E-41      0.23309406E-32      0.20086019E-42
    0.056520407561         0.28762236E-08      0.18599345E-22      0.18513046E-33      0.58662111E-31      0.58389925E-42      0.26993413E-32      0.20452710E-42
    0.062800452845         0.35678072E-08      0.17578639E-22     -0.38342865E-33      0.61896562E-31     -0.13500997E-41      0.30880545E-32      0.19604842E-42
    0.069080498130         0.43397112E-08      0.16727578E-22     -0.11866386E-33      0.65130005E-31     -0.46202612E-42      0.34970739E-32      0.19314687E-42
    0.075360543414         0.51942150E-08      0.15280319E-22     -0.49237967E-34      0.65275617E-31     -0.21033846E-42      0.39070077E-32      0.19182594E-42
    0.081640588699         0.61338257E-08      0.14049907E-22      0.50299583E-34      0.65424652E-31      0.23422452E-42      0.43178775E-32      0.19329688E-42
    0.087920633984         0.71612808E-08      0.13095165E-22     -0.72616849E-34      0.66107927E-31     -0.36658945E-42      0.47330383E-32      0.19099468E-42
    0.094200679268         0.82795515E-08      0.12261423E-22     -0.12440585E-33      0.66793827E-31     -0.67769809E-42      0.51525065E-32      0.18673871E-42
    0.100480724553         0.94918457E-08      0.11472233E-22     -0.77037112E-34      0.67167400E-31     -0.45103535E-42      0.55743209E-32      0.18390618E-42
    0.106760769837         0.10801611E-07      0.10770996E-22      0.41248422E-34      0.67542226E-31      0.25865856E-42      0.59984891E-32      0.18553057E-42
    0.113040815122         0.12212540E-07      0.10160844E-22     -0.32458885E-34      0.68036687E-31     -0.21734366E-42      0.64257626E-32      0.18416564E-42
    0.119320860406         0.13728570E-07      0.96202980E-23     -0.28135496E-34      0.68602527E-31     -0.20063475E-42      0.68565895E-32      0.18290565E-42
    0.125600905691         0.15353891E-07      0.91215720E-23      0.15488174E-33      0.69109548E-31      0.11734608E-41      0.72906006E-32      0.19027503E-42
    0.131880950975         0.17092949E-07      0.86668348E-23      0.38055984E-33      0.69620657E-31      0.30570360E-41      0.77278215E-32      0.20947336E-42
    0.138160996260         0.18950447E-07      0.83034158E-23      0.36092504E-33      0.70588420E-31      0.30682708E-41      0.81711200E-32      0.22874224E-42
    0.144441041544         0.20931352E-07      0.79628824E-23      0.23203842E-33      0.71518706E-31      0.20840554E-41      0.86202607E-32      0.24183020E-42
    0.150721086829         0.23040899E-07      0.76346321E-23      0.32188769E-33      0.72336283E-31      0.30498076E-41      0.90745358E-32      0.26098313E-42
    0.157001132113         0.25284593E-07      0.73301443E-23      0.38886777E-33      0.73165843E-31      0.38814840E-41      0.95340206E-32      0.28535903E-42
    0.163281177398         0.27668217E-07      0.70551666E-23      0.38736682E-33      0.74096039E-31      0.40682735E-41      0.99993471E-32      0.31090797E-42
    0.169561222683         0.30197832E-07      0.68045667E-23      0.37679875E-33      0.75109068E-31      0.41591190E-41      0.10471035E-31      0.33702742E-42
    0.175841267967         0.32879785E-07      0.65621678E-23      0.21086768E-33      0.76049815E-31      0.24437730E-41      0.10948632E-31      0.35237443E-42
    0.182121313252         0.35720711E-07      0.63302915E-23      0.21343910E-33      0.76953027E-31      0.25946332E-41      0.11431900E-31      0.36866884E-42
    0.188401358536         0.38727539E-07      0.61179274E-23      0.70711863E-34      0.77944031E-31      0.90088806E-42      0.11921392E-31      0.37432646E-42
    0.194681403821         0.41907495E-07      0.59160306E-23      0.12758655E-33      0.78929675E-31      0.17022166E-41      0.12417074E-31      0.38501646E-42
    0.200961449105         0.45268105E-07      0.57247502E-23      0.11974539E-33      0.79924289E-31      0.16717873E-41      0.12919002E-31      0.39551536E-42
    0.207241494390         0.48817202E-07      0.55418375E-23      0.11192730E-33      0.80908217E-31      0.16340859E-41      0.13427110E-31      0.40577749E-42
    0.213521539674         0.52562928E-07      0.53426275E-23      0.14330138E-33      0.81514604E-31      0.21864064E-41      0.13939025E-31      0.41950822E-42
    0.219801584959         0.56513737E-07      0.52211559E-23     -0.11034181E-33      0.83201765E-31     -0.17583527E-41      0.14461536E-31      0.40846569E-42
    0.226081630243         0.60678401E-07      0.52196030E-23     -0.46609680E-34      0.86825840E-31     -0.77533188E-42      0.15006806E-31      0.40359657E-42
    0.232361675528         0.65066012E-07      0.51035627E-23      0.64101420E-35      0.88573909E-31      0.11125000E-42      0.15563054E-31      0.40429522E-42
    0.238641720812         0.69685984E-07      0.48710131E-23     -0.15030723E-34      0.88157860E-31     -0.27203301E-42      0.16116690E-31      0.40258684E-42
    0.244921766097         0.74548059E-07      0.46988499E-23      0.91208912E-36      0.88642747E-31      0.17206356E-43      0.16673370E-31      0.40269490E-42
    0.251201811381         0.79662308E-07      0.45548698E-23     -0.36025407E-34      0.89525912E-31     -0.70807895E-42      0.17235597E-31      0.39824813E-42
    0.257481856666         0.85039131E-07      0.44244531E-23     -0.30786013E-35      0.90567934E-31     -0.63018535E-43      0.17804368E-31      0.39785237E-42
    0.263761901951         0.90689267E-07      0.43095699E-23     -0.62594529E-35      0.91837580E-31     -0.13338988E-42      0.18381112E-31      0.39701468E-42
    0.270041947235         0.96623785E-07      0.41930092E-23     -0.17495075E-34      0.92986801E-31     -0.38798175E-42      0.18965073E-31      0.39457814E-42
    0.276321992520         0.10285409E-06      0.40901572E-23      0.21616017E-34      0.94360191E-31      0.49868290E-42      0.19557659E-31      0.39770989E-42
    0.282602037804         0.10939194E-06      0.39958356E-23      0.30547772E-34      0.95865058E-31      0.73287900E-42      0.20159696E-31      0.40231240E-42
    0.288882083089         0.11624942E-06      0.39056163E-23      0.19326810E-34      0.97409752E-31      0.48202887E-42      0.20771434E-31      0.40533956E-42
    0.295162128373         0.12343895E-06      0.38143815E-23      0.36822688E-34      0.98868602E-31      0.95444247E-42      0.21392333E-31      0.41133350E-42
    0.301442173658         0.13097330E-06      0.37086334E-23      0.20568586E-34      0.99870067E-31      0.55389299E-42      0.22019522E-31      0.41481198E-42
    0.307722218942         0.13886558E-06      0.36086859E-23      0.17402788E-34      0.10093168E-30      0.48674025E-42      0.22653377E-31      0.41786873E-42
    0.314002264227         0.14712923E-06      0.35701094E-23      0.25436710E-34      0.10367890E-30      0.73870287E-42      0.23304485E-31      0.42250782E-42
    0.320282309511         0.15577804E-06      0.35291564E-23      0.26467565E-34      0.10638658E-30      0.79786598E-42      0.23972598E-31      0.42751845E-42
    0.326562354796         0.16482612E-06      0.33625570E-23      0.33562449E-34      0.10518947E-30      0.10499201E-41      0.24633193E-31      0.43411200E-42
    0.332842400080         0.17428793E-06      0.32079549E-23      0.13554018E-34      0.10411172E-30      0.43988526E-42      0.25287019E-31      0.43687450E-42
    0.339122445365         0.18417826E-06      0.31583068E-23      0.16229084E-34      0.10631115E-30      0.54628406E-42      0.25954658E-31      0.44030518E-42
    0.345402490650         0.19451221E-06      0.31080358E-23      0.16545442E-34      0.10848010E-30      0.57748732E-42      0.26635918E-31      0.44393183E-42
    0.351682535934         0.20530523E-06      0.30476067E-23      0.22664183E-34      0.11026833E-30      0.82003417E-42      0.27328408E-31      0.44908168E-42
    0.357962581219         0.21657306E-06      0.29896130E-23      0.34066794E-34      0.11210487E-30      0.12774407E-41      0.28032431E-31      0.45710407E-42
    0.364242626503         0.22833179E-06      0.29369847E-23      0.23240636E-34      0.11410902E-30      0.90295538E-42      0.28749041E-31      0.46277467E-42
    0.370522671788         0.24059779E-06      0.28866995E-23      0.24933404E-34      0.11617725E-30      0.10034624E-41      0.29478640E-31      0.46907646E-42
    0.376802717072         0.25338774E-06      0.28185065E-23      0.29080345E-34      0.11747171E-30      0.12120312E-41      0.30216367E-31      0.47668807E-42
    0.383082762357         0.26671863E-06      0.27516782E-23      0.26457455E-34      0.11874110E-30      0.11416986E-41      0.30962067E-31      0.48385799E-42
    0.389362807641         0.28060773E-06      0.26986794E-23      0.32674276E-34      0.12054220E-30      0.14594654E-41      0.31719077E-31      0.49302350E-42
    0.395642852926         0.29507259E-06      0.26468551E-23      0.24757704E-34      0.12234842E-30      0.11444019E-41      0.32487431E-31      0.50021039E-42
    0.401922898210         0.31013104E-06      0.25937324E-23      0.14959178E-34      0.12404245E-30      0.71540649E-42      0.33266423E-31      0.50470318E-42
    0.408202943495         0.32580116E-06      0.25416271E-23      0.33861511E-34      0.12572771E-30      0.16750412E-41      0.34055999E-31      0.51522251E-42
    0.414482988779         0.34210131E-06      0.24936297E-23      0.33351222E-34      0.12756239E-30      0.17060920E-41      0.34857096E-31      0.52593685E-42
    0.420763034064         0.35905007E-06      0.24451342E-23      0.34717857E-34      0.12931914E-30      0.18361705E-41      0.35669227E-31      0.53746808E-42
    0.427043079349         0.37666626E-06      0.23996123E-23      0.28683393E-34      0.13118035E-30      0.15680439E-41      0.36493045E-31      0.54731547E-42
    0.433323124633         0.39496893E-06      0.23520695E-23      0.31313562E-34      0.13287519E-30      0.17689934E-41      0.37327507E-31      0.55842483E-42
    0.439603169918         0.41397733E-06      0.23061272E-23      0.10919967E-34      0.13459895E-30      0.63735260E-42      0.38172795E-31      0.56242743E-42
    0.445883215202         0.43371092E-06      0.22498419E-23      0.12542775E-34      0.13563567E-30      0.75616318E-42      0.39024593E-31      0.56717617E-42
    0.452163260487         0.45418931E-06      0.21889749E-23      0.13450473E-34      0.13627779E-30      0.83737861E-42      0.39880424E-31      0.57243495E-42
    0.458443305771         0.47543232E-06      0.19286517E-23      0.12766388E-34      0.12396513E-30      0.82056647E-42      0.40658930E-31      0.57758814E-42
    0.464723351056         0.49745989E-06      0.17281469E-23      0.13765573E-34      0.11465339E-30      0.91327284E-42      0.41378959E-31      0.58332353E-42
    0.471003396340         0.52029212E-06      0.20286080E-23      0.17012643E-34      0.13888778E-30      0.11647633E-41      0.42251180E-31      0.59063830E-42
    0.477283441625         0.54394922E-06      0.22634820E-23      0.21415238E-34      0.15988279E-30      0.15126818E-41      0.43255251E-31      0.60013801E-42
    0.483563486909         0.56845152E-06      0.21862597E-23      0.22764217E-34      0.15928848E-30      0.16585758E-41      0.44255590E-31      0.61055394E-42
    0.489843532194         0.59381941E-06      0.21230961E-23      0.18217755E-34      0.15951787E-30      0.13687828E-41      0.45257370E-31      0.61914996E-42
    0.496123577478         0.62007337E-06      0.20698140E-23      0.18000079E-34      0.16033458E-30      0.13943451E-41      0.46264278E-31      0.62790651E-42
    0.502403622763         0.64723393E-06      0.20186889E-23      0.10449979E-34      0.16118350E-30      0.83438522E-42      0.47276518E-31      0.63314649E-42
    0.508683668048         0.67532166E-06      0.19006687E-23      0.13330534E-34      0.15639108E-30      0.10968648E-41      0.48258661E-31      0.64003485E-42
    0.514963713332         0.70435711E-06      0.19427425E-23      0.14822516E-34      0.16469264E-30      0.12565532E-41      0.49292938E-31      0.64792606E-42
    0.521243758617         0.73436086E-06      0.22365240E-23      0.14695725E-34      0.19529220E-30      0.12832237E-41      0.50519382E-31      0.65598476E-42
    0.527523803901         0.76535344E-06      0.22591420E-23      0.19407512E-34      0.20314502E-30      0.17451490E-41      0.51795142E-31      0.66694438E-42
    0.533803849186         0.79735534E-06      0.21064823E-23      0.36113636E-35      0.19501621E-30      0.33433674E-42      0.53019853E-31      0.66904403E-42
    0.540083894470         0.83038696E-06      0.20334534E-23      0.63861466E-35      0.19377430E-30      0.60855642E-42      0.54236764E-31      0.67286579E-42
    0.546363939755         0.86446862E-06      0.20166616E-23      0.83773229E-35      0.19776203E-30      0.82151432E-42      0.55478718E-31      0.67802494E-42
    0.552643985039         0.89962053E-06      0.20242272E-23      0.64582721E-35      0.20422826E-30      0.65158777E-42      0.56761281E-31      0.68211694E-42
    0.558924030324         0.93586274E-06      0.19890906E-23      0.66558432E-35      0.20642230E-30      0.69072493E-42      0.58057623E-31      0.68645472E-42
    0.565204075608         0.97321515E-06      0.19619403E-23      0.11639005E-34      0.20937848E-30      0.12421159E-41      0.59372529E-31      0.69425526E-42
    0.571484120893         0.10116975E-05      0.19440257E-23      0.12875538E-34      0.21330015E-30      0.14127150E-41      0.60712064E-31      0.70312718E-42
    0.577764166177         0.10513292E-05      0.19352409E-23      0.10905135E-34      0.21825581E-30      0.12298775E-41      0.62082720E-31      0.71085086E-42
    0.584044211462         0.10921295E-05      0.19025336E-23      0.10992708E-34      0.22049738E-30      0.12740187E-41      0.63467453E-31      0.71885176E-42
    0.590324256747         0.11341175E-05      0.19056698E-23      0.91801609E-35      0.22691215E-30      0.10931013E-41      0.64892472E-31      0.72571649E-42
    0.596604302031         0.11773119E-05      0.18513810E-23      0.42408352E-35      0.22643503E-30      0.51867966E-42      0.66314494E-31      0.72897382E-42
    0.602884347316         0.12217310E-05      0.18511583E-23      0.68662228E-35      0.23250260E-30      0.86238687E-42      0.67774621E-31      0.73438965E-42
    0.609164392600         0.12673928E-05      0.17235917E-23      0.60458879E-35      0.22225616E-30      0.77961376E-42      0.69170400E-31      0.73928566E-42
    0.615444437885         0.13143151E-05      0.17434940E-23      0.41969953E-35      0.23076704E-30      0.55550991E-42      0.70619627E-31      0.74277428E-42
    0.621724483169         0.13625152E-05      0.11663911E-23      0.61164852E-35      0.15842739E-30      0.83078373E-42      0.71614559E-31      0.74799164E-42
    0.628004528454         0.14120099E-05      0.25717619E-23      0.68023223E-35      0.35838381E-30      0.94792687E-42      0.73865225E-31      0.75394467E-42
    0.634284573738         0.14628155E-05      0.84997638E-23      0.55252459E-35      0.12149403E-29      0.78976830E-42      0.81495105E-31      0.75890445E-42
    0.640564619023         0.15149482E-05      0.91718994E-23      0.56780649E-35      0.13444257E-29      0.83229611E-42      0.89938160E-31      0.76413130E-42
    0.646844664307         0.15684233E-05      0.42177031E-23      0.62564694E-35      0.63384338E-30      0.94023255E-42      0.93918725E-31      0.77003601E-42
    0.653124709592         0.16232557E-05      0.27108294E-23      0.82585526E-35      0.41757615E-30      0.12721474E-41      0.96541122E-31      0.77802515E-42
    0.659404754876         0.16794598E-05      0.27626680E-23      0.48638955E-35      0.43610282E-30      0.76779351E-42      0.99279867E-31      0.78284693E-42
    0.665684800161         0.17370493E-05      0.28095232E-23      0.65629245E-35      0.45437959E-30      0.10614110E-41      0.10213339E-30      0.78951264E-42
    0.671964845445         0.17960375E-05      0.29311643E-23      0.56253127E-35      0.48556981E-30      0.93187614E-42      0.10518279E-30      0.79536486E-42
    0.678244890730         0.18564368E-05      0.39515602E-23      0.42540032E-35      0.67035511E-30      0.72166248E-42      0.10939265E-30      0.79989693E-42
    0.684524936015         0.19182592E-05      0.12239773E-22      0.37486939E-35      0.21258569E-29      0.65108946E-42      0.12274313E-30      0.80398581E-42
    0.690804981299         0.19815157E-05      0.28339572E-22      0.45769945E-35      0.50382304E-29      0.81370152E-42      0.15438345E-30      0.80909589E-42
    0.697085026584         0.20462170E-05      0.38559052E-22      0.47686097E-35      0.70151176E-29      0.86756172E-42      0.19843870E-30      0.81454422E-42
    0.703365071868         0.21123726E-05      0.30472970E-22      0.43733199E-35      0.56721432E-29      0.81403606E-42      0.23406002E-30      0.81965640E-42
    0.709645117153         0.21799915E-05      0.20457685E-22      0.46933913E-35      0.38950475E-29      0.89359972E-42      0.25852109E-30      0.82526825E-42
    0.715925162437         0.22490820E-05      0.22635264E-22      0.22000943E-35      0.44072318E-29      0.42837254E-42      0.28619871E-30      0.82795844E-42
    0.722205207722         0.23196512E-05      0.28293546E-22      0.37127741E-35      0.56323825E-29      0.73910014E-42      0.32157032E-30      0.83260003E-42
    0.728485253006         0.23917059E-05      0.29620773E-22      0.34601560E-35      0.60273453E-29      0.70408543E-42      0.35942233E-30      0.83702171E-42
    0.734765298291         0.24652514E-05      0.26807839E-22      0.45479176E-35      0.55746431E-29      0.94573148E-42      0.39443134E-30      0.84296095E-42
    0.741045343575         0.25402927E-05      0.25810293E-22      0.47431124E-35      0.54837114E-29      0.10077320E-41      0.42886929E-30      0.84928955E-42
    0.747325388860         0.26168335E-05      0.25948859E-22      0.11406824E-35      0.56315415E-29      0.24755617E-42      0.46423563E-30      0.85084422E-42
    0.753605434144         0.26948767E-05      0.28666730E-22      0.36768996E-35      0.63535391E-29      0.81492815E-42      0.50413614E-30      0.85596200E-42
    0.759885479429         0.27744242E-05      0.28297518E-22      0.45286516E-35      0.64034752E-29      0.10247933E-41      0.54435026E-30      0.86239775E-42
    0.766165524714         0.28554769E-05      0.22308628E-22      0.55636909E-35      0.51531357E-29      0.12851734E-41      0.57671218E-30      0.87046870E-42
