 
 # Omega; pulse ft; proj flux t=    500.250000000000     
    0.000000000000         0.23733438E-09      0.00000000E+00      0.00000000E+00      0.12749960E-08      0.65115658E-20      0.63686112E-12      0.32525304E-23
    0.006276908399         0.26847166E-09      0.34145718E-01      0.19399428E-12      0.11374739E-08      0.64624043E-20      0.12050299E-11      0.64805045E-23
    0.012553816798         0.36198451E-09      0.43812565E-01      0.29521373E-12      0.98393274E-09      0.66298437E-20      0.16965048E-11      0.97921148E-23
    0.018830725196         0.51817601E-09      0.44957653E-01      0.31263866E-12      0.96353263E-09      0.67004732E-20      0.21777898E-11      0.13139004E-22
    0.025107633595         0.73755180E-09      0.42119103E-01      0.28902930E-12      0.96364795E-09      0.66127355E-20      0.26591325E-11      0.16442069E-22
    0.031384541994         0.10208207E-08      0.38262448E-01      0.25875961E-12      0.96930171E-09      0.65551511E-20      0.31432992E-11      0.19716370E-22
    0.037661450393         0.13688958E-08      0.34541221E-01      0.23550392E-12      0.97783048E-09      0.66669013E-20      0.36317260E-11      0.23046491E-22
    0.043938358791         0.17828953E-08      0.31243273E-01      0.20764160E-12      0.98739534E-09      0.65621918E-20      0.41249304E-11      0.26324309E-22
    0.050215267190         0.22641447E-08      0.28423859E-01      0.18816052E-12      0.99816878E-09      0.66076868E-20      0.46235162E-11      0.29624852E-22
    0.056492175589         0.28141777E-08      0.26019859E-01      0.16993479E-12      0.10095334E-08      0.65932272E-20      0.51277787E-11      0.32918172E-22
    0.062769083988         0.34347388E-08      0.23949182E-01      0.15653301E-12      0.10206837E-08      0.66712375E-20      0.56376107E-11      0.36250459E-22
    0.069045992387         0.41277855E-08      0.22170483E-01      0.14313585E-12      0.10323009E-08      0.66646847E-20      0.61532455E-11      0.39579472E-22
    0.075322900785         0.48954902E-08      0.20636889E-01      0.12980398E-12      0.10446382E-08      0.65706704E-20      0.66750428E-11      0.42861525E-22
    0.081599809184         0.57402438E-08      0.19296569E-01      0.12087999E-12      0.10572406E-08      0.66228991E-20      0.72031350E-11      0.46169666E-22
    0.087876717583         0.66646579E-08      0.18118002E-01      0.10864303E-12      0.10702048E-08      0.64173900E-20      0.77377028E-11      0.49375156E-22
    0.094153625982         0.76715684E-08      0.17073481E-01      0.10154706E-12      0.10834821E-08      0.64441699E-20      0.82789027E-11      0.52594022E-22
    0.100430534380         0.87640384E-08      0.16142325E-01      0.97433704E-13      0.10971275E-08      0.66221689E-20      0.88269184E-11      0.55901799E-22
    0.106707442779         0.99453622E-08      0.15306305E-01      0.91779070E-13      0.11110889E-08      0.66622677E-20      0.93819079E-11      0.59229605E-22
    0.112984351178         0.11219069E-07      0.14552792E-01      0.83861157E-13      0.11254789E-08      0.64856259E-20      0.99440852E-11      0.62469178E-22
    0.119261259577         0.12588925E-07      0.13868727E-01      0.78191722E-13      0.11401931E-08      0.64283954E-20      0.10513612E-10      0.65680165E-22
    0.125538167976         0.14058942E-07      0.13245919E-01      0.74643987E-13      0.11553444E-08      0.65106481E-20      0.11090707E-10      0.68932237E-22
    0.131815076374         0.15633376E-07      0.12675348E-01      0.71472874E-13      0.11708469E-08      0.66020904E-20      0.11675546E-10      0.72229984E-22
    0.138091984773         0.17316734E-07      0.12151424E-01      0.67202736E-13      0.11867992E-08      0.65635231E-20      0.12268353E-10      0.75508467E-22
    0.144368893172         0.19113780E-07      0.11667662E-01      0.63614819E-13      0.12031211E-08      0.65596974E-20      0.12869312E-10      0.78785039E-22
    0.150645801571         0.21029537E-07      0.11221072E-01      0.61516208E-13      0.12199993E-08      0.66882852E-20      0.13478703E-10      0.82125841E-22
    0.156922709970         0.23069292E-07      0.10806154E-01      0.57990609E-13      0.12372919E-08      0.66398563E-20      0.14096730E-10      0.85442453E-22
    0.163199618368         0.25238602E-07      0.10419852E-01      0.53761306E-13      0.12550478E-08      0.64754283E-20      0.14723627E-10      0.88676932E-22
    0.169476526767         0.27543295E-07      0.10059345E-01      0.52279094E-13      0.12732937E-08      0.66173932E-20      0.15359638E-10      0.91982324E-22
    0.175753435166         0.29989481E-07      0.97219038E-02      0.47553960E-13      0.12920193E-08      0.63198150E-20      0.16005003E-10      0.95139074E-22
    0.182030343565         0.32583550E-07      0.94055556E-02      0.46715873E-13      0.13112684E-08      0.65128583E-20      0.16659982E-10      0.98392250E-22
    0.188307251963         0.35332181E-07      0.91089324E-02      0.44349134E-13      0.13311390E-08      0.64809859E-20      0.17324886E-10      0.10162951E-21
    0.194584160362         0.38242343E-07      0.88297397E-02      0.42429737E-13      0.13515666E-08      0.64947120E-20      0.17999995E-10      0.10487362E-21
    0.200861068761         0.41321305E-07      0.85671258E-02      0.41204103E-13      0.13726694E-08      0.66019353E-20      0.18685644E-10      0.10817129E-21
    0.207137977160         0.44576634E-07      0.83195986E-02      0.36952391E-13      0.13944484E-08      0.61935924E-20      0.19382171E-10      0.11126499E-21
    0.213414885559         0.48016203E-07      0.80844588E-02      0.37131908E-13      0.14166632E-08      0.65067319E-20      0.20089795E-10      0.11451511E-21
    0.219691793957         0.51648196E-07      0.78627082E-02      0.36315185E-13      0.14396801E-08      0.66493948E-20      0.20808916E-10      0.11783648E-21
    0.225968702356         0.55481108E-07      0.76519487E-02      0.35258881E-13      0.14632597E-08      0.67424526E-20      0.21539815E-10      0.12120434E-21
    0.232245610755         0.59523755E-07      0.74525000E-02      0.33326600E-13      0.14876382E-08      0.66525225E-20      0.22282891E-10      0.12452728E-21
    0.238522519154         0.63785271E-07      0.72642356E-02      0.32042102E-13      0.15129810E-08      0.66736673E-20      0.23038626E-10      0.12786078E-21
    0.244799427552         0.68275117E-07      0.70857331E-02      0.30806398E-13      0.15391799E-08      0.66918395E-20      0.23807447E-10      0.13120336E-21
    0.251076335951         0.73003082E-07      0.69156760E-02      0.28668338E-13      0.15661112E-08      0.64921787E-20      0.24589720E-10      0.13444620E-21
    0.257353244350         0.77979284E-07      0.67547267E-02      0.28306825E-13      0.15940793E-08      0.66802589E-20      0.25385964E-10      0.13778300E-21
    0.263630152749         0.83214178E-07      0.66012959E-02      0.26702001E-13      0.16228709E-08      0.65644536E-20      0.26196589E-10      0.14106194E-21
    0.269907061148         0.88718553E-07      0.64562652E-02      0.25957178E-13      0.16528525E-08      0.66452330E-20      0.27022189E-10      0.14438124E-21
    0.276183969546         0.94503538E-07      0.63174737E-02      0.24790403E-13      0.16836258E-08      0.66067174E-20      0.27863161E-10      0.14768130E-21
    0.282460877945         0.10058060E-06      0.61867128E-02      0.23994471E-13      0.17158069E-08      0.66545646E-20      0.28720208E-10      0.15100526E-21
    0.288737786344         0.10696156E-06      0.60608158E-02      0.22410596E-13      0.17486694E-08      0.64659158E-20      0.29593669E-10      0.15423499E-21
    0.295014694743         0.11365856E-06      0.59429209E-02      0.21463485E-13      0.17832448E-08      0.64403766E-20      0.30484401E-10      0.15745196E-21
    0.301291603141         0.12068410E-06      0.58272456E-02      0.21552378E-13      0.18179373E-08      0.67237376E-20      0.31392461E-10      0.16081047E-21
    0.307568511540         0.12805103E-06      0.57201835E-02      0.20273414E-13      0.18548282E-08      0.65738628E-20      0.32318949E-10      0.16409412E-21
    0.313845419939         0.13577253E-06      0.56060687E-02      0.19118168E-13      0.18888917E-08      0.64416173E-20      0.33262451E-10      0.16731171E-21
    0.320122328338         0.14386214E-06      0.55069386E-02      0.18553167E-13      0.19274952E-08      0.64938331E-20      0.34225236E-10      0.17055538E-21
    0.326399236737         0.15233372E-06      0.55048100E-02      0.17869780E-13      0.20009755E-08      0.64955909E-20      0.35224724E-10      0.17379993E-21
    0.332676145135         0.16120149E-06      0.54437652E-02      0.17751915E-13      0.20544678E-08      0.66995426E-20      0.36250932E-10      0.17714635E-21
    0.338953053534         0.17048002E-06      0.53262916E-02      0.16317605E-13      0.20864665E-08      0.63920899E-20      0.37293123E-10      0.18033921E-21
    0.345229961933         0.18018417E-06      0.52488923E-02      0.16504053E-13      0.21336755E-08      0.67089001E-20      0.38358895E-10      0.18369031E-21
    0.351506870332         0.19032920E-06      0.51774250E-02      0.15498606E-13      0.21834233E-08      0.65360710E-20      0.39449516E-10      0.18695508E-21
    0.357783778731         0.20093064E-06      0.51161644E-02      0.14758409E-13      0.22378066E-08      0.64553175E-20      0.40567302E-10      0.19017951E-21
    0.364060687129         0.21200438E-06      0.50593583E-02      0.14374265E-13      0.22946635E-08      0.65194240E-20      0.41713487E-10      0.19343597E-21
    0.370337595528         0.22356662E-06      0.50115937E-02      0.13916133E-13      0.23563378E-08      0.65430503E-20      0.42890479E-10      0.19670422E-21
    0.376614503927         0.23563389E-06      0.49625691E-02      0.13581295E-13      0.24182423E-08      0.66181170E-20      0.44098392E-10      0.20000998E-21
    0.382891412326         0.24822301E-06      0.49236967E-02      0.12645482E-13      0.24860522E-08      0.63849038E-20      0.45340177E-10      0.20319924E-21
    0.389168320724         0.26135112E-06      0.48886514E-02      0.12538881E-13      0.25569869E-08      0.65584049E-20      0.46617393E-10      0.20647517E-21
    0.395445229123         0.27503566E-06      0.48640436E-02      0.12001625E-13      0.26348303E-08      0.65012260E-20      0.47933492E-10      0.20972253E-21
    0.401722137522         0.28929433E-06      0.48407655E-02      0.11393581E-13      0.27150682E-08      0.63903838E-20      0.49289670E-10      0.21291453E-21
    0.407999045921         0.30414516E-06      0.48315000E-02      0.11175236E-13      0.28051513E-08      0.64883013E-20      0.50690844E-10      0.21615544E-21
    0.414275954320         0.31960641E-06      0.48218049E-02      0.10719249E-13      0.28972630E-08      0.64408418E-20      0.52138029E-10      0.21937264E-21
    0.420552862718         0.33569662E-06      0.48332423E-02      0.10421964E-13      0.30048132E-08      0.64793057E-20      0.53638934E-10      0.22260906E-21
    0.426829771117         0.35243458E-06      0.48390512E-02      0.99756406E-14      0.31119784E-08      0.64153026E-20      0.55193369E-10      0.22581351E-21
    0.433106679516         0.36983933E-06      0.48837206E-02      0.99771266E-14      0.32480414E-08      0.66355395E-20      0.56815767E-10      0.22912796E-21
    0.439383587915         0.38793013E-06      0.49095781E-02      0.92032694E-14      0.33760308E-08      0.63285521E-20      0.58502096E-10      0.23228908E-21
    0.445660496313         0.40672647E-06      0.50343170E-02      0.90793647E-14      0.35784206E-08      0.64536631E-20      0.60289519E-10      0.23551269E-21
    0.451937404712         0.42624802E-06      0.51019379E-02      0.88338445E-14      0.37477601E-08      0.64891285E-20      0.62161527E-10      0.23875401E-21
    0.458214313111         0.44651466E-06      0.57695141E-02      0.86575026E-14      0.43788378E-08      0.65707092E-20      0.64348759E-10      0.24203608E-21
    0.464491221510         0.46754647E-06      0.83107229E-02      0.81739898E-14      0.65153629E-08      0.64081682E-20      0.67603186E-10      0.24523696E-21
    0.470768129909         0.48936365E-06      0.72212065E-02      0.78463963E-14      0.58463788E-08      0.63525403E-20      0.70523455E-10      0.24841006E-21
    0.477045038307         0.51198657E-06      0.51604635E-02      0.77651934E-14      0.43136056E-08      0.64908863E-20      0.72678103E-10      0.25165226E-21
    0.483321946706         0.53543573E-06      0.53607335E-02      0.74499591E-14      0.46253818E-08      0.64280205E-20      0.74988484E-10      0.25486306E-21
    0.489598855105         0.55973174E-06      0.55883630E-02      0.71949816E-14      0.49759578E-08      0.64065138E-20      0.77473977E-10      0.25806312E-21
    0.495875763504         0.58489532E-06      0.58508141E-02      0.69617808E-14      0.53749460E-08      0.63955537E-20      0.80158765E-10      0.26125770E-21
    0.502152671902         0.61094726E-06      0.66310469E-02      0.66746478E-14      0.62835140E-08      0.63248298E-20      0.83297384E-10      0.26441696E-21
    0.508429580301         0.63790841E-06      0.81810431E-02      0.66914796E-14      0.79944527E-08      0.65388627E-20      0.87290617E-10      0.26768312E-21
    0.514706488700         0.66579967E-06      0.19283943E-01      0.62489291E-14      0.19428189E-07      0.62956716E-20      0.96995007E-10      0.27082781E-21
    0.520983397099         0.69464194E-06      0.36123901E-01      0.49831898E-14      0.37513216E-07      0.51748419E-20      0.11573288E-09      0.27341265E-21
    0.527260305498         0.72445614E-06      0.32571413E-01      0.55158904E-14      0.34855888E-07      0.59027609E-20      0.13314341E-09      0.27636108E-21
    0.533537213896         0.75526319E-06      0.32378010E-01      0.59691018E-14      0.35697376E-07      0.65810490E-20      0.15097427E-09      0.27964832E-21
    0.539814122295         0.78708392E-06      0.41188512E-01      0.44709302E-14      0.46774100E-07      0.50772346E-20      0.17433795E-09      0.28218440E-21
    0.546091030694         0.81993914E-06      0.50693431E-01      0.48410685E-14      0.59281721E-07      0.56612241E-20      0.20394920E-09      0.28501218E-21
    0.552367939093         0.85384956E-06      0.55900730E-01      0.28884019E-14      0.67301217E-07      0.34774673E-20      0.23756619E-09      0.28674918E-21
    0.558644847491         0.88883579E-06      0.60369647E-01      0.33562735E-14      0.74809527E-07      0.41590641E-20      0.27493359E-09      0.28882664E-21
    0.564921755890         0.92491828E-06      0.64030217E-01      0.98080922E-15      0.81649320E-07      0.12506971E-20      0.31571747E-09      0.28945136E-21
    0.571198664289         0.96211735E-06      0.68204606E-01      0.19269050E-14      0.89476113E-07      0.25278640E-20      0.36041083E-09      0.29071403E-21
    0.577475572688         0.10004531E-05      0.75348150E-01     -0.11206264E-14      0.10166893E-06     -0.15120862E-20      0.41119451E-09      0.28995874E-21
    0.583752481087         0.10399456E-05      0.82833000E-01      0.46262346E-14      0.11493117E-06      0.64189216E-20      0.46860269E-09      0.29316499E-21
    0.590029389485         0.10806144E-05      0.96225293E-01      0.62443286E-14      0.13725839E-06      0.89070808E-20      0.53716332E-09      0.29761409E-21
    0.596306297884         0.11224790E-05      0.10636071E+00      0.25773006E-14      0.15593464E-06      0.37785610E-20      0.61505275E-09      0.29950148E-21
    0.602583206283         0.11655585E-05      0.12994801E+00      0.44233387E-14      0.19576689E-06      0.66637670E-20      0.71283841E-09      0.30283003E-21
    0.608860114682         0.12098719E-05      0.14729430E+00     -0.69267727E-15      0.22796089E-06     -0.10720261E-20      0.82670499E-09      0.30229456E-21
    0.615137023081         0.12554376E-05      0.20853065E+00      0.14154464E-14      0.33147114E-06      0.22499313E-20      0.99227499E-09      0.30341840E-21
    0.621413931479         0.13022739E-05      0.26997352E+00     -0.92275991E-14      0.44065130E-06     -0.15061305E-19      0.12123805E-08      0.29589527E-21
    0.627690839878         0.13503983E-05      0.72118349E+00     -0.16397553E-13      0.12084103E-05     -0.27475631E-19      0.18159821E-08      0.28217118E-21
    0.633967748277         0.13998285E-05      0.12356597E+01     -0.75912483E-13      0.21250008E-05     -0.13054895E-18      0.28774210E-08      0.21696191E-21
    0.640244656676         0.14505812E-05      0.82987501E+00     -0.32610785E-13      0.14644053E-05     -0.57545301E-19      0.36088922E-08      0.18821800E-21
    0.646521565074         0.15026729E-05      0.24439011E+00     -0.22079707E-14      0.44240252E-06     -0.39969367E-20      0.38298725E-08      0.18622153E-21
    0.652798473473         0.15561195E-05      0.97106453E-01     -0.21100643E-14      0.18028701E-06     -0.39175274E-20      0.39199259E-08      0.18426473E-21
    0.659075381872         0.16109365E-05      0.87488215E-01      0.13556858E-15      0.16655031E-06      0.25808035E-21      0.40031179E-08      0.18439364E-21
    0.665352290271         0.16671388E-05      0.92218026E-01     -0.34180485E-14      0.17996517E-06     -0.66703845E-20      0.40930106E-08      0.18106178E-21
    0.671629198670         0.17247407E-05      0.10616540E+00      0.38181182E-14      0.21233901E-06      0.76365314E-20      0.41990740E-08      0.18487623E-21
    0.677906107068         0.17837558E-05      0.11244167E+00     -0.48435436E-15      0.23043353E-06     -0.99261674E-21      0.43141757E-08      0.18438041E-21
    0.684183015467         0.18441971E-05      0.18420555E+00      0.10969378E-14      0.38671437E-06      0.23028708E-20      0.45073397E-08      0.18553070E-21
    0.690459923866         0.19060772E-05      0.31388981E+00      0.56507808E-14      0.67488810E-06      0.12149629E-19      0.48444467E-08      0.19159945E-21
    0.696736832265         0.19694076E-05      0.22311373E+00     -0.30900397E-14      0.49118566E-06     -0.68027334E-20      0.50897941E-08      0.18820148E-21
    0.703013740663         0.20341994E-05      0.10009869E+00      0.22668635E-14      0.22558523E-06      0.51086675E-20      0.52024741E-08      0.19075326E-21
    0.709290649062         0.21004628E-05      0.10557261E+00     -0.16067010E-14      0.24349753E-06     -0.37057691E-20      0.53241012E-08      0.18890223E-21
    0.715567557461         0.21682073E-05      0.12020988E+00      0.19067622E-15      0.28368924E-06      0.44998625E-21      0.54658041E-08      0.18912699E-21
    0.721844465860         0.22374415E-05      0.12434274E+00     -0.45228655E-14      0.30017950E-06     -0.10918784E-19      0.56157439E-08      0.18367306E-21
    0.728121374259         0.23081733E-05      0.11558299E+00     -0.15813397E-14      0.28537184E-06     -0.39042925E-20      0.57582873E-08      0.18172286E-21
    0.734398282657         0.23804097E-05      0.10957952E+00     -0.55466836E-14      0.27663173E-06     -0.14002513E-19      0.58964650E-08      0.17472860E-21
    0.740675191056         0.24541568E-05      0.11165620E+00     -0.32771335E-14      0.28814422E-06     -0.84570946E-20      0.60403932E-08      0.17050427E-21
    0.746952099455         0.25294198E-05      0.11506816E+00     -0.12244173E-14      0.30348405E-06     -0.32293131E-20      0.61919836E-08      0.16889123E-21
    0.753229007854         0.26062031E-05      0.12079574E+00     -0.57706461E-14      0.32552577E-06     -0.15550996E-19      0.63545839E-08      0.16112350E-21
    0.759505916252         0.26845099E-05      0.11579800E+00      0.34903627E-14      0.31877733E-06      0.96085300E-20      0.65138133E-08      0.16592297E-21
    0.765782824651         0.27643427E-05      0.11196402E+00     -0.63079221E-15      0.31478735E-06     -0.17734752E-20      0.66710498E-08      0.16503711E-21
