 
 # Omega; pulse ft; projected flux at t=    500.250000000000     
    0.000000000000         0.10341091E-10      0.00000000E+00      0.00000000E+00      0.48372022E-23      0.10852164E-33
    0.006276908399         0.40699280E-10      0.13778833E-14      0.28748893E-25      0.52187581E-23      0.10888696E-33
    0.012553816798         0.13187398E-09      0.91907016E-15      0.17737587E-25      0.56395676E-23      0.10884079E-33
    0.018830725196         0.28416575E-09      0.65156017E-15      0.12409490E-25      0.57434524E-23      0.10938869E-33
    0.025107633595         0.49807598E-09      0.50282128E-15      0.94238636E-26      0.58266276E-23      0.10920251E-33
    0.031384541994         0.77430759E-09      0.40852950E-15      0.75443476E-26      0.58875545E-23      0.10872595E-33
    0.037661450393         0.11137660E-08      0.34420158E-15      0.63475440E-26      0.59459819E-23      0.10965197E-33
    0.043938358791         0.15175606E-08      0.29727351E-15      0.53668667E-26      0.59975270E-23      0.10827715E-33
    0.050215267190         0.19870057E-08      0.26188741E-15      0.47132588E-26      0.60532940E-23      0.10894277E-33
    0.056492175589         0.25236231E-08      0.23385406E-15      0.41804857E-26      0.61023192E-23      0.10908794E-33
    0.062769083988         0.31291437E-08      0.21182691E-15      0.37573076E-26      0.61684300E-23      0.10941334E-33
    0.069045992387         0.38055096E-08      0.19364017E-15      0.33932832E-26      0.62342412E-23      0.10924668E-33
    0.075322900785         0.45548772E-08      0.17789375E-15      0.30631221E-26      0.62838256E-23      0.10820012E-33
    0.081599809184         0.53796196E-08      0.16460001E-15      0.28713068E-26      0.63387858E-23      0.11057471E-33
    0.087876717583         0.62823298E-08      0.15308754E-15      0.25898762E-26      0.63929391E-23      0.10815329E-33
    0.094153625982         0.72658239E-08      0.14311340E-15      0.24257560E-26      0.64512212E-23      0.10934747E-33
    0.100430534380         0.83331444E-08      0.13419723E-15      0.22399397E-26      0.65042989E-23      0.10856586E-33
    0.106707442779         0.94875639E-08      0.12636135E-15      0.20990342E-26      0.65627832E-23      0.10901677E-33
    0.112984351178         0.10732589E-07      0.11925450E-15      0.19387438E-26      0.66172078E-23      0.10757725E-33
    0.119261259577         0.12071965E-07      0.11292518E-15      0.18355718E-26      0.66770273E-23      0.10853349E-33
    0.125538167976         0.13509678E-07      0.10711645E-15      0.17456915E-26      0.67334740E-23      0.10973635E-33
    0.131815076374         0.15049961E-07      0.10189099E-15      0.16243488E-26      0.67954761E-23      0.10833365E-33
    0.138091984773         0.16697298E-07      0.97050905E-16      0.15533560E-26      0.68547421E-23      0.10971412E-33
    0.144368893172         0.18456429E-07      0.92667416E-16      0.14556023E-26      0.69201403E-23      0.10870026E-33
    0.150645801571         0.20332352E-07      0.88548519E-16      0.13939241E-26      0.69811295E-23      0.10989642E-33
    0.156922709970         0.22330332E-07      0.84803876E-16      0.13104532E-26      0.70491847E-23      0.10892930E-33
    0.163199618368         0.24455902E-07      0.81248417E-16      0.12365801E-26      0.71120246E-23      0.10824319E-33
    0.169476526767         0.26714868E-07      0.78006662E-16      0.11744928E-26      0.71827206E-23      0.10814530E-33
    0.175753435166         0.29113317E-07      0.74907813E-16      0.11122453E-26      0.72481769E-23      0.10762229E-33
    0.182030343565         0.31657619E-07      0.72075658E-16      0.10589370E-26      0.73221207E-23      0.10757674E-33
    0.188307251963         0.34354433E-07      0.69343910E-16      0.10100480E-26      0.73898883E-23      0.10763947E-33
    0.194584160362         0.37210710E-07      0.66842366E-16      0.96676704E-27      0.74666551E-23      0.10799313E-33
    0.200861068761         0.40233700E-07      0.64413391E-16      0.92435720E-27      0.75367511E-23      0.10815531E-33
    0.207137977160         0.43430955E-07      0.62185566E-16      0.87252300E-27      0.76162826E-23      0.10686373E-33
    0.213414885559         0.46810335E-07      0.60010960E-16      0.83353740E-27      0.76888505E-23      0.10679623E-33
    0.219691793957         0.50380010E-07      0.58011177E-16      0.81597468E-27      0.77708745E-23      0.10930371E-33
    0.225968702356         0.54148468E-07      0.56055935E-16      0.77800441E-27      0.78464513E-23      0.10890147E-33
    0.232245610755         0.58124513E-07      0.54254211E-16      0.74966143E-27      0.79315684E-23      0.10959501E-33
    0.238522519154         0.62317278E-07      0.52486189E-16      0.71982922E-27      0.80100999E-23      0.10985564E-33
    0.244799427552         0.66736218E-07      0.50849364E-16      0.68995924E-27      0.80974920E-23      0.10987235E-33
    0.251076335951         0.71391124E-07      0.49243199E-16      0.65532587E-27      0.81789678E-23      0.10884527E-33
    0.257353244350         0.76292116E-07      0.47750924E-16      0.63560876E-27      0.82688591E-23      0.11006613E-33
    0.263630152749         0.81449655E-07      0.46293646E-16      0.60515349E-27      0.83546711E-23      0.10921279E-33
    0.269907061148         0.86874540E-07      0.44928515E-16      0.57251891E-27      0.84472265E-23      0.10764204E-33
    0.276183969546         0.92577913E-07      0.43601447E-16      0.56017045E-27      0.85373606E-23      0.10968391E-33
    0.282460877945         0.98571259E-07      0.42350634E-16      0.54149632E-27      0.86330791E-23      0.11038278E-33
    0.288737786344         0.10486641E-06      0.41141779E-16      0.51237772E-27      0.87282997E-23      0.10870182E-33
    0.295014694743         0.11147554E-06      0.39994040E-16      0.49549306E-27      0.88276485E-23      0.10936726E-33
    0.301291603141         0.11841119E-06      0.38892562E-16      0.47653410E-27      0.89286554E-23      0.10939903E-33
    0.307568511540         0.12568621E-06      0.37835964E-16      0.45399997E-27      0.90315934E-23      0.10837158E-33
    0.313845419939         0.13331385E-06      0.36859419E-16      0.43403744E-27      0.91458013E-23      0.10769622E-33
    0.320122328338         0.14130766E-06      0.35874191E-16      0.42101286E-27      0.92500839E-23      0.10855727E-33
    0.326399236737         0.14968158E-06      0.34714398E-16      0.40978420E-27      0.92991372E-23      0.10977115E-33
    0.332676145135         0.15844985E-06      0.33808501E-16      0.38969973E-27      0.94061066E-23      0.10842117E-33
    0.338953053534         0.16762710E-06      0.33047162E-16      0.37560020E-27      0.95466865E-23      0.10850364E-33
    0.345229961933         0.17722828E-06      0.32223457E-16      0.36567701E-27      0.96629663E-23      0.10965691E-33
    0.351506870332         0.18726866E-06      0.31447341E-16      0.34996789E-27      0.97865366E-23      0.10891139E-33
    0.357783778731         0.19776389E-06      0.30678867E-16      0.33423897E-27      0.99055699E-23      0.10791883E-33
    0.364060687129         0.20872991E-06      0.29974321E-16      0.32324506E-27      0.10038621E-22      0.10825715E-33
    0.370337595528         0.22018301E-06      0.29292777E-16      0.31318670E-27      0.10173265E-22      0.10876849E-33
    0.376614503927         0.23213979E-06      0.28586539E-16      0.30120471E-27      0.10292667E-22      0.10844964E-33
    0.382891412326         0.24461718E-06      0.27910565E-16      0.28998282E-27      0.10415827E-22      0.10821748E-33
    0.389168320724         0.25763241E-06      0.27288462E-16      0.28038842E-27      0.10552513E-22      0.10842686E-33
    0.395445229123         0.27120301E-06      0.26677164E-16      0.27344093E-27      0.10687143E-22      0.10954322E-33
    0.401722137522         0.28534681E-06      0.26098815E-16      0.26058797E-27      0.10828838E-22      0.10812234E-33
    0.407999045921         0.30008192E-06      0.25531268E-16      0.25139458E-27      0.10968996E-22      0.10800663E-33
    0.414275954320         0.31542674E-06      0.24995829E-16      0.24519404E-27      0.11117065E-22      0.10905171E-33
    0.420552862718         0.33139993E-06      0.24468840E-16      0.23818237E-27      0.11263128E-22      0.10963652E-33
    0.426829771117         0.34802041E-06      0.23973902E-16      0.22355740E-27      0.11418329E-22      0.10647628E-33
    0.433106679516         0.36530735E-06      0.23482560E-16      0.22033851E-27      0.11569718E-22      0.10855947E-33
    0.439383587915         0.38328015E-06      0.23025123E-16      0.21370166E-27      0.11732438E-22      0.10889155E-33
    0.445660496313         0.40195843E-06      0.22559855E-16      0.20603810E-27      0.11885764E-22      0.10855213E-33
    0.451937404712         0.42136202E-06      0.22132260E-16      0.19969344E-27      0.12053597E-22      0.10875637E-33
    0.458214313111         0.44151098E-06      0.21615873E-16      0.19609944E-27      0.12166326E-22      0.11037304E-33
    0.464491221510         0.46242550E-06      0.21011624E-16      0.18851089E-27      0.12219057E-22      0.10962624E-33
    0.470768129909         0.48412598E-06      0.20850373E-16      0.18024763E-27      0.12525035E-22      0.10827662E-33
    0.477045038307         0.50663295E-06      0.20695496E-16      0.17766322E-27      0.12838778E-22      0.11021619E-33
    0.483321946706         0.52996708E-06      0.20304816E-16      0.17002066E-27      0.13005446E-22      0.10890000E-33
    0.489598855105         0.55414917E-06      0.19972799E-16      0.16348840E-27      0.13205019E-22      0.10809038E-33
    0.495875763504         0.57920011E-06      0.19629188E-16      0.15900635E-27      0.13392816E-22      0.10848858E-33
    0.502152671902         0.60514088E-06      0.19319888E-16      0.15564509E-27      0.13600006E-22      0.10956452E-33
    0.508429580301         0.63199252E-06      0.18976556E-16      0.14997784E-27      0.13778829E-22      0.10889853E-33
    0.514706488700         0.65977612E-06      0.18720438E-16      0.14397088E-27      0.14017377E-22      0.10780165E-33
    0.520983397099         0.68851279E-06      0.18733651E-16      0.14096248E-27      0.14461867E-22      0.10881919E-33
    0.527260305498         0.71822366E-06      0.18442754E-16      0.13624599E-27      0.14674868E-22      0.10841070E-33
    0.533537213896         0.74892983E-06      0.18096648E-16      0.13350651E-27      0.14838443E-22      0.10946938E-33
    0.539814122295         0.78065236E-06      0.17843095E-16      0.12881589E-27      0.15072921E-22      0.10881698E-33
    0.546091030694         0.81341227E-06      0.17608556E-16      0.12666130E-27      0.15320863E-22      0.11020553E-33
    0.552367939093         0.84723047E-06      0.17424774E-16      0.12241201E-27      0.15611839E-22      0.10967583E-33
    0.558644847491         0.88212778E-06      0.17197073E-16      0.11671017E-27      0.15862223E-22      0.10765104E-33
    0.564921755890         0.91812490E-06      0.17007170E-16      0.11404506E-27      0.16145791E-22      0.10826891E-33
    0.571198664289         0.95524236E-06      0.16813459E-16      0.11210034E-27      0.16424693E-22      0.10950832E-33
    0.577475572688         0.99350052E-06      0.16655493E-16      0.10779023E-27      0.16738085E-22      0.10832474E-33
    0.583752481087         0.10329195E-05      0.16471185E-16      0.10642492E-27      0.17024580E-22      0.11000056E-33
    0.590029389485         0.10735193E-05      0.16338362E-16      0.10379348E-27      0.17364350E-22      0.11031133E-33
    0.596306297884         0.11153196E-05      0.16172088E-16      0.10044918E-27      0.17668913E-22      0.10974636E-33
    0.602583206283         0.11583396E-05      0.16037185E-16      0.97423894E-28      0.18007807E-22      0.10939518E-33
    0.608860114682         0.12025986E-05      0.15896125E-16      0.97734866E-28      0.18340376E-22      0.11276297E-33
    0.615137023081         0.12481153E-05      0.15724678E-16      0.91406106E-28      0.18637103E-22      0.10833576E-33
    0.621413931479         0.12949080E-05      0.15665539E-16      0.89170468E-28      0.19068523E-22      0.10854074E-33
    0.627690839878         0.13429948E-05      0.15380023E-16      0.86795570E-28      0.19222033E-22      0.10847756E-33
    0.633967748277         0.13923932E-05      0.19674620E-16      0.84689748E-28      0.25241484E-22      0.10865241E-33
    0.640244656676         0.14431204E-05      0.21655904E-16      0.83738280E-28      0.28513250E-22      0.11025402E-33
    0.646521565074         0.14951931E-05      0.17583009E-16      0.79062619E-28      0.23753152E-22      0.10680689E-33
    0.652798473473         0.15486273E-05      0.16569613E-16      0.79197492E-28      0.22961167E-22      0.10974709E-33
    0.659075381872         0.16034389E-05      0.16482869E-16      0.75491775E-28      0.23424154E-22      0.10728296E-33
    0.665352290271         0.16596427E-05      0.16392786E-16      0.72411658E-28      0.23885236E-22      0.10550796E-33
    0.671629198670         0.17172535E-05      0.16834160E-16      0.73423825E-28      0.25142594E-22      0.10966187E-33
    0.677906107068         0.17762849E-05      0.17105769E-16      0.70338634E-28      0.26181799E-22      0.10765912E-33
    0.684183015467         0.18367504E-05      0.21470648E-16      0.69590879E-28      0.33669512E-22      0.10912996E-33
    0.690459923866         0.18986625E-05      0.31103533E-16      0.66879979E-28      0.49961196E-22      0.10742843E-33
    0.696736832265         0.19620330E-05      0.38551043E-16      0.64841941E-28      0.63414340E-22      0.10666142E-33
    0.703013740663         0.20268732E-05      0.33610672E-16      0.64969872E-28      0.56604867E-22      0.10941795E-33
    0.709290649062         0.20931935E-05      0.26220280E-16      0.62136563E-28      0.45199775E-22      0.10711398E-33
    0.715567557461         0.21610035E-05      0.27838119E-16      0.62008797E-28      0.49108709E-22      0.10938857E-33
    0.721844465860         0.22303120E-05      0.30078557E-16      0.58620753E-28      0.54286619E-22      0.10580037E-33
    0.728121374259         0.23011271E-05      0.31620566E-16      0.59351600E-28      0.58374109E-22      0.10956783E-33
    0.734398282657         0.23734559E-05      0.29346924E-16      0.55423766E-28      0.55402059E-22      0.10463075E-33
    0.740675191056         0.24473047E-05      0.29525358E-16      0.54789325E-28      0.56986137E-22      0.10574747E-33
    0.746952099455         0.25226788E-05      0.29006498E-16      0.54216465E-28      0.57224013E-22      0.10695823E-33
    0.753229007854         0.25995828E-05      0.30500354E-16      0.51225270E-28      0.61488698E-22      0.10327012E-33
    0.759505916252         0.26780200E-05      0.31050346E-16      0.54478203E-28      0.63953291E-22      0.11220681E-33
    0.765782824651         0.27579930E-05      0.27438887E-16      0.51483423E-28      0.57725517E-22      0.10831005E-33
    0.772059733050         0.28395032E-05      0.26764670E-16      0.51662959E-28      0.57499909E-22      0.11099018E-33
    0.778336641449         0.29225512E-05      0.28457286E-16      0.48475318E-28      0.62416862E-22      0.10632346E-33
    0.784613549848         0.30071363E-05      0.29567297E-16      0.48184811E-28      0.66194628E-22      0.10787512E-33
    0.790890458246         0.30932570E-05      0.29138755E-16      0.45577974E-28      0.66570906E-22      0.10412823E-33
    0.797167366645         0.31809104E-05      0.30267782E-16      0.45281489E-28      0.70549888E-22      0.10554470E-33
    0.803444275044         0.32700927E-05      0.29507644E-16      0.45648000E-28      0.70154033E-22      0.10852752E-33
    0.809721183443         0.33607990E-05      0.30723025E-16      0.42867253E-28      0.74487744E-22      0.10393133E-33
    0.815998091842         0.34530231E-05      0.29803473E-16      0.42897009E-28      0.73670060E-22      0.10603547E-33
    0.822275000240         0.35467578E-05      0.30942976E-16      0.40377021E-28      0.77963321E-22      0.10173316E-33
    0.828551908639         0.36419946E-05      0.30090000E-16      0.41038267E-28      0.77260153E-22      0.10537131E-33
    0.834828817038         0.37387238E-05      0.31055010E-16      0.39387415E-28      0.81240284E-22      0.10303796E-33
    0.841105725437         0.38369346E-05      0.30484400E-16      0.38577382E-28      0.81231648E-22      0.10279698E-33
    0.847382633835         0.39366149E-05      0.31231776E-16      0.37192404E-28      0.84752761E-22      0.10092794E-33
    0.853659542234         0.40377513E-05      0.31099252E-16      0.38541812E-28      0.85924816E-22      0.10648803E-33
    0.859936450633         0.41403294E-05      0.31620381E-16      0.38933287E-28      0.88930235E-22      0.10949730E-33
    0.866213359032         0.42443332E-05      0.32050712E-16      0.36812878E-28      0.91735213E-22      0.10536544E-33
    0.872490267431         0.43497456E-05      0.32388272E-16      0.37287041E-28      0.94320229E-22      0.10858629E-33
    0.878767175829         0.44565484E-05      0.33527615E-16      0.35843792E-28      0.99321042E-22      0.10618240E-33
    0.885044084228         0.45647219E-05      0.33767458E-16      0.35550622E-28      0.10173294E-21      0.10710517E-33
    0.891320992627         0.46742450E-05      0.35905206E-16      0.33766605E-28      0.10998882E-21      0.10343763E-33
    0.897597901026         0.47850957E-05      0.36127011E-16      0.33969738E-28      0.11250055E-21      0.10578274E-33
    0.903874809424         0.48972503E-05      0.40079117E-16      0.34449002E-28      0.12684576E-21      0.10902710E-33
    0.910151717823         0.50106841E-05      0.40202852E-16      0.32161193E-28      0.12928671E-21      0.10342587E-33
    0.916428626222         0.51253709E-05      0.49250024E-16      0.32171120E-28      0.16089661E-21      0.10510095E-33
    0.922705534621         0.52412834E-05      0.47315564E-16      0.29269643E-28      0.15699736E-21      0.97119343E-34
    0.928982443020         0.53583927E-05      0.95279561E-16      0.27415220E-28      0.32102628E-21      0.92370346E-34
    0.935259351418         0.54766690E-05      0.77839865E-16      0.24756886E-28      0.26625655E-21      0.84682613E-34
    0.941536259817         0.55960809E-05     -0.16819062E-16      0.32070188E-28     -0.58393229E-22      0.11134282E-33
    0.947813168216         0.57165958E-05      0.54854441E-17      0.31597552E-28      0.19325928E-22      0.11132225E-33
    0.954090076615         0.58381799E-05      0.25566002E-16      0.30224407E-28      0.91382853E-22      0.10803381E-33
    0.960366985013         0.59607981E-05      0.31061574E-16      0.30316174E-28      0.11261713E-21      0.10991460E-33
    0.966643893412         0.60844141E-05      0.39733809E-16      0.27597258E-28      0.14609194E-21      0.10146867E-33
    0.972920801811         0.62089900E-05      0.47123127E-16      0.27957028E-28      0.17566748E-21      0.10421933E-33
    0.979197710210         0.63344872E-05      0.56100982E-16      0.25358867E-28      0.21199487E-21      0.95826299E-34
    0.985474618609         0.64608656E-05      0.67507813E-16      0.25943046E-28      0.25853129E-21      0.99352783E-34
    0.991751527007         0.65880838E-05      0.86566558E-16      0.21732610E-28      0.33590788E-21      0.84329965E-34
    0.998028435406         0.67160994E-05      0.19119097E-16      0.26584856E-28      0.75154568E-22      0.10450145E-33
    1.004305343805         0.68448687E-05      0.24291302E-16      0.25370378E-28      0.96708345E-22      0.10100435E-33
    1.010582252204         0.69743470E-05      0.36661072E-15      0.12130206E-29      0.14779197E-20      0.48900565E-35
    1.016859160602         0.71044882E-05      0.81858175E-15     -0.14055768E-28      0.33407798E-20     -0.57364124E-34
