 
 # Omega; pulse ft; proj flux t=    500.250000000000     
    0.000000000000         0.23733438E-09      0.00000000E+00      0.00000000E+00      0.59067273E-07     -0.52007823E-18      0.29504133E-10     -0.25977934E-21
    0.006276908399         0.26847166E-09      0.15856426E+01     -0.15547748E-10      0.52821473E-07     -0.51793193E-18      0.55888485E-10     -0.51848659E-21
    0.012553816798         0.36198451E-09      0.20413847E+01     -0.23167877E-10      0.45844960E-07     -0.52029898E-18      0.78788065E-10     -0.77837619E-21
    0.018830725196         0.51817601E-09      0.20935015E+01     -0.24230458E-10      0.44867933E-07     -0.51930730E-18      0.10119962E-09     -0.10377704E-20
    0.025107633595         0.73755180E-09      0.19633198E+01     -0.22651888E-10      0.44919027E-07     -0.51825523E-18      0.12363670E-09     -0.12966392E-20
    0.031384541994         0.10208207E-08      0.17845929E+01     -0.20717656E-10      0.45209050E-07     -0.52483989E-18      0.14621864E-09     -0.15587970E-20
    0.037661450393         0.13688958E-08      0.16093382E+01     -0.18200379E-10      0.45558896E-07     -0.51523612E-18      0.16897533E-09     -0.18161577E-20
    0.043938358791         0.17828953E-08      0.14536200E+01     -0.16283711E-10      0.45939414E-07     -0.51462153E-18      0.19192209E-09     -0.20732114E-20
    0.050215267190         0.22641447E-08      0.13237661E+01     -0.14612402E-10      0.46487073E-07     -0.51314790E-18      0.21514241E-09     -0.23295290E-20
    0.056492175589         0.28141777E-08      0.12120861E+01     -0.13521633E-10      0.47027211E-07     -0.52462007E-18      0.23863252E-09     -0.25915770E-20
    0.062769083988         0.34347388E-08      0.11161740E+01     -0.12209930E-10      0.47569913E-07     -0.52037167E-18      0.26239372E-09     -0.28515029E-20
    0.069045992387         0.41277855E-08      0.10335535E+01     -0.11165720E-10      0.48124268E-07     -0.51989770E-18      0.28643181E-09     -0.31111921E-20
    0.075322900785         0.48954902E-08      0.96232774E+00     -0.10309374E-10      0.48712980E-07     -0.52185998E-18      0.31076397E-09     -0.33718614E-20
    0.081599809184         0.57402438E-08      0.90004725E+00     -0.94643324E-11      0.49312730E-07     -0.51854174E-18      0.33539570E-09     -0.36308733E-20
    0.087876717583         0.66646579E-08      0.84519269E+00     -0.88021083E-11      0.49924338E-07     -0.51992810E-18      0.36033294E-09     -0.38905776E-20
    0.094153625982         0.76715684E-08      0.79662648E+00     -0.82371548E-11      0.50553868E-07     -0.52272934E-18      0.38558462E-09     -0.41516812E-20
    0.100430534380         0.87640384E-08      0.75319632E+00     -0.76599519E-11      0.51191662E-07     -0.52061548E-18      0.41115488E-09     -0.44117289E-20
    0.106707442779         0.99453622E-08      0.71427565E+00     -0.72079135E-11      0.51849465E-07     -0.52322441E-18      0.43705371E-09     -0.46730797E-20
    0.112984351178         0.11219069E-07      0.67908586E+00     -0.67637802E-11      0.52518914E-07     -0.52309496E-18      0.46328694E-09     -0.49343659E-20
    0.119261259577         0.12588925E-07      0.64720209E+00     -0.64220275E-11      0.53208586E-07     -0.52797574E-18      0.48986465E-09     -0.51980901E-20
    0.125538167976         0.14058942E-07      0.61808942E+00     -0.59628724E-11      0.53911412E-07     -0.52009767E-18      0.51679343E-09     -0.54578791E-20
    0.131815076374         0.15633376E-07      0.59144891E+00     -0.56099727E-11      0.54633303E-07     -0.51820425E-18      0.54408279E-09     -0.57167224E-20
    0.138091984773         0.17316734E-07      0.56701485E+00     -0.52903397E-11      0.55378921E-07     -0.51669423E-18      0.57174459E-09     -0.59748114E-20
    0.144368893172         0.19113780E-07      0.54447260E+00     -0.50911990E-11      0.56143765E-07     -0.52498341E-18      0.59978843E-09     -0.62370409E-20
    0.150645801571         0.21029537E-07      0.52359506E+00     -0.47551723E-11      0.56927324E-07     -0.51700112E-18      0.62822365E-09     -0.64952832E-20
    0.156922709970         0.23069292E-07      0.50422167E+00     -0.45076823E-11      0.57732786E-07     -0.51612431E-18      0.65706121E-09     -0.67530876E-20
    0.163199618368         0.25238602E-07      0.48618233E+00     -0.43753899E-11      0.58559568E-07     -0.52700587E-18      0.68631174E-09     -0.70163273E-20
    0.169476526767         0.27543295E-07      0.46935231E+00     -0.40993927E-11      0.59409767E-07     -0.51889371E-18      0.71598695E-09     -0.72755149E-20
    0.175753435166         0.29989481E-07      0.45360856E+00     -0.39489919E-11      0.60283563E-07     -0.52481218E-18      0.74609862E-09     -0.75376589E-20
    0.182030343565         0.32583550E-07      0.43885394E+00     -0.37824694E-11      0.61182491E-07     -0.52733012E-18      0.77665931E-09     -0.78010605E-20
    0.188307251963         0.35332181E-07      0.42500152E+00     -0.36207711E-11      0.62107840E-07     -0.52912345E-18      0.80768220E-09     -0.80653580E-20
    0.194584160362         0.38242343E-07      0.41197289E+00     -0.34540277E-11      0.63060613E-07     -0.52870738E-18      0.83918101E-09     -0.83294476E-20
    0.200861068761         0.41321305E-07      0.39969727E+00     -0.33010675E-11      0.64041571E-07     -0.52891417E-18      0.87116981E-09     -0.85936404E-20
    0.207137977160         0.44576634E-07      0.38812406E+00     -0.32005823E-11      0.65053497E-07     -0.53644979E-18      0.90366406E-09     -0.88615974E-20
    0.213414885559         0.48016203E-07      0.37717337E+00     -0.29885494E-11      0.66093183E-07     -0.52369218E-18      0.93667764E-09     -0.91231819E-20
    0.219691793957         0.51648196E-07      0.36683386E+00     -0.27959253E-11      0.67168132E-07     -0.51194043E-18      0.97022816E-09     -0.93788964E-20
    0.225968702356         0.55481108E-07      0.35702030E+00     -0.26746680E-11      0.68271947E-07     -0.51146893E-18      0.10043300E-08     -0.96343754E-20
    0.232245610755         0.59523755E-07      0.34774068E+00     -0.25991943E-11      0.69414602E-07     -0.51884077E-18      0.10390027E-08     -0.98935366E-20
    0.238522519154         0.63785271E-07      0.33893473E+00     -0.24632163E-11      0.70592673E-07     -0.51303396E-18      0.10742637E-08     -0.10149797E-19
    0.244799427552         0.68275117E-07      0.33060290E+00     -0.23478464E-11      0.71814355E-07     -0.51000482E-18      0.11101350E-08     -0.10404545E-19
    0.251076335951         0.73003082E-07      0.32265581E+00     -0.23291136E-11      0.73068038E-07     -0.52744675E-18      0.11466326E-08     -0.10668005E-19
    0.257353244350         0.77979284E-07      0.31514364E+00     -0.21830914E-11      0.74372209E-07     -0.51519786E-18      0.11837815E-08     -0.10925346E-19
    0.263630152749         0.83214178E-07      0.30797156E+00     -0.21099726E-11      0.75712119E-07     -0.51871834E-18      0.12215998E-08     -0.11184447E-19
    0.269907061148         0.88718553E-07      0.30119967E+00     -0.20453765E-11      0.77109385E-07     -0.52363180E-18      0.12601159E-08     -0.11446001E-19
    0.276183969546         0.94503538E-07      0.29471034E+00     -0.19707409E-11      0.78541197E-07     -0.52520840E-18      0.12993473E-08     -0.11708343E-19
    0.282460877945         0.10058060E-06      0.28860242E+00     -0.18718543E-11      0.80040249E-07     -0.51913524E-18      0.13393274E-08     -0.11967651E-19
    0.288737786344         0.10696156E-06      0.28271004E+00     -0.17919159E-11      0.81567634E-07     -0.51700443E-18      0.13800705E-08     -0.12225895E-19
    0.295014694743         0.11365856E-06      0.27719493E+00     -0.17545947E-11      0.83175671E-07     -0.52648723E-18      0.14216168E-08     -0.12488876E-19
    0.301291603141         0.12068410E-06      0.27177661E+00     -0.16604174E-11      0.84786681E-07     -0.51800366E-18      0.14639678E-08     -0.12747619E-19
    0.307568511540         0.12805103E-06      0.26675856E+00     -0.16181309E-11      0.86499203E-07     -0.52469555E-18      0.15071742E-08     -0.13009704E-19
    0.313845419939         0.13577253E-06      0.26133695E+00     -0.15311204E-11      0.88054079E-07     -0.51589104E-18      0.15511572E-08     -0.13267392E-19
    0.320122328338         0.14386214E-06      0.25646126E+00     -0.14925036E-11      0.89764547E-07     -0.52239434E-18      0.15959947E-08     -0.13528329E-19
    0.326399236737         0.15233372E-06      0.25646904E+00     -0.14444491E-11      0.93225429E-07     -0.52505124E-18      0.16425608E-08     -0.13790592E-19
    0.332676145135         0.16120149E-06      0.25389286E+00     -0.13735644E-11      0.95818735E-07     -0.51838085E-18      0.16904223E-08     -0.14049523E-19
    0.338953053534         0.17048002E-06      0.24846657E+00     -0.13433055E-11      0.97331728E-07     -0.52621260E-18      0.17390396E-08     -0.14312367E-19
    0.345229961933         0.18018417E-06      0.24484684E+00     -0.12692059E-11      0.99530278E-07     -0.51593240E-18      0.17887550E-08     -0.14570075E-19
    0.351506870332         0.19032920E-06      0.24153712E+00     -0.12207016E-11      0.10186102E-06     -0.51479420E-18      0.18396346E-08     -0.14827215E-19
    0.357783778731         0.20093064E-06      0.23868964E+00     -0.12086010E-11      0.10440268E-06     -0.52864120E-18      0.18917838E-08     -0.15091272E-19
    0.364060687129         0.21200438E-06      0.23606943E+00     -0.11357520E-11      0.10706890E-06     -0.51511845E-18      0.19452648E-08     -0.15348574E-19
    0.370337595528         0.22356662E-06      0.23388202E+00     -0.11190312E-11      0.10996603E-06     -0.52614312E-18      0.20001929E-08     -0.15611383E-19
    0.376614503927         0.23563389E-06      0.23154525E+00     -0.10601501E-11      0.11283118E-06     -0.51660738E-18      0.20565521E-08     -0.15869428E-19
    0.382891412326         0.24822301E-06      0.22970707E+00     -0.10579193E-11      0.11598273E-06     -0.53416015E-18      0.21144855E-08     -0.16136241E-19
    0.389168320724         0.26135112E-06      0.22807294E+00     -0.99091106E-12      0.11929251E-06     -0.51829152E-18      0.21740722E-08     -0.16395128E-19
    0.395445229123         0.27503566E-06      0.22692521E+00     -0.96847368E-12      0.12292436E-06     -0.52461780E-18      0.22354730E-08     -0.16657175E-19
    0.401722137522         0.28929433E-06      0.22583190E+00     -0.93183874E-12      0.12666365E-06     -0.52264580E-18      0.22987415E-08     -0.16918237E-19
    0.407999045921         0.30414516E-06      0.22539515E+00     -0.89976047E-12      0.13086360E-06     -0.52239764E-18      0.23641080E-08     -0.17179175E-19
    0.414275954320         0.31960641E-06      0.22494213E+00     -0.87151559E-12      0.13516028E-06     -0.52366488E-18      0.24316206E-08     -0.17440746E-19
    0.420552862718         0.33569662E-06      0.22547581E+00     -0.83474169E-12      0.14017768E-06     -0.51895657E-18      0.25016394E-08     -0.17699965E-19
    0.426829771117         0.35243458E-06      0.22574884E+00     -0.81916369E-12      0.14517836E-06     -0.52680155E-18      0.25741561E-08     -0.17963102E-19
    0.433106679516         0.36983933E-06      0.22783820E+00     -0.77834242E-12      0.15152954E-06     -0.51765624E-18      0.26498452E-08     -0.18221672E-19
    0.439383587915         0.38793013E-06      0.22905804E+00     -0.76679176E-12      0.15750987E-06     -0.52727801E-18      0.27285214E-08     -0.18485048E-19
    0.445660496313         0.40672647E-06      0.23491123E+00     -0.73969009E-12      0.16697621E-06     -0.52577585E-18      0.28119261E-08     -0.18747673E-19
    0.451937404712         0.42624802E-06      0.23809984E+00     -0.70868268E-12      0.17490238E-06     -0.52058116E-18      0.28992900E-08     -0.19007703E-19
    0.458214313111         0.44651466E-06      0.26951566E+00     -0.68103871E-12      0.20455195E-06     -0.51688200E-18      0.30014638E-08     -0.19265886E-19
    0.464491221510         0.46754647E-06      0.38826686E+00     -0.67458260E-12      0.30438982E-06     -0.52885296E-18      0.31535066E-08     -0.19530049E-19
    0.470768129909         0.48936365E-06      0.33712565E+00     -0.64932678E-12      0.27294113E-06     -0.52570306E-18      0.32898409E-08     -0.19792638E-19
    0.477045038307         0.51198657E-06      0.24073712E+00     -0.62491253E-12      0.20123095E-06     -0.52236125E-18      0.33903558E-08     -0.20053557E-19
    0.483321946706         0.53543573E-06      0.25000198E+00     -0.61166551E-12      0.21570828E-06     -0.52776108E-18      0.34981022E-08     -0.20317174E-19
    0.489598855105         0.55973174E-06      0.26061176E+00     -0.58607004E-12      0.23205242E-06     -0.52184509E-18      0.36140125E-08     -0.20577836E-19
    0.495875763504         0.58489532E-06      0.27281841E+00     -0.57421962E-12      0.25062909E-06     -0.52751624E-18      0.37392019E-08     -0.20841331E-19
    0.502152671902         0.61094726E-06      0.30919784E+00     -0.55747462E-12      0.29299279E-06     -0.52825739E-18      0.38855519E-08     -0.21105196E-19
    0.508429580301         0.63790841E-06      0.38133749E+00     -0.53170218E-12      0.37264008E-06     -0.51957530E-18      0.40716858E-08     -0.21364724E-19
    0.514706488700         0.66579967E-06      0.89915041E+00     -0.52380986E-12      0.90587613E-06     -0.52772800E-18      0.45241714E-08     -0.21628324E-19
    0.520983397099         0.69464194E-06      0.16851342E+01     -0.56790522E-12      0.17499440E-05     -0.58974669E-18      0.53982693E-08     -0.21922903E-19
    0.527260305498         0.72445614E-06      0.15196512E+01     -0.51181526E-12      0.16262356E-05     -0.54771268E-18      0.62105748E-08     -0.22196486E-19
    0.533537213896         0.75526319E-06      0.15105880E+01     -0.45976188E-12      0.16654522E-05     -0.50689628E-18      0.70424690E-08     -0.22449680E-19
    0.539814122295         0.78708392E-06      0.19215674E+01     -0.52500871E-12      0.21821518E-05     -0.59620532E-18      0.81324549E-08     -0.22747485E-19
    0.546091030694         0.81993914E-06      0.23649567E+01     -0.47271011E-12      0.27656188E-05     -0.55279488E-18      0.95138829E-08     -0.23023607E-19
    0.552367939093         0.85384956E-06      0.26078918E+01     -0.55457316E-12      0.31397496E-05     -0.66767372E-18      0.11082189E-07     -0.23357110E-19
    0.558644847491         0.88883579E-06      0.28163711E+01     -0.50291235E-12      0.34900220E-05     -0.62320449E-18      0.12825457E-07     -0.23668401E-19
    0.564921755890         0.92491828E-06      0.29871230E+01     -0.60247633E-12      0.38090854E-05     -0.76825888E-18      0.14728097E-07     -0.24052147E-19
    0.571198664289         0.96211735E-06      0.31818493E+01     -0.53283462E-12      0.41741977E-05     -0.69901394E-18      0.16813111E-07     -0.24401304E-19
    0.577475572688         0.10004531E-05      0.35150759E+01     -0.66447017E-12      0.47429701E-05     -0.89658437E-18      0.19182227E-07     -0.24849149E-19
    0.583752481087         0.10399456E-05      0.38642262E+01     -0.38276606E-12      0.53616315E-05     -0.53108966E-18      0.21860365E-07     -0.25114428E-19
    0.590029389485         0.10806144E-05      0.44889502E+01     -0.28102262E-12      0.64031612E-05     -0.40085834E-18      0.25058747E-07     -0.25314657E-19
    0.596306297884         0.11224790E-05      0.49617426E+01     -0.43793348E-12      0.72743734E-05     -0.64205097E-18      0.28692300E-07     -0.25635362E-19
    0.602583206283         0.11655585E-05      0.60620567E+01     -0.34016221E-12      0.91324983E-05     -0.51245493E-18      0.33253987E-07     -0.25891334E-19
    0.608860114682         0.12098719E-05      0.68712396E+01     -0.56973988E-12      0.10634315E-04     -0.88176130E-18      0.38565833E-07     -0.26331774E-19
    0.615137023081         0.12554376E-05      0.97278503E+01     -0.45187711E-12      0.15462962E-04     -0.71828394E-18      0.46289590E-07     -0.26690557E-19
    0.621413931479         0.13022739E-05      0.12594090E+02     -0.93359301E-12      0.20556098E-04     -0.15238123E-17      0.56557371E-07     -0.27451702E-19
    0.627690839878         0.13503983E-05      0.33642609E+02     -0.12617585E-11      0.56371335E-04     -0.21141942E-17      0.84714881E-07     -0.28507743E-19
    0.633967748277         0.13998285E-05      0.57642254E+02     -0.40171433E-11      0.99129099E-04     -0.69084007E-17      0.13422992E-06     -0.31958493E-19
    0.640244656676         0.14505812E-05      0.38712765E+02     -0.19795677E-11      0.68312913E-04     -0.34931639E-17      0.16835225E-06     -0.33703330E-19
    0.646521565074         0.15026729E-05      0.11400577E+02     -0.55962553E-12      0.20637677E-04     -0.10130514E-17      0.17866078E-06     -0.34209349E-19
    0.652798473473         0.15561195E-05      0.45299297E+01     -0.54633556E-12      0.84102289E-05     -0.10143220E-17      0.18286169E-06     -0.34716004E-19
    0.659075381872         0.16109365E-05      0.40812396E+01     -0.42781274E-12      0.77694088E-05     -0.81442218E-18      0.18674252E-06     -0.35122808E-19
    0.665352290271         0.16671388E-05      0.43018748E+01     -0.58464905E-12      0.83951879E-05     -0.11409534E-17      0.19093592E-06     -0.35692715E-19
    0.671629198670         0.17247407E-05      0.49524932E+01     -0.23588956E-12      0.99053692E-05     -0.47179735E-18      0.19588365E-06     -0.35928378E-19
    0.677906107068         0.17837558E-05      0.52452581E+01     -0.42199535E-12      0.10749425E-04     -0.86482064E-18      0.20125300E-06     -0.36360356E-19
    0.684183015467         0.18441971E-05      0.85928880E+01     -0.34295065E-12      0.18039593E-04     -0.71997801E-18      0.21026378E-06     -0.36719986E-19
    0.690459923866         0.19060772E-05      0.14642438E+02     -0.12054999E-12      0.31482407E-04     -0.25919208E-18      0.22598926E-06     -0.36849452E-19
    0.696736832265         0.19694076E-05      0.10407913E+02     -0.52210850E-12      0.22913058E-04     -0.11494237E-17      0.23743435E-06     -0.37423590E-19
    0.703013740663         0.20341994E-05      0.46694810E+01     -0.26215748E-12      0.10523274E-04     -0.59080548E-18      0.24269073E-06     -0.37718697E-19
    0.709290649062         0.21004628E-05      0.49248231E+01     -0.43335020E-12      0.11358839E-04     -0.99949888E-18      0.24836447E-06     -0.38217948E-19
    0.715567557461         0.21682073E-05      0.56076384E+01     -0.34348639E-12      0.13233743E-04     -0.81061053E-18      0.25497473E-06     -0.38622848E-19
    0.721844465860         0.22374415E-05      0.58004418E+01     -0.54805069E-12      0.14003019E-04     -0.13230655E-17      0.26196925E-06     -0.39283720E-19
    0.728121374259         0.23081733E-05      0.53918247E+01     -0.40619524E-12      0.13312295E-04     -0.10028870E-17      0.26861875E-06     -0.39784662E-19
    0.734398282657         0.23804097E-05      0.51117831E+01     -0.58583045E-12      0.12904614E-04     -0.14789195E-17      0.27506461E-06     -0.40523384E-19
    0.740675191056         0.24541568E-05      0.52086657E+01     -0.47789736E-12      0.13441680E-04     -0.12332800E-17      0.28177873E-06     -0.41139407E-19
    0.746952099455         0.25294198E-05      0.53678376E+01     -0.36933242E-12      0.14157288E-04     -0.97408789E-18      0.28885031E-06     -0.41625965E-19
    0.753229007854         0.26062031E-05      0.56350345E+01     -0.57897015E-12      0.15185543E-04     -0.15602347E-17      0.29643549E-06     -0.42405303E-19
    0.759505916252         0.26845099E-05      0.54018975E+01     -0.13692222E-12      0.14870745E-04     -0.37692966E-18      0.30386344E-06     -0.42593579E-19
    0.765782824651         0.27643427E-05      0.52230335E+01     -0.32206179E-12      0.14684583E-04     -0.90547822E-18      0.31119839E-06     -0.43045866E-19
