 
 # Omega; pulse ft; proj flux t=    500.250000000000     
    0.000000000000         0.23733438E-09      0.00000000E+00      0.00000000E+00      0.57598586E-10     -0.95340837E-20      0.28770523E-13     -0.47622796E-23
    0.006276908399         0.26847166E-09      0.18722326E-02     -0.28618971E-12      0.62368458E-10     -0.95336504E-20      0.59923599E-13     -0.95243427E-23
    0.012553816798         0.36198451E-09      0.29087346E-02     -0.42506659E-12      0.65323709E-10     -0.95460500E-20      0.92552824E-13     -0.14292599E-22
    0.018830725196         0.51817601E-09      0.30683960E-02     -0.44460774E-12      0.65761878E-10     -0.95288351E-20      0.12540091E-12     -0.19052257E-22
    0.025107633595         0.73755180E-09      0.29211605E-02     -0.41656915E-12      0.66833577E-10     -0.95307348E-20      0.15878432E-12     -0.23812864E-22
    0.031384541994         0.10208207E-08      0.26680624E-02     -0.37656982E-12      0.67589962E-10     -0.95396345E-20      0.19254554E-12     -0.28577916E-22
    0.037661450393         0.13688958E-08      0.24101663E-02     -0.33677762E-12      0.68229611E-10     -0.95338673E-20      0.22662626E-12     -0.33340088E-22
    0.043938358791         0.17828953E-08      0.21781716E-02     -0.30173991E-12      0.68837746E-10     -0.95360235E-20      0.26101075E-12     -0.38103336E-22
    0.050215267190         0.22641447E-08      0.19765806E-02     -0.27159096E-12      0.69412145E-10     -0.95375373E-20      0.29568215E-12     -0.42867341E-22
    0.056492175589         0.28141777E-08      0.18028538E-02     -0.24592621E-12      0.69948155E-10     -0.95415861E-20      0.33062129E-12     -0.47633368E-22
    0.062769083988         0.34347388E-08      0.16576250E-02     -0.22366272E-12      0.70645868E-10     -0.95322202E-20      0.36590894E-12     -0.52394717E-22
    0.069045992387         0.41277855E-08      0.15320173E-02     -0.20462774E-12      0.71333716E-10     -0.95278670E-20      0.40154017E-12     -0.57153891E-22
    0.075322900785         0.48954902E-08      0.14208920E-02     -0.18844233E-12      0.71925476E-10     -0.95389410E-20      0.43746698E-12     -0.61918597E-22
    0.081599809184         0.57402438E-08      0.13244153E-02     -0.17400291E-12      0.72563451E-10     -0.95334533E-20      0.47371246E-12     -0.66680561E-22
    0.087876717583         0.66646579E-08      0.12388273E-02     -0.16150656E-12      0.73175777E-10     -0.95399645E-20      0.51026379E-12     -0.71445778E-22
    0.094153625982         0.76715684E-08      0.11636712E-02     -0.15028963E-12      0.73846503E-10     -0.95373707E-20      0.54715016E-12     -0.76209700E-22
    0.100430534380         0.87640384E-08      0.10953179E-02     -0.14034955E-12      0.74444263E-10     -0.95389830E-20      0.58433511E-12     -0.80974427E-22
    0.106707442779         0.99453622E-08      0.10348289E-02     -0.13129482E-12      0.75118515E-10     -0.95307266E-20      0.62185684E-12     -0.85735029E-22
    0.112984351178         0.11219069E-07      0.97904571E-03     -0.12347585E-12      0.75717108E-10     -0.95493341E-20      0.65967757E-12     -0.90504926E-22
    0.119261259577         0.12588925E-07      0.92918438E-03     -0.11611029E-12      0.76391265E-10     -0.95458040E-20      0.69783505E-12     -0.95273060E-22
    0.125538167976         0.14058942E-07      0.88299350E-03     -0.10944271E-12      0.77017053E-10     -0.95458856E-20      0.73630511E-12     -0.10004123E-21
    0.131815076374         0.15633376E-07      0.84131259E-03     -0.10331586E-12      0.77713704E-10     -0.95434897E-20      0.77512314E-12     -0.10480821E-21
    0.138091984773         0.17316734E-07      0.80256531E-03     -0.97591837E-13      0.78384545E-10     -0.95315505E-20      0.81427626E-12     -0.10956923E-21
    0.144368893172         0.19113780E-07      0.76742028E-03     -0.92449089E-13      0.79133209E-10     -0.95329682E-20      0.85380334E-12     -0.11433095E-21
    0.150645801571         0.21029537E-07      0.73408059E-03     -0.87731270E-13      0.79812142E-10     -0.95384903E-20      0.89366954E-12     -0.11909543E-21
    0.156922709970         0.23069292E-07      0.70375494E-03     -0.83349640E-13      0.80579110E-10     -0.95434356E-20      0.93391885E-12     -0.12386238E-21
    0.163199618368         0.25238602E-07      0.67483852E-03     -0.79234520E-13      0.81282782E-10     -0.95436197E-20      0.97451964E-12     -0.12862942E-21
    0.169476526767         0.27543295E-07      0.64845530E-03     -0.75328337E-13      0.82080299E-10     -0.95349247E-20      0.10155188E-11     -0.13339212E-21
    0.175753435166         0.29989481E-07      0.62318615E-03     -0.71766336E-13      0.82820046E-10     -0.95375855E-20      0.10568874E-11     -0.13815615E-21
    0.182030343565         0.32583550E-07      0.60006028E-03     -0.68484439E-13      0.83656952E-10     -0.95477064E-20      0.10986741E-11     -0.14292524E-21
    0.188307251963         0.35332181E-07      0.57771335E-03     -0.65322786E-13      0.84424469E-10     -0.95459825E-20      0.11408442E-11     -0.14769346E-21
    0.194584160362         0.38242343E-07      0.55724398E-03     -0.62390469E-13      0.85297232E-10     -0.95500974E-20      0.11834502E-11     -0.15246374E-21
    0.200861068761         0.41321305E-07      0.53729443E-03     -0.59634580E-13      0.86088104E-10     -0.95549620E-20      0.12264513E-11     -0.15723645E-21
    0.207137977160         0.44576634E-07      0.51898754E-03     -0.57039344E-13      0.86987532E-10     -0.95603677E-20      0.12699016E-11     -0.16201185E-21
    0.213414885559         0.48016203E-07      0.50110009E-03     -0.54622546E-13      0.87809222E-10     -0.95716671E-20      0.13137623E-11     -0.16679291E-21
    0.219691793957         0.51648196E-07      0.48463847E-03     -0.51994643E-13      0.88738430E-10     -0.95203399E-20      0.13580872E-11     -0.17154832E-21
    0.225968702356         0.55481108E-07      0.46851348E-03     -0.49825604E-13      0.89592461E-10     -0.95280043E-20      0.14028387E-11     -0.17630756E-21
    0.232245610755         0.59523755E-07      0.45361933E-03     -0.47724593E-13      0.90549674E-10     -0.95265923E-20      0.14480683E-11     -0.18106610E-21
    0.238522519154         0.63785271E-07      0.43905522E-03     -0.45754350E-13      0.91445578E-10     -0.95296280E-20      0.14937454E-11     -0.18582616E-21
    0.244799427552         0.68275117E-07      0.42556511E-03     -0.43888322E-13      0.92442273E-10     -0.95335264E-20      0.15399204E-11     -0.19058816E-21
    0.251076335951         0.73003082E-07      0.41220595E-03     -0.42186296E-13      0.93347396E-10     -0.95534304E-20      0.15865474E-11     -0.19536010E-21
    0.257353244350         0.77979284E-07      0.39979218E-03     -0.40384551E-13      0.94348810E-10     -0.95305375E-20      0.16336747E-11     -0.20012061E-21
    0.263630152749         0.83214178E-07      0.38769591E-03     -0.38771092E-13      0.95311654E-10     -0.95315343E-20      0.16812829E-11     -0.20488161E-21
    0.269907061148         0.88718553E-07      0.37630911E-03     -0.37189854E-13      0.96337967E-10     -0.95208828E-20      0.17294038E-11     -0.20963730E-21
    0.276183969546         0.94503538E-07      0.36535185E-03     -0.35778793E-13      0.97367371E-10     -0.95351565E-20      0.17780389E-11     -0.21440012E-21
    0.282460877945         0.10058060E-06      0.35493265E-03     -0.34380112E-13      0.98436105E-10     -0.95348915E-20      0.18272077E-11     -0.21916280E-21
    0.288737786344         0.10696156E-06      0.34504882E-03     -0.33080112E-13      0.99553647E-10     -0.95442894E-20      0.18769348E-11     -0.22393018E-21
    0.295014694743         0.11365856E-06      0.33560341E-03     -0.31840701E-13      0.10070184E-09     -0.95541849E-20      0.19272355E-11     -0.22870250E-21
    0.301291603141         0.12068410E-06      0.32648822E-03     -0.30576243E-13      0.10185517E-09     -0.95389305E-20      0.19781122E-11     -0.23346720E-21
    0.307568511540         0.12805103E-06      0.31776211E-03     -0.29406222E-13      0.10303763E-09     -0.95352696E-20      0.20295795E-11     -0.23823007E-21
    0.313845419939         0.13577253E-06      0.30961313E-03     -0.28297810E-13      0.10432011E-09     -0.95345781E-20      0.20816875E-11     -0.24299260E-21
    0.320122328338         0.14386214E-06      0.30149738E-03     -0.27227065E-13      0.10552773E-09     -0.95298024E-20      0.21343986E-11     -0.24775274E-21
    0.326399236737         0.15233372E-06      0.29176485E-03     -0.26252227E-13      0.10605531E-09     -0.95425753E-20      0.21873733E-11     -0.25251926E-21
    0.332676145135         0.16120149E-06      0.28400772E-03     -0.25285653E-13      0.10718403E-09     -0.95427627E-20      0.22409118E-11     -0.25728587E-21
    0.338953053534         0.17048002E-06      0.27770586E-03     -0.24354536E-13      0.10878562E-09     -0.95403942E-20      0.22952502E-11     -0.26205130E-21
    0.345229961933         0.18018417E-06      0.27084277E-03     -0.23453548E-13      0.11009763E-09     -0.95338705E-20      0.23502441E-11     -0.26681348E-21
    0.351506870332         0.19032920E-06      0.26441017E-03     -0.22629455E-13      0.11150704E-09     -0.95432926E-20      0.24059419E-11     -0.27158036E-21
    0.357783778731         0.20093064E-06      0.25801487E-03     -0.21744480E-13      0.11285551E-09     -0.95110196E-20      0.24623133E-11     -0.27633112E-21
    0.364060687129         0.21200438E-06      0.25217002E-03     -0.21016324E-13      0.11437129E-09     -0.95319189E-20      0.25194418E-11     -0.28109231E-21
    0.370337595528         0.22356662E-06      0.24650104E-03     -0.20300023E-13      0.11589920E-09     -0.95446109E-20      0.25773335E-11     -0.28585985E-21
    0.376614503927         0.23563389E-06      0.24060222E-03     -0.19565185E-13      0.11724461E-09     -0.95340450E-20      0.26358972E-11     -0.29062211E-21
    0.382891412326         0.24822301E-06      0.23495306E-03     -0.18937788E-13      0.11863151E-09     -0.95619882E-20      0.26951537E-11     -0.29539833E-21
    0.389168320724         0.26135112E-06      0.22977135E-03     -0.18276349E-13      0.12018086E-09     -0.95593612E-20      0.27551841E-11     -0.30017324E-21
    0.395445229123         0.27503566E-06      0.22467336E-03     -0.17617187E-13      0.12170454E-09     -0.95431504E-20      0.28159756E-11     -0.30494004E-21
    0.401722137522         0.28929433E-06      0.21983751E-03     -0.16976293E-13      0.12330154E-09     -0.95215920E-20      0.28775648E-11     -0.30969608E-21
    0.407999045921         0.30414516E-06      0.21509628E-03     -0.16451928E-13      0.12488411E-09     -0.95519295E-20      0.29399445E-11     -0.31446728E-21
    0.414275954320         0.31960641E-06      0.21060609E-03     -0.15894392E-13      0.12654623E-09     -0.95504141E-20      0.30031544E-11     -0.31923771E-21
    0.420552862718         0.33569662E-06      0.20618809E-03     -0.15348557E-13      0.12818656E-09     -0.95421552E-20      0.30671836E-11     -0.32400403E-21
    0.426829771117         0.35243458E-06      0.20204085E-03     -0.14856858E-13      0.12993183E-09     -0.95543981E-20      0.31320846E-11     -0.32877645E-21
    0.433106679516         0.36983933E-06      0.19790961E-03     -0.14319241E-13      0.13162477E-09     -0.95233724E-20      0.31978313E-11     -0.33353338E-21
    0.439383587915         0.38793013E-06      0.19407674E-03     -0.13865483E-13      0.13345526E-09     -0.95344844E-20      0.32644922E-11     -0.33829586E-21
    0.445660496313         0.40672647E-06      0.19015480E-03     -0.13397767E-13      0.13516309E-09     -0.95232076E-20      0.33320063E-11     -0.34305271E-21
    0.451937404712         0.42624802E-06      0.18656968E-03     -0.12981795E-13      0.13704958E-09     -0.95361129E-20      0.34004626E-11     -0.34781600E-21
    0.458214313111         0.44651466E-06      0.18211638E-03     -0.12568113E-13      0.13821928E-09     -0.95387108E-20      0.34695032E-11     -0.35258059E-21
    0.464491221510         0.46754647E-06      0.17671098E-03     -0.12160279E-13      0.13853623E-09     -0.95333018E-20      0.35387021E-11     -0.35734248E-21
    0.470768129909         0.48936365E-06      0.17561959E-03     -0.11791968E-13      0.14218381E-09     -0.95469244E-20      0.36097230E-11     -0.36211117E-21
    0.477045038307         0.51198657E-06      0.17463607E-03     -0.11412387E-13      0.14597742E-09     -0.95395573E-20      0.36826388E-11     -0.36687619E-21
    0.483321946706         0.53543573E-06      0.17134153E-03     -0.11063401E-13      0.14783798E-09     -0.95457935E-20      0.37564839E-11     -0.37164432E-21
    0.489598855105         0.55973174E-06      0.16855788E-03     -0.10716005E-13      0.15008633E-09     -0.95416835E-20      0.38314521E-11     -0.37641039E-21
    0.495875763504         0.58489532E-06      0.16569844E-03     -0.10380289E-13      0.15222158E-09     -0.95360224E-20      0.39074869E-11     -0.38117364E-21
    0.502152671902         0.61094726E-06      0.16304546E-03     -0.10071454E-13      0.15450025E-09     -0.95436092E-20      0.39846598E-11     -0.38594068E-21
    0.508429580301         0.63790841E-06      0.16023640E-03     -0.97601735E-14      0.15658178E-09     -0.95375669E-20      0.40628725E-11     -0.39070470E-21
    0.514706488700         0.66579967E-06      0.15751356E-03     -0.94831820E-14      0.15869177E-09     -0.95541170E-20      0.41421391E-11     -0.39547698E-21
    0.520983397099         0.69464194E-06      0.15739633E-03     -0.91927907E-14      0.16344974E-09     -0.95463428E-20      0.42237824E-11     -0.40024539E-21
    0.527260305498         0.72445614E-06      0.15570021E-03     -0.89095040E-14      0.16662062E-09     -0.95343939E-20      0.43070095E-11     -0.40500782E-21
    0.533537213896         0.75526319E-06      0.15300335E-03     -0.86305818E-14      0.16868912E-09     -0.95153817E-20      0.43912698E-11     -0.40976076E-21
    0.539814122295         0.78708392E-06      0.15083232E-03     -0.84003734E-14      0.17128674E-09     -0.95395509E-20      0.44768276E-11     -0.41452577E-21
    0.546091030694         0.81993914E-06      0.14875584E-03     -0.81598369E-14      0.17395749E-09     -0.95422457E-20      0.45637194E-11     -0.41929213E-21
    0.552367939093         0.85384956E-06      0.14743571E-03     -0.79142647E-14      0.17750399E-09     -0.95283129E-20      0.46523828E-11     -0.42405152E-21
    0.558644847491         0.88883579E-06      0.14543924E-03     -0.77029070E-14      0.18022701E-09     -0.95453735E-20      0.47424062E-11     -0.42881944E-21
    0.564921755890         0.92491828E-06      0.14401309E-03     -0.74829729E-14      0.18364097E-09     -0.95420518E-20      0.48341350E-11     -0.43358570E-21
    0.571198664289         0.96211735E-06      0.14230249E-03     -0.72736908E-14      0.18668349E-09     -0.95421940E-20      0.49273835E-11     -0.43835203E-21
    0.577475572688         0.10004531E-05      0.14120201E-03     -0.70697924E-14      0.19052701E-09     -0.95394281E-20      0.50225518E-11     -0.44311698E-21
    0.583752481087         0.10399456E-05      0.13959436E-03     -0.68631220E-14      0.19368781E-09     -0.95226131E-20      0.51192990E-11     -0.44787353E-21
    0.590029389485         0.10806144E-05      0.13877327E-03     -0.66778060E-14      0.19794998E-09     -0.95254048E-20      0.52181751E-11     -0.45263148E-21
    0.596306297884         0.11224790E-05      0.13737361E-03     -0.64982353E-14      0.20140242E-09     -0.95270139E-20      0.53187757E-11     -0.45739022E-21
    0.602583206283         0.11655585E-05      0.13673233E-03     -0.63350851E-14      0.20598748E-09     -0.95438160E-20      0.54216666E-11     -0.46215736E-21
    0.608860114682         0.12098719E-05      0.13564641E-03     -0.61465337E-14      0.20993396E-09     -0.95127192E-20      0.55265287E-11     -0.46690897E-21
    0.615137023081         0.12554376E-05      0.13549168E-03     -0.59969948E-14      0.21537160E-09     -0.95325586E-20      0.56341069E-11     -0.47167049E-21
    0.621413931479         0.13022739E-05      0.13557248E-03     -0.58345652E-14      0.22128165E-09     -0.95231882E-20      0.57446372E-11     -0.47642733E-21
    0.627690839878         0.13503983E-05      0.14195275E-03     -0.56964615E-14      0.23785510E-09     -0.95449534E-20      0.58634459E-11     -0.48119504E-21
    0.633967748277         0.13998285E-05      0.18984898E-03     -0.55613716E-14      0.32648894E-09     -0.95640561E-20      0.60265273E-11     -0.48597229E-21
    0.640244656676         0.14505812E-05      0.19397141E-03     -0.53996759E-14      0.34228379E-09     -0.95283193E-20      0.61974982E-11     -0.49073169E-21
    0.646521565074         0.15026729E-05      0.14806173E-03     -0.52814501E-14      0.26802592E-09     -0.95606440E-20      0.63313773E-11     -0.49550723E-21
    0.652798473473         0.15561195E-05      0.13882431E-03     -0.51320597E-14      0.25774004E-09     -0.95281384E-20      0.64601186E-11     -0.50026654E-21
    0.659075381872         0.16109365E-05      0.13745438E-03     -0.50198871E-14      0.26167032E-09     -0.95563013E-20      0.65908231E-11     -0.50503992E-21
    0.665352290271         0.16671388E-05      0.13653261E-03     -0.48985829E-14      0.26644589E-09     -0.95596746E-20      0.67239129E-11     -0.50981498E-21
    0.671629198670         0.17247407E-05      0.13919286E-03     -0.47667026E-14      0.27839648E-09     -0.95337735E-20      0.68629721E-11     -0.51457711E-21
    0.677906107068         0.17837558E-05      0.14011624E-03     -0.46731051E-14      0.28714871E-09     -0.95768774E-20      0.70064030E-11     -0.51936076E-21
    0.684183015467         0.18441971E-05      0.16617808E-03     -0.45415338E-14      0.34886816E-09     -0.95343293E-20      0.71806628E-11     -0.52412317E-21
    0.690459923866         0.19060772E-05      0.21548358E-03     -0.44473498E-14      0.46330686E-09     -0.95621562E-20      0.74120848E-11     -0.52889947E-21
    0.696736832265         0.19694076E-05      0.24090840E-03     -0.43426560E-14      0.53036070E-09     -0.95603726E-20      0.76770003E-11     -0.53367488E-21
    0.703013740663         0.20341994E-05      0.21284082E-03     -0.42267407E-14      0.47966405E-09     -0.95255017E-20      0.79165927E-11     -0.53843287E-21
    0.709290649062         0.21004628E-05      0.17746159E-03     -0.41302279E-14      0.40930560E-09     -0.95261480E-20      0.81210411E-11     -0.54319119E-21
    0.715567557461         0.21682073E-05      0.18388093E-03     -0.40455497E-14      0.43394970E-09     -0.95472928E-20      0.83377992E-11     -0.54796006E-21
    0.721844465860         0.22374415E-05      0.19111767E-03     -0.39628611E-14      0.46138284E-09     -0.95668608E-20      0.85682601E-11     -0.55273872E-21
    0.728121374259         0.23081733E-05      0.20053006E-03     -0.38667440E-14      0.49510426E-09     -0.95469050E-20      0.88155649E-11     -0.55750740E-21
    0.734398282657         0.23804097E-05      0.18986880E-03     -0.37951290E-14      0.47932073E-09     -0.95807419E-20      0.90549859E-11     -0.56229299E-21
    0.740675191056         0.24541568E-05      0.19136030E-03     -0.36990957E-14      0.49383161E-09     -0.95460262E-20      0.93016550E-11     -0.56706123E-21
    0.746952099455         0.25294198E-05      0.18901354E-03     -0.36204441E-14      0.49850972E-09     -0.95486628E-20      0.95506609E-11     -0.57183079E-21
    0.753229007854         0.26062031E-05      0.19623517E-03     -0.35509521E-14      0.52882333E-09     -0.95692648E-20      0.98148084E-11     -0.57661064E-21
    0.759505916252         0.26845099E-05      0.20009211E-03     -0.34674793E-14      0.55082844E-09     -0.95455350E-20      0.10089947E-10     -0.58137864E-21
    0.765782824651         0.27643427E-05      0.18157447E-03     -0.33979002E-14      0.51049747E-09     -0.95532123E-20      0.10344941E-10     -0.58615048E-21
