 
 # Omega; pulse ft; proj flux t=    500.100000000000     
    0.000000000000         0.76130340E-13      0.00000000E+00      0.00000000E+00      0.00000000E+00      0.00000000E+00      0.00000000E+00      0.00000000E+00
    0.006280045285         0.34874077E-10      0.11797006E-25      0.60528810E-35      0.40602653E-35      0.20832662E-44      0.25498650E-37      0.13083006E-46
    0.012560090569         0.13937409E-09      0.24058930E-26      0.23442732E-35      0.16546581E-35      0.16122789E-44      0.35889978E-37      0.23208190E-46
    0.018840135854         0.31389481E-09      0.11074172E-28      0.13660036E-36      0.11435470E-37      0.14105699E-45      0.35961793E-37      0.24094035E-46
    0.025120181138         0.55896774E-09      0.10448092E-27     -0.84695271E-37      0.14409325E-36     -0.11680618E-45      0.36866705E-37      0.23360487E-46
    0.031400226423         0.87533792E-09      0.15314219E-27      0.12539041E-36      0.26459431E-36      0.21664564E-45      0.38528369E-37      0.24721031E-46
    0.037680271707         0.12639648E-08      0.42228977E-28      0.14047118E-36      0.87795893E-37      0.29204573E-45      0.39079731E-37      0.26555092E-46
    0.043960316992         0.17260235E-08     -0.46300965E-28      0.19703878E-36     -0.11267268E-36      0.47949080E-45      0.38372142E-37      0.29566316E-46
    0.050240362276         0.22629062E-08     -0.15965174E-27      0.78752236E-37     -0.44568716E-36      0.21984640E-45      0.35573206E-37      0.30946961E-46
    0.056520407561         0.28762236E-08     -0.24484363E-27      0.61564063E-37     -0.77223387E-36      0.19417232E-45      0.30723543E-37      0.32166372E-46
    0.062800452845         0.35678072E-08     -0.17433275E-27      0.14782952E-36     -0.61384716E-36      0.52052603E-45      0.26868555E-37      0.35435299E-46
    0.069080498130         0.43397112E-08     -0.11861793E-27      0.10520355E-36     -0.46184728E-36      0.40961744E-45      0.23968133E-37      0.38007715E-46
    0.075360543414         0.51942150E-08     -0.76410706E-28      0.10407875E-36     -0.32641702E-36      0.44461147E-45      0.21918219E-37      0.40799895E-46
    0.081640588699         0.61338257E-08     -0.28029055E-28      0.84027803E-37     -0.13051981E-36      0.39128300E-45      0.21098549E-37      0.43257170E-46
    0.087920633984         0.71612808E-08     -0.21868460E-28      0.47537514E-37     -0.11039789E-36      0.23998220E-45      0.20405245E-37      0.44764269E-46
    0.094200679268         0.82795515E-08     -0.25588751E-28     -0.31989467E-38     -0.13939415E-36     -0.17426190E-46      0.19529844E-37      0.44654832E-46
    0.100480724553         0.94918457E-08     -0.53540026E-28     -0.43143316E-38     -0.31346508E-36     -0.25259463E-46      0.17561269E-37      0.44496201E-46
    0.106760769837         0.10801611E-07     -0.71762842E-28      0.72722630E-38     -0.45000687E-36      0.45602547E-46      0.14735205E-37      0.44782587E-46
    0.113040815122         0.12212540E-07     -0.11857903E-28     -0.46850775E-38     -0.79400144E-37     -0.31371130E-46      0.14236569E-37      0.44585575E-46
    0.119320860406         0.13728570E-07      0.20472056E-28     -0.13615037E-38      0.14598662E-36     -0.97089089E-47      0.15153371E-37      0.44524603E-46
    0.125600905691         0.15353891E-07     -0.15163397E-28      0.59011977E-38     -0.11488541E-36      0.44710397E-46      0.14431886E-37      0.44805386E-46
    0.131880950975         0.17092949E-07     -0.35112297E-28      0.36233382E-38     -0.28205697E-36      0.29106264E-46      0.12660555E-37      0.44988175E-46
    0.138160996260         0.18950447E-07     -0.43453625E-28      0.86969130E-38     -0.36940493E-36      0.73933591E-46      0.10340675E-37      0.45452481E-46
    0.144441041544         0.20931352E-07     -0.39243112E-28      0.82405401E-38     -0.35246240E-36      0.74012491E-46      0.81271957E-38      0.45917283E-46
    0.150721086829         0.23040899E-07     -0.52724467E-28      0.53950548E-38     -0.49955151E-36      0.51116832E-46      0.49899896E-38      0.46238299E-46
    0.157001132113         0.25284593E-07     -0.75375204E-28      0.10997631E-37     -0.75235768E-36      0.10977286E-45      0.26514929E-39      0.46927678E-46
    0.163281177398         0.27668217E-07     -0.48289560E-28      0.15642073E-37     -0.50715530E-36      0.16427900E-45     -0.29198089E-38      0.47959357E-46
    0.169561222683         0.30197832E-07     -0.27680625E-28      0.25275316E-37     -0.30553980E-36      0.27898991E-45     -0.48386127E-38      0.49711426E-46
    0.175841267967         0.32879785E-07     -0.39125047E-28      0.26101508E-37     -0.45342526E-36      0.30249377E-45     -0.76861439E-38      0.51611101E-46
    0.182121313252         0.35720711E-07     -0.40029991E-28      0.27843160E-37     -0.48661724E-36      0.33847026E-45     -0.10742122E-37      0.53736709E-46
    0.188401358536         0.38727539E-07     -0.16261657E-28      0.15847600E-37     -0.20717786E-36      0.20190266E-45     -0.12043208E-37      0.55004667E-46
    0.194681403821         0.41907495E-07      0.22849263E-28      0.26968620E-37      0.30484712E-36      0.35980619E-45     -0.10128755E-37      0.57264266E-46
    0.200961449105         0.45268105E-07      0.66856312E-28      0.93637750E-38      0.93339324E-36      0.13072938E-45     -0.42670030E-38      0.58085253E-46
    0.207241494390         0.48817202E-07      0.10185003E-27      0.98742089E-38      0.14869624E-35      0.14415880E-45      0.50711885E-38      0.58990577E-46
    0.213521539674         0.52562928E-07      0.25149378E-27      0.11217642E-37      0.38371412E-35      0.17115205E-45      0.29168609E-37      0.60065419E-46
    0.219801584959         0.56513737E-07      0.39147476E-27     -0.52959589E-38      0.62383487E-35     -0.84393790E-46      0.68345721E-37      0.59535422E-46
    0.226081630243         0.60678401E-07     -0.92269257E-29      0.67288882E-39     -0.15348592E-36      0.11193215E-46      0.67381823E-37      0.59605716E-46
    0.232361675528         0.65066012E-07     -0.44163389E-27      0.28920797E-38     -0.76646928E-35      0.50192939E-46      0.19247205E-37      0.59920930E-46
    0.238641720812         0.69685984E-07     -0.35918679E-27     -0.58834559E-40     -0.65007295E-35     -0.10648152E-47     -0.21577671E-37      0.59914243E-46
    0.244921766097         0.74548059E-07     -0.25080464E-27      0.27357386E-38     -0.47313732E-35      0.51609094E-46     -0.51290909E-37      0.60238351E-46
    0.251201811381         0.79662308E-07     -0.21916882E-27      0.20863036E-38     -0.43077607E-35      0.41006272E-46     -0.78343841E-37      0.60495872E-46
    0.257481856666         0.85039131E-07     -0.19646056E-27      0.34716327E-38     -0.40215200E-35      0.71063832E-46     -0.10359917E-36      0.60942156E-46
    0.263761901951         0.90689267E-07     -0.18881700E-27      0.43009976E-38     -0.40237184E-35      0.91654903E-46     -0.12886830E-36      0.61517753E-46
    0.270041947235         0.96623785E-07     -0.14978426E-27      0.19973441E-38     -0.33217097E-35      0.44294356E-46     -0.14972879E-36      0.61795923E-46
    0.276321992520         0.10285409E-06     -0.12574384E-27      0.28450741E-38     -0.29009186E-35      0.65636043E-46     -0.16794669E-36      0.62208121E-46
    0.282602037804         0.10939194E-06     -0.12273970E-27      0.22248132E-38     -0.29446779E-35      0.53376032E-46     -0.18643940E-36      0.62543325E-46
    0.288882083089         0.11624942E-06     -0.13641992E-27      0.37981181E-38     -0.34024414E-35      0.94728646E-46     -0.20780689E-36      0.63138225E-46
    0.295162128373         0.12343895E-06     -0.14464715E-27      0.23479155E-38     -0.37492479E-35      0.60857867E-46     -0.23135233E-36      0.63520415E-46
    0.301442173658         0.13097330E-06     -0.14554408E-27      0.21649416E-38     -0.39193675E-35      0.58299875E-46     -0.25596614E-36      0.63886541E-46
    0.307722218942         0.13886558E-06     -0.14849081E-27      0.19505204E-38     -0.41531538E-35      0.54554292E-46     -0.28204813E-36      0.64229144E-46
    0.314002264227         0.14712923E-06     -0.14755085E-27      0.25945212E-38     -0.42849975E-35      0.75347021E-46     -0.30895811E-36      0.64702327E-46
    0.320282309511         0.15577804E-06     -0.13856061E-27      0.26359401E-38     -0.41769161E-35      0.79460535E-46     -0.33518933E-36      0.65201343E-46
    0.326562354796         0.16482612E-06     -0.12635178E-27      0.20292302E-38     -0.39526100E-35      0.63479560E-46     -0.36001190E-36      0.65599997E-46
    0.332842400080         0.17428793E-06     -0.12179350E-27      0.14752098E-38     -0.39527145E-35      0.47876804E-46     -0.38483513E-36      0.65900666E-46
    0.339122445365         0.18417826E-06     -0.12198197E-27      0.11893375E-38     -0.41060116E-35      0.40034058E-46     -0.41062107E-36      0.66152082E-46
    0.345402490650         0.19451221E-06     -0.12319161E-27      0.45090697E-39     -0.42997699E-35      0.15738054E-46     -0.43762382E-36      0.66250917E-46
    0.351682535934         0.20530523E-06     -0.12067271E-27     -0.35903858E-39     -0.43661730E-35     -0.12990714E-46     -0.46504358E-36      0.66169335E-46
    0.357962581219         0.21657306E-06     -0.11799135E-27     -0.42824108E-41     -0.44244537E-35     -0.16058235E-48     -0.49282935E-36      0.66168326E-46
    0.364242626503         0.22833179E-06     -0.12377768E-27      0.75843427E-39     -0.48090646E-35      0.29467021E-46     -0.52303049E-36      0.66353381E-46
    0.370522671788         0.24059779E-06     -0.13022634E-27     -0.68027308E-39     -0.52410506E-35     -0.27378068E-46     -0.55594453E-36      0.66181445E-46
    0.376802717072         0.25338774E-06     -0.12936152E-27      0.95629081E-39     -0.53916209E-35      0.39856965E-46     -0.58980415E-36      0.66431749E-46
    0.383082762357         0.26671863E-06     -0.12656461E-27      0.52823696E-39     -0.54615473E-35      0.22794612E-46     -0.62410292E-36      0.66574900E-46
    0.389362807641         0.28060773E-06     -0.12868118E-27      0.95594323E-39     -0.57478163E-35      0.42699220E-46     -0.66019946E-36      0.66843053E-46
    0.395642852926         0.29507259E-06     -0.13210558E-27      0.10734080E-38     -0.61064580E-35      0.49617288E-46     -0.69854830E-36      0.67154652E-46
    0.401922898210         0.31013104E-06     -0.13473046E-27      0.26139453E-38     -0.64433384E-35      0.12500911E-45     -0.73901275E-36      0.67939715E-46
    0.408202943495         0.32580116E-06     -0.13759361E-27     -0.15854693E-39     -0.68063994E-35     -0.78429059E-47     -0.78175725E-36      0.67890461E-46
    0.414482988779         0.34210131E-06     -0.13934189E-27      0.62608906E-39     -0.71280771E-35      0.32027778E-46     -0.82652190E-36      0.68091597E-46
    0.420763034064         0.35905007E-06     -0.14186222E-27      0.48979056E-39     -0.75028603E-35      0.25904220E-46     -0.87364020E-36      0.68254276E-46
    0.427043079349         0.37666626E-06     -0.14411279E-27      0.85021013E-39     -0.78782588E-35      0.46478701E-46     -0.92311602E-36      0.68546165E-46
    0.433323124633         0.39496893E-06     -0.14697154E-27      0.12657362E-38     -0.83028463E-35      0.71505088E-46     -0.97525827E-36      0.68995220E-46
    0.439603169918         0.41397733E-06     -0.15009621E-27      0.10351300E-39     -0.87604849E-35      0.60416186E-47     -0.10302745E-35      0.69033162E-46
    0.445883215202         0.43371092E-06     -0.15419775E-27      0.27004571E-39     -0.92960819E-35      0.16280179E-46     -0.10886543E-35      0.69135402E-46
    0.452163260487         0.45418931E-06     -0.15659104E-27      0.10060684E-38     -0.97488015E-35      0.62634243E-46     -0.11498772E-35      0.69528748E-46
    0.458443305771         0.47543232E-06     -0.16003466E-27      0.38705291E-39     -0.10286314E-34      0.24878035E-46     -0.12144758E-35      0.69684983E-46
    0.464723351056         0.49745989E-06     -0.17171333E-27      0.56187513E-40     -0.11392270E-34      0.37277438E-47     -0.12860197E-35      0.69708393E-46
    0.471003396340         0.52029212E-06     -0.18222474E-27      0.71351243E-39     -0.12475938E-34      0.48850321E-46     -0.13643692E-35      0.70015176E-46
    0.477283441625         0.54394922E-06     -0.18522414E-27      0.84246259E-39     -0.13083449E-34      0.59507991E-46     -0.14465338E-35      0.70388888E-46
    0.483563486909         0.56845152E-06     -0.19239174E-27      0.12738613E-38     -0.14017450E-34      0.92812133E-46     -0.15345641E-35      0.70971753E-46
    0.489843532194         0.59381941E-06     -0.19843749E-27      0.55320031E-39     -0.14909511E-34      0.41564456E-46     -0.16281965E-35      0.71232779E-46
    0.496123577478         0.62007337E-06     -0.20526152E-27      0.61626407E-39     -0.15900231E-34      0.47737837E-46     -0.17280506E-35      0.71532575E-46
    0.502403622763         0.64723393E-06     -0.21860904E-27      0.64571822E-39     -0.17454978E-34      0.51557782E-46     -0.18376687E-35      0.71856360E-46
    0.508683668048         0.67532166E-06     -0.23202262E-27      0.54701333E-39     -0.19091317E-34      0.45009426E-46     -0.19575630E-35      0.72139022E-46
    0.514963713332         0.70435711E-06     -0.24729600E-27      0.93486468E-39     -0.20964092E-34      0.79251538E-46     -0.20892185E-35      0.72636725E-46
    0.521243758617         0.73436086E-06     -0.26643746E-27      0.69352251E-39     -0.23265190E-34      0.60558051E-46     -0.22353249E-35      0.73017032E-46
    0.527523803901         0.76535344E-06     -0.28141884E-27      0.58743912E-39     -0.25305552E-34      0.52823299E-46     -0.23942449E-35      0.73348765E-46
    0.533803849186         0.79735534E-06     -0.29766966E-27      0.72236457E-39     -0.27557985E-34      0.66875850E-46     -0.25673103E-35      0.73768748E-46
    0.540083894470         0.83038696E-06     -0.32091349E-27     -0.73391729E-40     -0.30580877E-34     -0.69937337E-47     -0.27593596E-35      0.73724827E-46
    0.546363939755         0.86446862E-06     -0.34766800E-27      0.40581556E-39     -0.34093736E-34      0.39795923E-46     -0.29734698E-35      0.73974748E-46
    0.552643985039         0.89962053E-06     -0.37920651E-27      0.47743743E-39     -0.38258890E-34      0.48169601E-46     -0.32137374E-35      0.74277255E-46
    0.558924030324         0.93586274E-06     -0.41758190E-27      0.33117119E-39     -0.43335490E-34      0.34368027E-46     -0.34858862E-35      0.74493088E-46
    0.565204075608         0.97321515E-06     -0.46516780E-27      0.77326328E-39     -0.49642758E-34      0.82522739E-46     -0.37976450E-35      0.75011334E-46
    0.571484120893         0.10116975E-05     -0.52144735E-27      0.41321451E-39     -0.57213647E-34      0.45338247E-46     -0.41569493E-35      0.75296060E-46
    0.577764166177         0.10513292E-05     -0.59918110E-27      0.69205967E-39     -0.67575442E-34      0.78050255E-46     -0.45813261E-35      0.75786220E-46
    0.584044211462         0.10921295E-05     -0.68444807E-27      0.57387692E-39     -0.79325279E-34      0.66510445E-46     -0.50794925E-35      0.76203908E-46
    0.590324256747         0.11341175E-05     -0.82137806E-27      0.36749467E-39     -0.97803232E-34      0.43758372E-46     -0.56937012E-35      0.76478713E-46
    0.596604302031         0.11773119E-05     -0.96880335E-27      0.15002820E-39     -0.11849048E-33      0.18349352E-46     -0.64378268E-35      0.76593947E-46
    0.602884347316         0.12217310E-05     -0.12524535E-26      0.46047682E-40     -0.15730621E-33      0.57835170E-47     -0.74257169E-35      0.76630268E-46
    0.609164392600         0.12673928E-05     -0.15336408E-26      0.20901460E-39     -0.19776209E-33      0.26952312E-46     -0.86676718E-35      0.76799530E-46
    0.615444437885         0.13143151E-05     -0.23580894E-26      0.66231315E-40     -0.31211425E-33      0.87663076E-47     -0.10627763E-34      0.76854583E-46
    0.621724483169         0.13625152E-05     -0.29136089E-26      0.23751614E-39     -0.39574671E-33      0.32261101E-46     -0.13113071E-34      0.77057184E-46
    0.628004528454         0.14120099E-05     -0.14587201E-25      0.11092734E-38     -0.20327763E-32      0.15458104E-45     -0.25878998E-34      0.78027960E-46
    0.634284573738         0.14628155E-05     -0.23370663E-25      0.19210192E-38     -0.33405589E-32      0.27458689E-45     -0.46857859E-34      0.79752378E-46
    0.640564619023         0.15149482E-05     -0.38816916E-26      0.78471153E-39     -0.56898201E-33      0.11502376E-45     -0.50431092E-34      0.80474732E-46
    0.646844664307         0.15684233E-05      0.96874665E-26     -0.11503463E-39      0.14558485E-32     -0.17287594E-46     -0.41288297E-34      0.80366165E-46
    0.653124709592         0.16232557E-05      0.62917174E-26      0.70871514E-40      0.96917611E-33      0.10917048E-46     -0.35201827E-34      0.80434725E-46
    0.659404754876         0.16794598E-05      0.49243285E-26      0.31509330E-39      0.77733321E-33      0.49739267E-46     -0.30320140E-34      0.80747090E-46
    0.665684800161         0.17370493E-05      0.56179611E-26      0.19476370E-39      0.90858364E-33      0.31498813E-46     -0.24614193E-34      0.80944904E-46
    0.671964845445         0.17960375E-05      0.63288844E-26     -0.51521306E-40      0.10484282E-32     -0.85348989E-47     -0.18030017E-34      0.80891304E-46
    0.678244890730         0.18564368E-05      0.98343469E-26     -0.15518545E-39      0.16683295E-32     -0.26326147E-46     -0.75528318E-35      0.80725975E-46
    0.684524936015         0.19182592E-05      0.36376775E-25     -0.19123174E-38      0.63180766E-32     -0.33213960E-45      0.32124975E-34      0.78640123E-46
    0.690804981299         0.19815157E-05      0.10611543E-24     -0.18988811E-38      0.18865282E-31     -0.33758452E-45      0.15059980E-33      0.76520077E-46
    0.697085026584         0.20462170E-05      0.17630983E-24     -0.59138345E-38      0.32076364E-31     -0.10759145E-44      0.35204082E-33      0.69763285E-46
    0.703365071868         0.21123726E-05      0.18738676E-24      0.16966272E-38      0.34879585E-31      0.31580487E-45      0.57108619E-33      0.71746554E-46
    0.709645117153         0.21799915E-05      0.20997557E-24     -0.11530685E-38      0.39978366E-31     -0.21953883E-45      0.82215214E-33      0.70367840E-46
    0.715925162437         0.22490820E-05      0.32404196E-24     -0.25038493E-37      0.63093058E-31     -0.48751560E-44      0.12183794E-32      0.39751640E-46
    0.722205207722         0.23196512E-05      0.44108006E-24     -0.15588344E-37      0.87805593E-31     -0.31031640E-44      0.17698025E-32      0.20263629E-46
    0.728485253006         0.23917059E-05      0.45183210E-24     -0.22340105E-37      0.91940479E-31     -0.45458478E-44      0.23471929E-32     -0.82845005E-47
    0.734765298291         0.24652514E-05      0.41402308E-24     -0.28069221E-38      0.86095372E-31     -0.58369452E-45      0.28878757E-32     -0.11950129E-46
    0.741045343575         0.25402927E-05      0.39965174E-24     -0.82992657E-38      0.84910884E-31     -0.17632802E-44      0.34211199E-32     -0.23023608E-46
    0.747325388860         0.26168335E-05      0.40353965E-24     -0.37075389E-37      0.87578043E-31     -0.80462725E-44      0.39711140E-32     -0.73554563E-46
    0.753605434144         0.26948767E-05      0.43312322E-24     -0.21391035E-37      0.95995089E-31     -0.47409934E-44      0.45739675E-32     -0.10332822E-45
    0.759885479429         0.27744242E-05      0.43047784E-24     -0.27272313E-37      0.97413284E-31     -0.61714806E-44      0.51857273E-32     -0.14208539E-45
    0.766165524714         0.28554769E-05      0.36500912E-24     -0.76108515E-38      0.84314534E-31     -0.17580530E-44      0.57152264E-32     -0.15312605E-45
