 
 # Omega; pulse ft; projected flux at t=    500.250000000000     
    0.000000000000         0.10341091E-10      0.00000000E+00      0.00000000E+00      0.23972505E-08      0.12811373E-19
    0.006276908399         0.40699280E-10      0.58382868E+00      0.33280670E-11      0.22112618E-08      0.12605115E-19
    0.012553816798         0.13187398E-09      0.32668477E+00      0.20902918E-11      0.20045922E-08      0.12826379E-19
    0.018830725196         0.28416575E-09      0.22331487E+00      0.14360198E-11      0.19685033E-08      0.12658403E-19
    0.025107633595         0.49807598E-09      0.17093042E+00      0.11078747E-11      0.19807195E-08      0.12837908E-19
    0.031384541994         0.77430759E-09      0.13835286E+00      0.86891316E-12      0.19938830E-08      0.12522409E-19
    0.037661450393         0.11137660E-08      0.11673235E+00      0.74811279E-12      0.20165173E-08      0.12923430E-19
    0.043938358791         0.15175606E-08      0.10100110E+00      0.64194989E-12      0.20377088E-08      0.12951412E-19
    0.050215267190         0.19870057E-08      0.89265932E-01      0.55878532E-12      0.20633024E-08      0.12915824E-19
    0.056492175589         0.25236231E-08      0.80027555E-01      0.49235726E-12      0.20882840E-08      0.12847847E-19
    0.062769083988         0.31291437E-08      0.72624501E-01      0.44276989E-12      0.21148359E-08      0.12893523E-19
    0.069045992387         0.38055096E-08      0.66521845E-01      0.40091276E-12      0.21416694E-08      0.12907378E-19
    0.075322900785         0.45548772E-08      0.61404160E-01      0.36206337E-12      0.21690084E-08      0.12789337E-19
    0.081599809184         0.53796196E-08      0.57047121E-01      0.33413775E-12      0.21968984E-08      0.12867725E-19
    0.087876717583         0.62823298E-08      0.53303718E-01      0.30512669E-12      0.22259644E-08      0.12742097E-19
    0.094153625982         0.72658239E-08      0.50039991E-01      0.28657600E-12      0.22556870E-08      0.12918183E-19
    0.100430534380         0.83331444E-08      0.47161716E-01      0.26700688E-12      0.22858437E-08      0.12941344E-19
    0.106707442779         0.94875639E-08      0.44609420E-01      0.24614110E-12      0.23168631E-08      0.12783740E-19
    0.112984351178         0.10732589E-07      0.42324941E-01      0.23132847E-12      0.23485314E-08      0.12835982E-19
    0.119261259577         0.12071965E-07      0.40271155E-01      0.21924287E-12      0.23811484E-08      0.12963368E-19
    0.125538167976         0.13509678E-07      0.38407016E-01      0.20706861E-12      0.24143130E-08      0.13016592E-19
    0.131815076374         0.15049961E-07      0.36717693E-01      0.18819470E-12      0.24488347E-08      0.12551380E-19
    0.138091984773         0.16697298E-07      0.35136357E-01      0.18023259E-12      0.24816942E-08      0.12729896E-19
    0.144368893172         0.18456429E-07      0.33679510E-01      0.16331946E-12      0.25150905E-08      0.12196235E-19
    0.150645801571         0.20332352E-07      0.32388661E-01      0.16386875E-12      0.25535090E-08      0.12919346E-19
    0.156922709970         0.22330332E-07      0.31180095E-01      0.15244365E-12      0.25917948E-08      0.12671632E-19
    0.163199618368         0.24455902E-07      0.30049024E-01      0.14230493E-12      0.26303207E-08      0.12456565E-19
    0.169476526767         0.26714868E-07      0.28991935E-01      0.14294912E-12      0.26695280E-08      0.13162511E-19
    0.175753435166         0.29113317E-07      0.28011170E-01      0.12474597E-12      0.27103971E-08      0.12070581E-19
    0.182030343565         0.31657619E-07      0.27082637E-01      0.12178425E-12      0.27513080E-08      0.12371985E-19
    0.188307251963         0.34354433E-07      0.26250308E-01      0.11486763E-12      0.27974604E-08      0.12241291E-19
    0.194584160362         0.37210710E-07      0.25471879E-01      0.10963498E-12      0.28453472E-08      0.12246823E-19
    0.200861068761         0.40233700E-07      0.24665622E-01      0.10691957E-12      0.28860250E-08      0.12510228E-19
    0.207137977160         0.43430955E-07      0.23916751E-01      0.10075880E-12      0.29292446E-08      0.12340604E-19
    0.213414885559         0.46810335E-07      0.23237282E-01      0.98325831E-13      0.29772560E-08      0.12597909E-19
    0.219691793957         0.50380010E-07      0.22585919E-01      0.95652274E-13      0.30254918E-08      0.12813079E-19
    0.225968702356         0.54148468E-07      0.21976667E-01      0.93357466E-13      0.30761925E-08      0.13067748E-19
    0.232245610755         0.58124513E-07      0.21393402E-01      0.89855722E-13      0.31275587E-08      0.13136249E-19
    0.238522519154         0.62317278E-07      0.20844092E-01      0.83605750E-13      0.31810894E-08      0.12759364E-19
    0.244799427552         0.66736218E-07      0.20317044E-01      0.82278314E-13      0.32353817E-08      0.13102386E-19
    0.251076335951         0.71391124E-07      0.19824212E-01      0.75604647E-13      0.32926697E-08      0.12557429E-19
    0.257353244350         0.76292116E-07      0.19352447E-01      0.76643365E-13      0.33511950E-08      0.13272061E-19
    0.263630152749         0.81449655E-07      0.18908832E-01      0.70103848E-13      0.34125001E-08      0.12651727E-19
    0.269907061148         0.86874540E-07      0.18482934E-01      0.64838920E-13      0.34750654E-08      0.12190678E-19
    0.276183969546         0.92577913E-07      0.18082120E-01      0.62941688E-13      0.35405608E-08      0.12324267E-19
    0.282460877945         0.98571259E-07      0.17701335E-01      0.61074497E-13      0.36083763E-08      0.12449895E-19
    0.288737786344         0.10486641E-06      0.17341023E-01      0.59698637E-13      0.36789279E-08      0.12665169E-19
    0.295014694743         0.11147554E-06      0.17007189E-01      0.58231261E-13      0.37538966E-08      0.12853043E-19
    0.301291603141         0.11841119E-06      0.16688377E-01      0.56635917E-13      0.38311893E-08      0.13002038E-19
    0.307568511540         0.12568621E-06      0.16421745E-01      0.52554732E-13      0.39199352E-08      0.12545021E-19
    0.313845419939         0.13331385E-06      0.16199867E-01      0.51799097E-13      0.40196175E-08      0.12852732E-19
    0.320122328338         0.14130766E-06      0.16497884E-01      0.50083176E-13      0.42539443E-08      0.12913840E-19
    0.326399236737         0.14968158E-06      0.16029419E-01      0.46396908E-13      0.42938888E-08      0.12428595E-19
    0.332676145135         0.15844985E-06      0.14961701E-01      0.45932889E-13      0.41626026E-08      0.12779320E-19
    0.338953053534         0.16762710E-06      0.14737037E-01      0.43071962E-13      0.42572453E-08      0.12442658E-19
    0.345229961933         0.17722828E-06      0.14560222E-01      0.44016961E-13      0.43662273E-08      0.13199528E-19
    0.351506870332         0.18726866E-06      0.14353754E-01      0.40861128E-13      0.44669450E-08      0.12716144E-19
    0.357783778731         0.19776389E-06      0.14164615E-01      0.38268848E-13      0.45734603E-08      0.12356217E-19
    0.364060687129         0.20872991E-06      0.13976869E-01      0.37744071E-13      0.46809563E-08      0.12640767E-19
    0.370337595528         0.22018301E-06      0.13804767E-01      0.35405368E-13      0.47943406E-08      0.12296143E-19
    0.376614503927         0.23213979E-06      0.13631574E-01      0.36757316E-13      0.49080882E-08      0.13234580E-19
    0.382891412326         0.24461718E-06      0.13475590E-01      0.33464184E-13      0.50288991E-08      0.12488359E-19
    0.389168320724         0.25763241E-06      0.13325982E-01      0.32981139E-13      0.51531886E-08      0.12753884E-19
    0.395445229123         0.27120301E-06      0.13193829E-01      0.31714840E-13      0.52855821E-08      0.12705287E-19
    0.401722137522         0.28534681E-06      0.13063515E-01      0.30234527E-13      0.54202722E-08      0.12544814E-19
    0.407999045921         0.30008192E-06      0.12954656E-01      0.29741582E-13      0.55657075E-08      0.12777873E-19
    0.414275954320         0.31542674E-06      0.12845426E-01      0.27718264E-13      0.57130903E-08      0.12327886E-19
    0.420552862718         0.33139993E-06      0.12763787E-01      0.28805003E-13      0.58752342E-08      0.13259085E-19
    0.426829771117         0.34802041E-06      0.12676173E-01      0.27028558E-13      0.60374279E-08      0.12873205E-19
    0.433106679516         0.36530735E-06      0.12629266E-01      0.26800169E-13      0.62223644E-08      0.13204284E-19
    0.439383587915         0.38328015E-06      0.12566629E-01      0.24396216E-13      0.64033183E-08      0.12431077E-19
    0.445660496313         0.40195843E-06      0.12581286E-01      0.23621188E-13      0.66285089E-08      0.12444932E-19
    0.451937404712         0.42136202E-06      0.12555352E-01      0.22731204E-13      0.68378536E-08      0.12379792E-19
    0.458214313111         0.44151098E-06      0.12834043E-01      0.22166352E-13      0.72235413E-08      0.12476158E-19
    0.464491221510         0.46242550E-06      0.12350108E-01      0.21949793E-13      0.71820567E-08      0.12764638E-19
    0.470768129909         0.48412598E-06      0.11463908E-01      0.21090194E-13      0.68864885E-08      0.12669098E-19
    0.477045038307         0.50663295E-06      0.11749017E-01      0.20559985E-13      0.72886884E-08      0.12754711E-19
    0.483321946706         0.52996708E-06      0.12028361E-01      0.19925302E-13      0.77042902E-08      0.12762363E-19
    0.489598855105         0.55414917E-06      0.12079592E-01      0.19065248E-13      0.79864243E-08      0.12604992E-19
    0.495875763504         0.57920011E-06      0.12201013E-01      0.18649093E-13      0.83246397E-08      0.12724106E-19
    0.502152671902         0.60514088E-06      0.12258035E-01      0.16960454E-13      0.86288985E-08      0.11939111E-19
    0.508429580301         0.63199252E-06      0.12427869E-01      0.17923258E-13      0.90238444E-08      0.13014033E-19
    0.514706488700         0.65977612E-06      0.12669178E-01      0.16968397E-13      0.94863512E-08      0.12705494E-19
    0.520983397099         0.68851279E-06      0.12716146E-01      0.16309536E-13      0.98165176E-08      0.12590516E-19
    0.527260305498         0.71822366E-06      0.12542251E-01      0.15575812E-13      0.99798478E-08      0.12393647E-19
    0.533537213896         0.74892983E-06      0.12803360E-01      0.15703668E-13      0.10498184E-07      0.12876307E-19
    0.539814122295         0.78065236E-06      0.13033077E-01      0.14310575E-13      0.11009668E-07      0.12088831E-19
    0.546091030694         0.81341227E-06      0.13268305E-01      0.14140626E-13      0.11544494E-07      0.12303484E-19
    0.552367939093         0.84723047E-06      0.13294122E-01      0.13751161E-13      0.11910954E-07      0.12320442E-19
    0.558644847491         0.88212778E-06      0.13680157E-01      0.13650043E-13      0.12618292E-07      0.12590516E-19
    0.564921755890         0.91812490E-06      0.13818114E-01      0.13030017E-13      0.13118254E-07      0.12370072E-19
    0.571198664289         0.95524236E-06      0.14229343E-01      0.11874111E-13      0.13900328E-07      0.11599554E-19
    0.577475572688         0.99350052E-06      0.14318355E-01      0.11479761E-13      0.14389358E-07      0.11536688E-19
    0.583752481087         0.10329195E-05      0.14940501E-01      0.12204462E-13      0.15442468E-07      0.12614504E-19
    0.590029389485         0.10735193E-05      0.14901882E-01      0.11825580E-13      0.15837665E-07      0.12568182E-19
    0.596306297884         0.11153196E-05      0.15717604E-01      0.11367945E-13      0.17172363E-07      0.12420117E-19
    0.602583206283         0.11583396E-05      0.15332491E-01      0.11280489E-13      0.17216522E-07      0.12666617E-19
    0.608860114682         0.12025986E-05      0.16472377E-01      0.10680986E-13      0.19005235E-07      0.12323337E-19
    0.615137023081         0.12481153E-05      0.14670181E-01      0.10920306E-13      0.17387299E-07      0.12942895E-19
    0.621413931479         0.12949080E-05      0.16709601E-01      0.10254579E-13      0.20339385E-07      0.12482155E-19
    0.627690839878         0.13429948E-05      0.62997315E-02      0.10074975E-13      0.78734373E-08      0.12591757E-19
    0.633967748277         0.13923932E-05      0.15444871E-01      0.91541703E-14      0.19814942E-07      0.11744310E-19
    0.640244656676         0.14431204E-05      0.67368427E-01      0.70514365E-14      0.88700652E-07      0.92842752E-20
    0.646521565074         0.14951931E-05      0.67066954E-01      0.80408723E-14      0.90601761E-07      0.10862536E-19
    0.652798473473         0.15486273E-05      0.54166336E-01      0.63608180E-14      0.75060430E-07      0.88144366E-20
    0.659075381872         0.16034389E-05      0.64128328E-01      0.68380641E-14      0.91134126E-07      0.97177178E-20
    0.665352290271         0.16596427E-05      0.68570028E-01      0.40102762E-14      0.99910488E-07      0.58432038E-20
    0.671629198670         0.17172535E-05      0.10647975E+00      0.93975007E-14      0.15903242E-06      0.14035601E-19
    0.677906107068         0.17762849E-05      0.19981335E+00      0.21444460E-14      0.30583092E-06      0.32822527E-20
    0.684183015467         0.18367504E-05      0.53240429E+00      0.21605714E-14      0.83489760E-06      0.33881318E-20
    0.690459923866         0.18986625E-05      0.15679017E+01      0.20961113E-13      0.25184999E-05      0.33669560E-19
    0.696736832265         0.19620330E-05      0.19141751E+01     -0.45056454E-13      0.31487126E-05     -0.74115383E-19
    0.703013740663         0.20268732E-05      0.94797514E+00      0.13831090E-14      0.15965169E-05      0.23293406E-20
    0.709290649062         0.20931935E-05      0.61165232E+00     -0.18825298E-13      0.10543956E-05     -0.32451950E-19
    0.715567557461         0.21610035E-05      0.87624501E+00     -0.11823823E-13      0.15457675E-05     -0.20858186E-19
    0.721844465860         0.22303120E-05      0.10493259E+01     -0.53971235E-13      0.18938526E-05     -0.97408789E-19
    0.728121374259         0.23011271E-05      0.10799684E+01     -0.33494426E-13      0.19937085E-05     -0.61833405E-19
    0.734398282657         0.23734559E-05      0.10323732E+01     -0.69545445E-13      0.19489470E-05     -0.13129011E-18
    0.740675191056         0.24473047E-05      0.10972569E+01     -0.51346651E-13      0.21177874E-05     -0.99102855E-19
    0.746952099455         0.25226788E-05      0.11904809E+01     -0.31825995E-13      0.23485805E-05     -0.62786317E-19
    0.753229007854         0.25995828E-05      0.13490356E+01     -0.85816728E-13      0.27196551E-05     -0.17300648E-18
    0.759505916252         0.26780200E-05      0.14906731E+01      0.20562402E-13      0.30702864E-05      0.42351647E-19
    0.765782824651         0.27579930E-05      0.12588044E+01     -0.27680356E-13      0.26482538E-05     -0.58233515E-19
    0.772059733050         0.28395032E-05      0.11128073E+01     -0.68997457E-15      0.23907008E-05     -0.14823077E-20
    0.778336641449         0.29225512E-05      0.13223913E+01     -0.50686367E-13      0.29004705E-05     -0.11117307E-18
    0.784613549848         0.30071363E-05      0.14174584E+01     -0.24687079E-13      0.31733752E-05     -0.55268900E-19
    0.790890458246         0.30932570E-05      0.15031891E+01     -0.81473378E-13      0.34342119E-05     -0.18613549E-18
    0.797167366645         0.31809104E-05      0.15643134E+01     -0.52692958E-13      0.36461915E-05     -0.12281978E-18
    0.803444275044         0.32700927E-05      0.16221614E+01     -0.20752868E-13      0.38566674E-05     -0.49339669E-19
    0.809721183443         0.33607990E-05      0.16591827E+01     -0.81751423E-13      0.40226759E-05     -0.19820571E-18
    0.815998091842         0.34530231E-05      0.16879626E+01     -0.48402145E-13      0.41724099E-05     -0.11964340E-18
    0.822275000240         0.35467578E-05      0.16997828E+01     -0.11110754E-12      0.42827397E-05     -0.27994439E-18
    0.828551908639         0.36419946E-05      0.17032454E+01     -0.75049590E-13      0.43733136E-05     -0.19270000E-18
    0.834828817038         0.37387238E-05      0.16946861E+01     -0.13558616E-12      0.44333195E-05     -0.35469505E-18
    0.841105725437         0.38369346E-05      0.16781676E+01     -0.99494031E-13      0.44718059E-05     -0.26512131E-18
    0.847382633835         0.39366149E-05      0.16520883E+01     -0.15723824E-12      0.44832238E-05     -0.42669285E-18
    0.853659542234         0.40377513E-05      0.16173386E+01     -0.28894354E-13      0.44685810E-05     -0.79832855E-19
    0.859936450633         0.41403294E-05      0.15745294E+01      0.46682023E-14      0.44282600E-05      0.13129011E-19
    0.866213359032         0.42443332E-05      0.15232565E+01     -0.51123428E-13      0.43598488E-05     -0.14632494E-18
    0.872490267431         0.43497456E-05      0.14662757E+01     -0.18106003E-13      0.42700475E-05     -0.52727801E-19
    0.878767175829         0.44565484E-05      0.14025557E+01     -0.67551269E-13      0.41548821E-05     -0.20011153E-18
    0.885044084228         0.45647219E-05      0.13355649E+01     -0.36268266E-13      0.40237242E-05     -0.10926725E-18
    0.891320992627         0.46742450E-05      0.12638719E+01     -0.79565445E-13      0.38716333E-05     -0.24373373E-18
    0.897597901026         0.47850957E-05      0.11893848E+01     -0.50525024E-13      0.37037782E-05     -0.15733637E-18
    0.903874809424         0.48972503E-05      0.11114032E+01     -0.23752583E-13      0.35174625E-05     -0.75174174E-19
    0.910151717823         0.50106841E-05      0.10262145E+01     -0.59394991E-13      0.33001614E-05     -0.19100593E-18
    0.916428626222         0.51253709E-05      0.93980422E+00     -0.34289056E-13      0.30702790E-05     -0.11202011E-18
    0.922705534621         0.52412834E-05      0.82940936E+00     -0.59543401E-13      0.27520559E-05     -0.19757043E-18
    0.928982443020         0.53583927E-05      0.91306796E+00     -0.46948322E-13      0.30764080E-05     -0.15818340E-18
    0.935259351418         0.54766690E-05      0.17185037E+01     -0.15365399E-12      0.58782589E-05     -0.52558394E-18
    0.941536259817         0.55960809E-05      0.19303170E+01     -0.23665261E-13      0.67017678E-05     -0.82162196E-19
    0.947813168216         0.57165958E-05      0.13492993E+01     -0.64192311E-13      0.47537554E-05     -0.22615780E-18
    0.954090076615         0.58381799E-05      0.11040179E+01     -0.29621593E-13      0.39461903E-05     -0.10587912E-18
    0.960366985013         0.59607981E-05      0.97826946E+00     -0.51981562E-14      0.35468228E-05     -0.18846483E-19
    0.966643893412         0.60844141E-05      0.88406336E+00     -0.36341564E-13      0.32504946E-05     -0.13361945E-18
    0.972920801811         0.62089900E-05      0.81366338E+00     -0.16359707E-13      0.30332070E-05     -0.60986372E-19
    0.979197710210         0.63344872E-05      0.74746615E+00     -0.41468388E-13      0.28245314E-05     -0.15670110E-18
    0.985474618609         0.64608656E-05      0.69248711E+00     -0.24108364E-13      0.26519832E-05     -0.92326591E-19
    0.991751527007         0.65880838E-05      0.62337361E+00     -0.43875929E-13      0.24189030E-05     -0.17025362E-18
    0.998028435406         0.67160994E-05      0.61531355E+00     -0.30867889E-13      0.24187138E-05     -0.12133747E-18
    1.004305343805         0.68448687E-05      0.67844017E+00     -0.58827757E-13      0.27010007E-05     -0.23420461E-18
    1.010582252204         0.69743470E-05      0.67959119E+00     -0.44806772E-13      0.27396395E-05     -0.18062978E-18
    1.016859160602         0.71044882E-05      0.62113627E+00     -0.27811173E-13      0.25349692E-05     -0.11350241E-18
