 
 # Omega; pulse ft; proj flux t=    500.250000000000     
    0.000000000000         0.19000442E-09      0.00000000E+00      0.00000000E+00      0.11294652E-12     -0.39243250E-19      0.70895497E-15     -0.24632629E-21
    0.006276908399         0.22160172E-09     -0.11281452E-04     -0.17935204E-10     -0.24685107E-13     -0.39244275E-19      0.55400881E-15     -0.49265901E-21
    0.012553816798         0.31649624E-09      0.32766739E-03     -0.25115021E-10      0.51199847E-12     -0.39243614E-19      0.37677763E-14     -0.73898758E-21
    0.018830725196         0.47499603E-09      0.44610749E-03     -0.25109058E-10      0.69743723E-12     -0.39255096E-19      0.81455259E-14     -0.98538822E-21
    0.025107633595         0.69761494E-09      0.42087881E-03     -0.22794440E-10      0.72478588E-12     -0.39253790E-19      0.12694941E-13     -0.12317807E-20
    0.031384541994         0.98507334E-09      0.38701779E-03     -0.20179915E-10      0.75288106E-12     -0.39256789E-19      0.17420706E-13     -0.14781919E-20
    0.037661450393         0.13382991E-08      0.35246379E-03     -0.17822836E-10      0.77627092E-12     -0.39253250E-19      0.22293287E-13     -0.17245810E-20
    0.043938358791         0.17584287E-08      0.32262741E-03     -0.15820295E-10      0.80024852E-12     -0.39240830E-19      0.27316374E-13     -0.19708921E-20
    0.050215267190         0.22468091E-08      0.30429529E-03     -0.14153006E-10      0.84385591E-12     -0.39248381E-19      0.32613180E-13     -0.22172506E-20
    0.056492175589         0.28049990E-08      0.28833217E-03     -0.12753672E-10      0.88731982E-12     -0.39248435E-19      0.38182806E-13     -0.24636094E-20
    0.062769083988         0.34347712E-08      0.25913629E-03     -0.11576079E-10      0.87886655E-12     -0.39260531E-19      0.43699370E-13     -0.27100442E-20
    0.069045992387         0.41381150E-08      0.23461674E-03     -0.10567914E-10      0.87149671E-12     -0.39255092E-19      0.49169675E-13     -0.29564448E-20
    0.075322900785         0.49172381E-08      0.22011060E-03     -0.97012387E-11      0.89059004E-12     -0.39252206E-19      0.54759828E-13     -0.32028273E-20
    0.081599809184         0.57745703E-08      0.20750151E-03     -0.89495970E-11      0.91011120E-12     -0.39253346E-19      0.60472512E-13     -0.34492169E-20
    0.087876717583         0.67127654E-08      0.19564016E-03     -0.82907095E-11      0.92625023E-12     -0.39252021E-19      0.66286500E-13     -0.36955983E-20
    0.094153625982         0.77347054E-08      0.18521369E-03     -0.77087493E-11      0.94302344E-12     -0.39249427E-19      0.72205772E-13     -0.39419633E-20
    0.100430534380         0.88435030E-08      0.17570292E-03     -0.71915640E-11      0.95891520E-12     -0.39248637E-19      0.78224795E-13     -0.41883234E-20
    0.106707442779         0.10042506E-07      0.16725243E-03     -0.67322354E-11      0.97557913E-12     -0.39268956E-19      0.84348415E-13     -0.44348111E-20
    0.112984351178         0.11335300E-07      0.15995366E-03     -0.63130899E-11      0.99460719E-12     -0.39255398E-19      0.90591474E-13     -0.46812136E-20
    0.119261259577         0.12725715E-07      0.15338620E-03     -0.59368782E-11      0.10144059E-11     -0.39263011E-19      0.96958807E-13     -0.49276639E-20
    0.125538167976         0.14217824E-07      0.14751963E-03     -0.55924456E-11      0.10354993E-11     -0.39255614E-19      0.10345854E-12     -0.51740678E-20
    0.131815076374         0.15815953E-07      0.14219669E-03     -0.52768445E-11      0.10574563E-11     -0.39241649E-19      0.11009610E-12     -0.54203841E-20
    0.138091984773         0.17524683E-07      0.13724845E-03     -0.49897595E-11      0.10795228E-11     -0.39246776E-19      0.11687216E-12     -0.56667325E-20
    0.144368893172         0.19348855E-07      0.13274385E-03     -0.47255057E-11      0.11026527E-11     -0.39252977E-19      0.12379341E-12     -0.59131198E-20
    0.150645801571         0.21293571E-07      0.12924349E-03     -0.44792945E-11      0.11322513E-11     -0.39241333E-19      0.13090045E-12     -0.61594341E-20
    0.156922709970         0.23364205E-07      0.12599676E-03     -0.42517058E-11      0.11626989E-11     -0.39234769E-19      0.13819861E-12     -0.64057071E-20
    0.163199618368         0.25566403E-07      0.12273135E-03     -0.40438108E-11      0.11916499E-11     -0.39263047E-19      0.14567848E-12     -0.66521577E-20
    0.169476526767         0.27906088E-07      0.11970979E-03     -0.38466984E-11      0.12216921E-11     -0.39257282E-19      0.15334693E-12     -0.68985720E-20
    0.175753435166         0.30389467E-07      0.11661061E-03     -0.36630490E-11      0.12496834E-11     -0.39255876E-19      0.16119108E-12     -0.71449776E-20
    0.182030343565         0.33023034E-07      0.11375750E-03     -0.34923018E-11      0.12790747E-11     -0.39266991E-19      0.16921971E-12     -0.73914529E-20
    0.188307251963         0.35813574E-07      0.11142600E-03     -0.33306095E-11      0.13134387E-11     -0.39259703E-19      0.17746405E-12     -0.76378825E-20
    0.194584160362         0.38768170E-07      0.10926034E-03     -0.31804960E-11      0.13491898E-11     -0.39274019E-19      0.18593279E-12     -0.78844019E-20
    0.200861068761         0.41894206E-07      0.10773068E-03     -0.30368883E-11      0.13926445E-11     -0.39258138E-19      0.19467429E-12     -0.81308216E-20
    0.207137977160         0.45199371E-07      0.10625064E-03     -0.29038323E-11      0.14369674E-11     -0.39272349E-19      0.20369400E-12     -0.83773305E-20
    0.213414885559         0.48691666E-07      0.10401094E-03     -0.27770951E-11      0.14707932E-11     -0.39270222E-19      0.21292604E-12     -0.86238261E-20
    0.219691793957         0.52379403E-07      0.10194120E-03     -0.26552280E-11      0.15063959E-11     -0.39236585E-19      0.22238155E-12     -0.88701106E-20
    0.225968702356         0.56271216E-07      0.99510416E-04     -0.25422327E-11      0.15358515E-11     -0.39237017E-19      0.23202195E-12     -0.91163977E-20
    0.232245610755         0.60376060E-07      0.97310141E-04     -0.24358451E-11      0.15678988E-11     -0.39247284E-19      0.24186350E-12     -0.93627494E-20
    0.238522519154         0.64703218E-07      0.96150091E-04     -0.23348071E-11      0.16165490E-11     -0.39254565E-19      0.25201043E-12     -0.96091467E-20
    0.244799427552         0.69262300E-07      0.95036006E-04     -0.22372519E-11      0.16665462E-11     -0.39232327E-19      0.26247119E-12     -0.98554044E-20
    0.251076335951         0.74063251E-07      0.93584191E-04     -0.21471493E-11      0.17109691E-11     -0.39255625E-19      0.27321079E-12     -0.10101808E-19
    0.257353244350         0.79116352E-07      0.92243679E-04     -0.20599381E-11      0.17575832E-11     -0.39249438E-19      0.28424298E-12     -0.10348173E-19
    0.263630152749         0.84432224E-07      0.90864137E-04     -0.19774010E-11      0.18036337E-11     -0.39250987E-19      0.29556422E-12     -0.10594548E-19
    0.269907061148         0.90021830E-07      0.89576495E-04     -0.18985853E-11      0.18516987E-11     -0.39246992E-19      0.30718716E-12     -0.10840898E-19
    0.276183969546         0.95896474E-07      0.87977488E-04     -0.18235095E-11      0.18932955E-11     -0.39242339E-19      0.31907121E-12     -0.11087219E-19
    0.282460877945         0.10206781E-06      0.86468549E-04     -0.17529504E-11      0.19365617E-11     -0.39259322E-19      0.33122683E-12     -0.11333646E-19
    0.288737786344         0.10854784E-06      0.84259481E-04     -0.16837416E-11      0.19632653E-11     -0.39231568E-19      0.34355006E-12     -0.11579899E-19
    0.295014694743         0.11534890E-06      0.82092082E-04     -0.16196757E-11      0.19893617E-11     -0.39250081E-19      0.35603710E-12     -0.11826268E-19
    0.301291603141         0.12248370E-06      0.77495741E-04     -0.15579733E-11      0.19525932E-11     -0.39254908E-19      0.36829335E-12     -0.12072667E-19
    0.307568511540         0.12996528E-06      0.72646231E-04     -0.14983128E-11      0.19025726E-11     -0.39240149E-19      0.38023563E-12     -0.12318974E-19
    0.313845419939         0.13780704E-06      0.50967889E-04     -0.14422086E-11      0.13870590E-11     -0.39248799E-19      0.38894207E-12     -0.12565335E-19
    0.320122328338         0.14602273E-06      0.59055300E-04     -0.13884314E-11      0.16695754E-11     -0.39252884E-19      0.39942184E-12     -0.12811722E-19
    0.326399236737         0.15462643E-06      0.13801072E-03     -0.13374194E-11      0.40521927E-11     -0.39268551E-19      0.42485708E-12     -0.13058207E-19
    0.332676145135         0.16363259E-06      0.16471836E-03     -0.12872059E-11      0.50214925E-11     -0.39240888E-19      0.45637653E-12     -0.13304519E-19
    0.338953053534         0.17305599E-06      0.12768446E-03     -0.12405212E-11      0.40404321E-11     -0.39254908E-19      0.48173795E-12     -0.13550918E-19
    0.345229961933         0.18291177E-06      0.11300683E-03     -0.11952191E-11      0.37109111E-11     -0.39248526E-19      0.50503100E-12     -0.13797278E-19
    0.351506870332         0.19321538E-06      0.11071420E-03     -0.11520590E-11      0.37718454E-11     -0.39248699E-19      0.52870653E-12     -0.14043638E-19
    0.357783778731         0.20398262E-06      0.10927105E-03     -0.11107491E-11      0.38611823E-11     -0.39249233E-19      0.55294282E-12     -0.14290002E-19
    0.364060687129         0.21522964E-06      0.11044124E-03     -0.10708979E-11      0.40467114E-11     -0.39239099E-19      0.57834366E-12     -0.14536302E-19
    0.370337595528         0.22697289E-06      0.11188340E-03     -0.10336565E-11      0.42499569E-11     -0.39264053E-19      0.60502025E-12     -0.14782759E-19
    0.376614503927         0.23922915E-06      0.11006789E-03     -0.99672306E-12      0.43333160E-11     -0.39240474E-19      0.63222007E-12     -0.15029068E-19
    0.382891412326         0.25201552E-06      0.10954961E-03     -0.96228012E-12      0.44689465E-11     -0.39255079E-19      0.66027124E-12     -0.15275468E-19
    0.389168320724         0.26534940E-06      0.11026781E-03     -0.92885616E-12      0.46598515E-11     -0.39252903E-19      0.68952070E-12     -0.15521855E-19
    0.395445229123         0.27924851E-06      0.11247898E-03     -0.89675134E-12      0.49228723E-11     -0.39248153E-19      0.72042112E-12     -0.15768212E-19
    0.401722137522         0.29373083E-06      0.11326601E-03     -0.86600827E-12      0.51329385E-11     -0.39245375E-19      0.75264011E-12     -0.16014552E-19
    0.407999045921         0.30881467E-06      0.11707326E-03     -0.83670621E-12      0.54921092E-11     -0.39251336E-19      0.78711357E-12     -0.16260929E-19
    0.414275954320         0.32451858E-06      0.11828699E-03     -0.80879417E-12      0.57428769E-11     -0.39267253E-19      0.82316108E-12     -0.16507406E-19
    0.420552862718         0.34086139E-06      0.12605962E-03     -0.78125625E-12      0.63325100E-11     -0.39245819E-19      0.86290967E-12     -0.16753748E-19
    0.426829771117         0.35786219E-06      0.12685047E-03     -0.75544137E-12      0.65916760E-11     -0.39255864E-19      0.90428502E-12     -0.17000154E-19
    0.433106679516         0.37554031E-06      0.14506608E-03     -0.73025738E-12      0.77959710E-11     -0.39244636E-19      0.95321961E-12     -0.17246489E-19
    0.439383587915         0.39391532E-06      0.14143476E-03     -0.70632223E-12      0.78588297E-11     -0.39246831E-19      0.10025488E-11     -0.17492838E-19
    0.445660496313         0.41300701E-06      0.20474178E-03     -0.68336206E-12      0.11759868E-10     -0.39250647E-19      0.10763644E-11     -0.17739210E-19
    0.451937404712         0.43283537E-06      0.14279403E-03     -0.66129503E-12      0.84761215E-11     -0.39253861E-19      0.11295682E-11     -0.17985603E-19
    0.458214313111         0.45342059E-06      0.12487460E-02     -0.64011979E-12      0.76585995E-10     -0.39258754E-19      0.16102915E-11     -0.18232027E-19
    0.464491221510         0.47478305E-06      0.33543239E-02     -0.61939738E-12      0.21250315E-09     -0.39240066E-19      0.29441543E-11     -0.18478333E-19
    0.470768129909         0.49694328E-06      0.23357426E-02     -0.60006253E-12      0.15281550E-09     -0.39258974E-19      0.39033632E-11     -0.18724758E-19
    0.477045038307         0.51992196E-06      0.96138370E-04     -0.58109475E-12      0.64940886E-11     -0.39252598E-19      0.39441260E-11     -0.18971143E-19
    0.483321946706         0.54373993E-06     -0.21298446E-03     -0.56282846E-12     -0.14850644E-10     -0.39244015E-19      0.38509099E-11     -0.19217474E-19
    0.489598855105         0.56841810E-06     -0.10290249E-03     -0.54533703E-12     -0.74045058E-11     -0.39240558E-19      0.38044325E-11     -0.19463783E-19
    0.495875763504         0.59397753E-06     -0.18218734E-03     -0.52851958E-12     -0.13525645E-10     -0.39237460E-19      0.37195332E-11     -0.19710073E-19
    0.502152671902         0.62043932E-06     -0.17686561E-03     -0.51260846E-12     -0.13544083E-10     -0.39254729E-19      0.36345183E-11     -0.19956472E-19
    0.508429580301         0.64782466E-06      0.16261612E-02     -0.49693490E-12      0.12842008E-09     -0.39243600E-19      0.44405993E-11     -0.20202800E-19
    0.514706488700         0.67615476E-06      0.14573447E-01     -0.48223414E-12      0.11865647E-08     -0.39263327E-19      0.11888557E-10     -0.20449253E-19
    0.520983397099         0.70545086E-06      0.29424848E-01     -0.46874572E-12      0.24694475E-08     -0.39338960E-19      0.27389053E-10     -0.20696180E-19
    0.527260305498         0.73573422E-06      0.27757420E-01     -0.45435541E-12      0.24005881E-08     -0.39294726E-19      0.42457324E-10     -0.20942829E-19
    0.533537213896         0.76702604E-06      0.26105614E-01     -0.44041302E-12      0.23260657E-08     -0.39241736E-19      0.57057825E-10     -0.21189146E-19
    0.539814122295         0.79934752E-06      0.34749859E-01     -0.42878391E-12      0.31892393E-08     -0.39352520E-19      0.77076388E-10     -0.21436158E-19
    0.546091030694         0.83271978E-06      0.44360446E-01     -0.41597081E-12      0.41924937E-08     -0.39313288E-19      0.10339229E-09     -0.21682924E-19
    0.552367939093         0.86716384E-06      0.49753791E-01     -0.40567952E-12      0.48410721E-08     -0.39472848E-19      0.13377925E-09     -0.21930691E-19
    0.558644847491         0.90270064E-06      0.53570614E-01     -0.39344876E-12      0.53650929E-08     -0.39403863E-19      0.16745545E-09     -0.22178026E-19
    0.564921755890         0.93935095E-06      0.56231870E-01     -0.38453808E-12      0.57951513E-08     -0.39629774E-19      0.20383108E-09     -0.22426778E-19
    0.571198664289         0.97713540E-06      0.60170750E-01     -0.37275778E-12      0.63796326E-08     -0.39521822E-19      0.24387545E-09     -0.22674853E-19
    0.577475572688         0.10160745E-05      0.65296345E-01     -0.36505081E-12      0.71207127E-08     -0.39809608E-19      0.28857151E-09     -0.22924734E-19
    0.583752481087         0.10561883E-05      0.73554579E-01     -0.35012670E-12      0.82483109E-08     -0.39262735E-19      0.34034541E-09     -0.23171183E-19
    0.590029389485         0.10974971E-05      0.82742901E-01     -0.33903659E-12      0.95390065E-08     -0.39085797E-19      0.40022088E-09     -0.23416521E-19
    0.596306297884         0.11400204E-05      0.95148881E-01     -0.33285799E-12      0.11274300E-07     -0.39440725E-19      0.47098862E-09     -0.23664087E-19
    0.602583206283         0.11837778E-05      0.10886456E+00     -0.32227196E-12      0.13255080E-07     -0.39239038E-19      0.55418955E-09     -0.23910387E-19
    0.608860114682         0.12287883E-05      0.13231684E+00     -0.31814688E-12      0.16550737E-07     -0.39795127E-19      0.65807701E-09     -0.24160177E-19
    0.615137023081         0.12750709E-05      0.16460409E+00     -0.30760352E-12      0.21146854E-07     -0.39518135E-19      0.79081388E-09     -0.24408229E-19
    0.621413931479         0.13226439E-05      0.27437217E+00     -0.31093435E-12      0.36194675E-07     -0.41017891E-19      0.10180045E-08     -0.24665694E-19
    0.627690839878         0.13715254E-05      0.79527698E+00     -0.31229150E-12      0.10770086E-06     -0.42292262E-19      0.16940330E-08     -0.24931159E-19
    0.633967748277         0.14217330E-05      0.12727147E+01     -0.36437923E-12      0.17689870E-06     -0.50646237E-19      0.28044099E-08     -0.25249061E-19
    0.640244656676         0.14732840E-05      0.89361877E+00     -0.31422972E-12      0.12744872E-06     -0.44815727E-19      0.36043938E-08     -0.25530365E-19
    0.646521565074         0.15261949E-05      0.25959763E+00     -0.27446364E-12      0.37981350E-07     -0.40156374E-19      0.38427992E-08     -0.25782423E-19
    0.652798473473         0.15804821E-05      0.54314903E-01     -0.26467208E-12      0.81502723E-08     -0.39715610E-19      0.38939578E-08     -0.26031714E-19
    0.659075381872         0.16361611E-05      0.57721051E-01     -0.25723025E-12      0.88811227E-08     -0.39578168E-19      0.39497038E-08     -0.26280142E-19
    0.665352290271         0.16932470E-05      0.73010568E-01     -0.25423049E-12      0.11515878E-07     -0.40099501E-19      0.40219879E-08     -0.26531843E-19
    0.671629198670         0.17517545E-05      0.87651760E-01     -0.24238947E-12      0.14169254E-07     -0.39183218E-19      0.41109270E-08     -0.26777793E-19
    0.677906107068         0.18116973E-05      0.10045499E+00     -0.24027971E-12      0.16639118E-07     -0.39799340E-19      0.42153692E-08     -0.27027610E-19
    0.684183015467         0.18730887E-05      0.19580722E+00     -0.23355698E-12      0.33224422E-07     -0.39629774E-19      0.44239158E-08     -0.27276362E-19
    0.690459923866         0.19359414E-05      0.30961064E+00     -0.22322322E-12      0.53803718E-07     -0.38791428E-19      0.47616369E-08     -0.27519852E-19
    0.696736832265         0.20002671E-05      0.22917775E+00     -0.22683987E-12      0.40778792E-07     -0.40362801E-19      0.50176016E-08     -0.27773206E-19
    0.703013740663         0.20660771E-05      0.99270026E-01     -0.21607104E-12      0.18081877E-07     -0.39356996E-19      0.51310999E-08     -0.28020246E-19
    0.709290649062         0.21333816E-05      0.90603415E-01     -0.21435997E-12      0.16890074E-07     -0.39960479E-19      0.52371173E-08     -0.28271074E-19
    0.715567557461         0.22021904E-05      0.11384631E+00     -0.20827961E-12      0.21715301E-07     -0.39727722E-19      0.53734223E-08     -0.28520442E-19
    0.721844465860         0.22725123E-05      0.11850234E+00     -0.20805804E-12      0.23122364E-07     -0.40596611E-19      0.55185592E-08     -0.28775263E-19
    0.728121374259         0.23443551E-05      0.11056151E+00     -0.20071254E-12      0.22063085E-07     -0.40053161E-19      0.56570472E-08     -0.29026673E-19
    0.734398282657         0.24177260E-05      0.10386035E+00     -0.20004666E-12      0.21191801E-07     -0.40817783E-19      0.57900662E-08     -0.29282882E-19
    0.740675191056         0.24926312E-05      0.10548099E+00     -0.19371924E-12      0.22001236E-07     -0.40405982E-19      0.59281659E-08     -0.29536507E-19
    0.746952099455         0.25690760E-05      0.11042169E+00     -0.18765061E-12      0.23538635E-07     -0.40001554E-19      0.60759158E-08     -0.29787593E-19
    0.753229007854         0.26470648E-05      0.11511741E+00     -0.18803327E-12      0.25073862E-07     -0.40955752E-19      0.62333021E-08     -0.30044669E-19
    0.759505916252         0.27266009E-05      0.10903954E+00     -0.17534575E-12      0.24261470E-07     -0.39014706E-19      0.63855892E-08     -0.30289560E-19
    0.765782824651         0.28076868E-05      0.10780363E+00     -0.17565176E-12      0.24497350E-07     -0.39915191E-19      0.65393568E-08     -0.30540104E-19
