 
 # eight columns.
 # Omega (column 1); |pulse ft|^2 (2); cross section (Mb) (3); flux (5); flux in
 tegral domega (7)
 
  0.0000      0.190004E-09      0.000000E+00      0.000000E+00     -0.983180E-10     -0.253307E-18     -0.617133E-12     -0.158998E-20
  0.0063      0.221602E-09     -0.450325E-01     -0.115858E-09     -0.985364E-10     -0.253510E-18     -0.123564E-11     -0.318124E-20
  0.0126      0.316496E-09     -0.206757E-01     -0.162353E-09     -0.323069E-10     -0.253686E-18     -0.143842E-11     -0.477361E-20
  0.0188      0.474996E-09     -0.130631E-01     -0.162083E-09     -0.204226E-10     -0.253398E-18     -0.156661E-11     -0.636417E-20
  0.0251      0.697615E-09     -0.941773E-02     -0.147132E-09     -0.162181E-10     -0.253373E-18     -0.166841E-11     -0.795457E-20
  0.0314      0.985073E-09     -0.619486E-02     -0.131078E-09     -0.120511E-10     -0.254992E-18     -0.174406E-11     -0.955513E-20
  0.0377      0.133830E-08     -0.731810E-02     -0.115083E-09     -0.161175E-10     -0.253460E-18     -0.184523E-11     -0.111461E-19
  0.0439      0.175843E-08     -0.810576E-02     -0.102116E-09     -0.201056E-10     -0.253290E-18     -0.197143E-11     -0.127359E-19
  0.0502      0.224681E-08     -0.590764E-02     -0.912851E-10     -0.163828E-10     -0.253147E-18     -0.207426E-11     -0.143249E-19
  0.0565      0.280500E-08     -0.413174E-02     -0.823640E-10     -0.127151E-10     -0.253469E-18     -0.215407E-11     -0.159159E-19
  0.0628      0.343477E-08     -0.370297E-02     -0.750374E-10     -0.125587E-10     -0.254491E-18     -0.223290E-11     -0.175133E-19
  0.0690      0.413811E-08     -0.332583E-02     -0.682044E-10     -0.123540E-10     -0.253349E-18     -0.231045E-11     -0.191036E-19
  0.0753      0.491724E-08     -0.288695E-02     -0.630705E-10     -0.116809E-10     -0.255190E-18     -0.238377E-11     -0.207054E-19
  0.0816      0.577457E-08     -0.250444E-02     -0.578202E-10     -0.109846E-10     -0.253602E-18     -0.245272E-11     -0.222972E-19
  0.0879      0.671277E-08     -0.230122E-02     -0.534328E-10     -0.108951E-10     -0.252975E-18     -0.252110E-11     -0.238851E-19
  0.0942      0.773471E-08     -0.211285E-02     -0.498788E-10     -0.107577E-10     -0.253960E-18     -0.258863E-11     -0.254792E-19
  0.1004      0.884350E-08     -0.209708E-02     -0.464117E-10     -0.114450E-10     -0.253296E-18     -0.266047E-11     -0.270691E-19
  0.1067      0.100425E-07     -0.206350E-02     -0.434558E-10     -0.120363E-10     -0.253477E-18     -0.273602E-11     -0.286602E-19
  0.1130      0.113353E-07     -0.208448E-02     -0.407719E-10     -0.129615E-10     -0.253524E-18     -0.281738E-11     -0.302515E-19
  0.1193      0.127257E-07     -0.208408E-02     -0.386290E-10     -0.137829E-10     -0.255469E-18     -0.290389E-11     -0.318551E-19
  0.1255      0.142178E-07     -0.214862E-02     -0.361885E-10     -0.150820E-10     -0.254021E-18     -0.299856E-11     -0.334496E-19
  0.1318      0.158160E-07     -0.218434E-02     -0.340917E-10     -0.162440E-10     -0.253525E-18     -0.310052E-11     -0.350409E-19
  0.1381      0.175247E-07     -0.227345E-02     -0.322806E-10     -0.178818E-10     -0.253902E-18     -0.321276E-11     -0.366346E-19
  0.1444      0.193489E-07     -0.232960E-02     -0.305115E-10     -0.193511E-10     -0.253448E-18     -0.333423E-11     -0.382255E-19
  0.1506      0.212936E-07     -0.230775E-02     -0.289783E-10     -0.202173E-10     -0.253867E-18     -0.346113E-11     -0.398190E-19
  0.1569      0.233642E-07     -0.227129E-02     -0.274427E-10     -0.209595E-10     -0.253242E-18     -0.359269E-11     -0.414086E-19
  0.1632      0.255664E-07     -0.230924E-02     -0.263196E-10     -0.224214E-10     -0.255548E-18     -0.373343E-11     -0.430126E-19
  0.1695      0.279061E-07     -0.232488E-02     -0.248265E-10     -0.237265E-10     -0.253366E-18     -0.388236E-11     -0.446030E-19
  0.1758      0.303895E-07     -0.236499E-02     -0.238238E-10     -0.253450E-10     -0.255313E-18     -0.404144E-11     -0.462056E-19
  0.1820      0.330230E-07     -0.238402E-02     -0.226305E-10     -0.268056E-10     -0.254454E-18     -0.420970E-11     -0.478027E-19
  0.1883      0.358136E-07     -0.231364E-02     -0.216143E-10     -0.272721E-10     -0.254780E-18     -0.438089E-11     -0.494020E-19
  0.1946      0.387682E-07     -0.224514E-02     -0.206475E-10     -0.277238E-10     -0.254964E-18     -0.455491E-11     -0.510024E-19
  0.2009      0.418942E-07     -0.236186E-02     -0.196867E-10     -0.305320E-10     -0.254492E-18     -0.474655E-11     -0.525998E-19
  0.2071      0.451994E-07     -0.245499E-02     -0.189333E-10     -0.332020E-10     -0.256060E-18     -0.495496E-11     -0.542070E-19
  0.2134      0.486917E-07     -0.248394E-02     -0.179579E-10     -0.351248E-10     -0.253939E-18     -0.517543E-11     -0.558010E-19
  0.2197      0.523794E-07     -0.250719E-02     -0.171658E-10     -0.370490E-10     -0.253661E-18     -0.540799E-11     -0.573932E-19
  0.2260      0.562712E-07     -0.254918E-02     -0.163446E-10     -0.393442E-10     -0.252263E-18     -0.565495E-11     -0.589766E-19
  0.2322      0.603761E-07     -0.258685E-02     -0.156883E-10     -0.416803E-10     -0.252776E-18     -0.591657E-11     -0.605633E-19
  0.2385      0.647032E-07     -0.261730E-02     -0.150611E-10     -0.440041E-10     -0.253219E-18     -0.619278E-11     -0.621527E-19
  0.2448      0.692623E-07     -0.265236E-02     -0.144264E-10     -0.465116E-10     -0.252981E-18     -0.648473E-11     -0.637406E-19
  0.2511      0.740633E-07     -0.270335E-02     -0.139118E-10     -0.494244E-10     -0.254345E-18     -0.679496E-11     -0.653372E-19
  0.2574      0.791164E-07     -0.274873E-02     -0.132570E-10     -0.523735E-10     -0.252595E-18     -0.712370E-11     -0.669227E-19
  0.2636      0.844322E-07     -0.279254E-02     -0.127624E-10     -0.554312E-10     -0.253331E-18     -0.747164E-11     -0.685128E-19
  0.2699      0.900218E-07     -0.284800E-02     -0.122572E-10     -0.588729E-10     -0.253377E-18     -0.784118E-11     -0.701032E-19
  0.2762      0.958965E-07     -0.291589E-02     -0.117615E-10     -0.627507E-10     -0.253111E-18     -0.823506E-11     -0.716920E-19
  0.2825      0.102068E-06     -0.299604E-02     -0.113482E-10     -0.670997E-10     -0.254157E-18     -0.865624E-11     -0.732873E-19
  0.2887      0.108548E-06     -0.309521E-02     -0.108643E-10     -0.721191E-10     -0.253141E-18     -0.910893E-11     -0.748762E-19
  0.2950      0.115349E-06     -0.321602E-02     -0.105192E-10     -0.779348E-10     -0.254915E-18     -0.959811E-11     -0.764763E-19
  0.3013      0.122484E-06     -0.342511E-02     -0.999946E-11     -0.862996E-10     -0.251948E-18     -0.101398E-10     -0.780578E-19
  0.3076      0.129965E-06     -0.369906E-02     -0.969631E-11     -0.968766E-10     -0.253942E-18     -0.107479E-10     -0.796517E-19
  0.3138      0.137807E-06     -0.445463E-02     -0.931218E-11     -0.121230E-09     -0.253425E-18     -0.115088E-10     -0.812425E-19
  0.3201      0.146023E-06     -0.278916E-02     -0.899336E-11     -0.788533E-10     -0.254255E-18     -0.120038E-10     -0.828384E-19
  0.3264      0.154626E-06      0.956045E-03     -0.869225E-11      0.280709E-10     -0.255217E-18     -0.118276E-10     -0.844404E-19
  0.3327      0.163633E-06      0.523620E-03     -0.828876E-11      0.159627E-10     -0.252686E-18     -0.117274E-10     -0.860265E-19
  0.3390      0.173056E-06     -0.178468E-02     -0.804430E-11     -0.564742E-10     -0.254553E-18     -0.120819E-10     -0.876243E-19
  0.3452      0.182912E-06     -0.234162E-02     -0.768998E-11     -0.768939E-10     -0.252523E-18     -0.125645E-10     -0.892093E-19
  0.3515      0.193215E-06     -0.245989E-02     -0.744101E-11     -0.838042E-10     -0.253503E-18     -0.130906E-10     -0.908005E-19
  0.3578      0.203983E-06     -0.253957E-02     -0.716583E-11     -0.897380E-10     -0.253211E-18     -0.136539E-10     -0.923899E-19
  0.3641      0.215230E-06     -0.248764E-02     -0.690803E-11     -0.911503E-10     -0.253119E-18     -0.142260E-10     -0.939787E-19
  0.3703      0.226973E-06     -0.244817E-02     -0.669831E-11     -0.929950E-10     -0.254439E-18     -0.148097E-10     -0.955758E-19
  0.3766      0.239229E-06     -0.268274E-02     -0.641616E-11     -0.105618E-09     -0.252601E-18     -0.154727E-10     -0.971614E-19
  0.3829      0.252016E-06     -0.286051E-02     -0.623892E-11     -0.116691E-09     -0.254509E-18     -0.162051E-10     -0.987589E-19
  0.3892      0.265349E-06     -0.292993E-02     -0.599434E-11     -0.123817E-09     -0.253317E-18     -0.169823E-10     -0.100349E-18
  0.3954      0.279249E-06     -0.294395E-02     -0.580141E-11     -0.128848E-09     -0.253911E-18     -0.177911E-10     -0.101943E-18
  0.4017      0.293731E-06     -0.304904E-02     -0.559093E-11     -0.138175E-09     -0.253367E-18     -0.186584E-10     -0.103533E-18
  0.4080      0.308815E-06     -0.301434E-02     -0.541411E-11     -0.141408E-09     -0.253985E-18     -0.195460E-10     -0.105127E-18
  0.4143      0.324519E-06     -0.311070E-02     -0.525793E-11     -0.151026E-09     -0.255275E-18     -0.204940E-10     -0.106730E-18
  0.4206      0.340861E-06     -0.287613E-02     -0.502595E-11     -0.144480E-09     -0.252475E-18     -0.214009E-10     -0.108314E-18
  0.4268      0.357862E-06     -0.300642E-02     -0.490558E-11     -0.156226E-09     -0.254914E-18     -0.223815E-10     -0.109915E-18
  0.4331      0.375540E-06     -0.220790E-02     -0.469607E-11     -0.118654E-09     -0.252371E-18     -0.231263E-10     -0.111499E-18
  0.4394      0.393915E-06     -0.253252E-02     -0.457161E-11     -0.140720E-09     -0.254021E-18     -0.240095E-10     -0.113093E-18
  0.4457      0.413007E-06      0.807899E-03     -0.441398E-11      0.464038E-10     -0.253528E-18     -0.237183E-10     -0.114684E-18
  0.4519      0.432835E-06     -0.228339E-02     -0.427409E-11     -0.135540E-09     -0.253706E-18     -0.245690E-10     -0.116277E-18
  0.4582      0.453421E-06      0.595560E-01     -0.415911E-11      0.365259E-08     -0.255079E-18     -0.164208E-11     -0.117878E-18
  0.4645      0.474783E-06      0.172606E+00     -0.399518E-11      0.109349E-07     -0.253103E-18      0.669953E-10     -0.119467E-18
  0.4708      0.496943E-06      0.112106E+00     -0.388610E-11      0.733454E-08     -0.254247E-18      0.113034E-09     -0.121063E-18
  0.4770      0.519922E-06     -0.111466E-01     -0.374357E-11     -0.752944E-09     -0.252876E-18      0.108307E-09     -0.122650E-18
  0.4833      0.543740E-06     -0.272725E-01     -0.363674E-11     -0.190161E-08     -0.253577E-18      0.963711E-10     -0.124242E-18
  0.4896      0.568418E-06     -0.216289E-01     -0.352064E-11     -0.155634E-08     -0.253333E-18      0.866021E-10     -0.125832E-18
  0.4959      0.593978E-06     -0.265176E-01     -0.342566E-11     -0.196868E-08     -0.254322E-18      0.742450E-10     -0.127428E-18
  0.5022      0.620439E-06     -0.270090E-01     -0.332002E-11     -0.206831E-08     -0.254242E-18      0.612624E-10     -0.129024E-18
  0.5084      0.647825E-06      0.708603E-01     -0.319449E-11      0.559593E-08     -0.252273E-18      0.963875E-10     -0.130607E-18
  0.5147      0.676155E-06      0.778626E+00     -0.312670E-11      0.633954E-07     -0.254575E-18      0.494315E-09     -0.132205E-18
  0.5210      0.705451E-06      0.159042E+01     -0.308059E-11      0.133474E-06     -0.258535E-18      0.133212E-08     -0.133828E-18
  0.5273      0.735734E-06      0.149746E+01     -0.296960E-11      0.129507E-06     -0.256825E-18      0.214502E-08     -0.135440E-18
  0.5335      0.767026E-06      0.140579E+01     -0.284827E-11      0.125259E-06     -0.253787E-18      0.293126E-08     -0.137033E-18
  0.5398      0.799348E-06      0.187745E+01     -0.283815E-11      0.172307E-06     -0.260477E-18      0.401282E-08     -0.138668E-18
  0.5461      0.832720E-06      0.240149E+01     -0.273318E-11      0.226964E-06     -0.258312E-18      0.543745E-08     -0.140290E-18
  0.5524      0.867164E-06      0.269358E+01     -0.273202E-11      0.262087E-06     -0.265827E-18      0.708254E-08     -0.141958E-18
  0.5586      0.902701E-06      0.289960E+01     -0.262401E-11      0.290394E-06     -0.262794E-18      0.890532E-08     -0.143608E-18
  0.5649      0.939351E-06      0.304090E+01     -0.266344E-11      0.313390E-06     -0.274489E-18      0.108724E-07     -0.145331E-18
  0.5712      0.977135E-06      0.325215E+01     -0.253724E-11      0.344810E-06     -0.269012E-18      0.130368E-07     -0.147019E-18
  0.5775      0.101607E-05      0.352543E+01     -0.260666E-11      0.384456E-06     -0.284263E-18      0.154500E-07     -0.148804E-18
  0.5838      0.105619E-05      0.397102E+01     -0.227646E-11      0.445304E-06     -0.255279E-18      0.182451E-07     -0.150406E-18
  0.5900      0.109750E-05      0.446094E+01     -0.213233E-11      0.514279E-06     -0.245825E-18      0.214732E-07     -0.151949E-18
  0.5963      0.114002E-05      0.512914E+01     -0.222566E-11      0.607758E-06     -0.263721E-18      0.252880E-07     -0.153604E-18
  0.6026      0.118378E-05      0.585227E+01     -0.208430E-11      0.712557E-06     -0.253779E-18      0.297607E-07     -0.155197E-18
  0.6089      0.122879E-05      0.711633E+01     -0.226813E-11      0.890140E-06     -0.283707E-18      0.353480E-07     -0.156978E-18
  0.6151      0.127507E-05      0.880039E+01     -0.208608E-11      0.113060E-05     -0.268001E-18      0.424447E-07     -0.158660E-18
  0.6214      0.132264E-05      0.147878E+02     -0.264421E-11      0.195078E-05     -0.348820E-18      0.546895E-07     -0.160850E-18
  0.6277      0.137153E-05      0.422792E+02     -0.306798E-11      0.572569E-05     -0.415483E-18      0.906292E-07     -0.163458E-18
  0.6340      0.142173E-05      0.673579E+02     -0.617244E-11      0.936229E-05     -0.857928E-18      0.149395E-06     -0.168843E-18
  0.6402      0.147328E-05      0.482997E+02     -0.388111E-11      0.688855E-05     -0.553528E-18      0.192634E-06     -0.172317E-18
  0.6465      0.152619E-05      0.151024E+02     -0.208790E-11      0.220960E-05     -0.305478E-18      0.206504E-06     -0.174235E-18
  0.6528      0.158048E-05      0.360687E+01     -0.188865E-11      0.541232E-06     -0.283403E-18      0.209901E-06     -0.176014E-18
  0.6591      0.163616E-05      0.364072E+01     -0.177949E-11      0.560171E-06     -0.273798E-18      0.213417E-06     -0.177732E-18
  0.6654      0.169325E-05      0.451604E+01     -0.193780E-11      0.712309E-06     -0.305647E-18      0.217888E-06     -0.179651E-18
  0.6716      0.175175E-05      0.544917E+01     -0.154571E-11      0.880880E-06     -0.249869E-18      0.223417E-06     -0.181219E-18
  0.6779      0.181170E-05      0.661801E+01     -0.174171E-11      0.109619E-05     -0.288492E-18      0.230298E-06     -0.183030E-18
  0.6842      0.187309E-05      0.154488E+02     -0.166209E-11      0.262134E-05     -0.282021E-18      0.246752E-06     -0.184800E-18
  0.6905      0.193594E-05      0.309843E+02     -0.120242E-11      0.538441E-05     -0.208955E-18      0.280549E-06     -0.186112E-18
  0.6967      0.200027E-05      0.335704E+02     -0.234411E-11      0.597335E-05     -0.417101E-18      0.318044E-06     -0.188730E-18
  0.7030      0.206608E-05      0.244281E+02     -0.155423E-11      0.444953E-05     -0.283100E-18      0.345973E-06     -0.190507E-18
  0.7093      0.213338E-05      0.238577E+02     -0.237630E-11      0.444750E-05     -0.442984E-18      0.373889E-06     -0.193287E-18
  0.7156      0.220219E-05      0.349178E+02     -0.209202E-11      0.666030E-05     -0.399036E-18      0.415696E-06     -0.195792E-18
  0.7218      0.227251E-05      0.458305E+02     -0.396853E-11      0.894253E-05     -0.774346E-18      0.471827E-06     -0.200653E-18
  0.7281      0.234436E-05      0.469931E+02     -0.302647E-11      0.937770E-05     -0.603946E-18      0.530690E-06     -0.204444E-18
  0.7344      0.241773E-05      0.434054E+02     -0.445574E-11      0.885649E-05     -0.909155E-18      0.586281E-06     -0.210150E-18
  0.7407      0.249263E-05      0.423122E+02     -0.345393E-11      0.882548E-05     -0.720422E-18      0.641678E-06     -0.214672E-18
  0.7470      0.256908E-05      0.431483E+02     -0.257767E-11      0.919794E-05     -0.549483E-18      0.699413E-06     -0.218121E-18
  0.7532      0.264706E-05      0.463744E+02     -0.432507E-11      0.101009E-04     -0.942049E-18      0.762815E-06     -0.224035E-18
  0.7595      0.272660E-05      0.466994E+02     -0.688281E-12      0.103907E-04     -0.153144E-18      0.828036E-06     -0.224996E-18
  0.7658      0.280769E-05      0.406247E+02     -0.220450E-11      0.923157E-05     -0.500952E-18      0.885982E-06     -0.228140E-18
  0.7721      0.289032E-05      0.391637E+02     -0.132237E-11      0.908704E-05     -0.306826E-18      0.943021E-06     -0.230066E-18
  0.7783      0.297451E-05      0.434827E+02     -0.292090E-11      0.102993E-04     -0.691842E-18      0.100767E-05     -0.234409E-18
  0.7846      0.306025E-05      0.451470E+02     -0.202099E-11      0.109137E-04     -0.488550E-18      0.107617E-05     -0.237475E-18
  0.7909      0.314754E-05      0.455243E+02     -0.366620E-11      0.112290E-04     -0.904302E-18      0.114666E-05     -0.243152E-18
  0.7972      0.323638E-05      0.459924E+02     -0.271308E-11      0.115728E-04     -0.682675E-18      0.121930E-05     -0.247437E-18
  0.8034      0.332675E-05      0.461965E+02     -0.173141E-11      0.118554E-04     -0.444332E-18      0.129371E-05     -0.250226E-18
  0.8097      0.341867E-05      0.462406E+02     -0.340223E-11      0.121001E-04     -0.890282E-18      0.136966E-05     -0.255814E-18
  0.8160      0.351211E-05      0.459669E+02     -0.240550E-11      0.122622E-04     -0.641693E-18      0.144663E-05     -0.259842E-18
  0.8223      0.360708E-05      0.454806E+02     -0.404008E-11      0.123654E-04     -0.109843E-17      0.152425E-05     -0.266737E-18
  0.8286      0.370356E-05      0.447361E+02     -0.301891E-11      0.123937E-04     -0.836358E-18      0.160204E-05     -0.271986E-18
  0.8348      0.380155E-05      0.438630E+02     -0.453581E-11      0.123795E-04     -0.128015E-17      0.167975E-05     -0.280022E-18
  0.8411      0.390103E-05      0.428275E+02     -0.354357E-11      0.123110E-04     -0.101862E-17      0.175702E-05     -0.286415E-18
  0.8474      0.400200E-05      0.417205E+02     -0.495556E-11      0.122121E-04     -0.145055E-17      0.183368E-05     -0.295520E-18
  0.8537      0.410443E-05      0.405008E+02     -0.168831E-11      0.120691E-04     -0.503109E-18      0.190943E-05     -0.298678E-18
  0.8599      0.420832E-05      0.392280E+02     -0.830257E-12      0.118982E-04     -0.251824E-18      0.198412E-05     -0.300259E-18
  0.8662      0.431364E-05      0.378769E+02     -0.220485E-11      0.116906E-04     -0.680518E-18      0.205750E-05     -0.304531E-18
  0.8725      0.442038E-05      0.364926E+02     -0.137038E-11      0.114590E-04     -0.430312E-18      0.212943E-05     -0.307232E-18
  0.8788      0.452853E-05      0.350733E+02     -0.258819E-11      0.112022E-04     -0.826652E-18      0.219974E-05     -0.312420E-18
  0.8850      0.463805E-05      0.336437E+02     -0.180134E-11      0.109274E-04     -0.585073E-18      0.226833E-05     -0.316093E-18
  0.8913      0.474894E-05      0.322157E+02     -0.290013E-11      0.106383E-04     -0.957687E-18      0.233511E-05     -0.322104E-18
  0.8976      0.486117E-05      0.307731E+02     -0.216555E-11      0.103293E-04     -0.726893E-18      0.239994E-05     -0.326667E-18
  0.9039      0.497470E-05      0.293305E+02     -0.147489E-11      0.100051E-04     -0.503109E-18      0.246274E-05     -0.329825E-18
  0.9102      0.508953E-05      0.277755E+02     -0.244272E-11      0.962651E-05     -0.846604E-18      0.252317E-05     -0.335139E-18
  0.9164      0.520562E-05      0.260790E+02     -0.177367E-11      0.918136E-05     -0.624438E-18      0.258080E-05     -0.339058E-18
