 
 # eight columns.
 # Omega (column 1); |pulse ft|^2 (2); cross section (Mb) (3); flux (5); flux in
 tegral domega (7)
 
  0.0000      0.237334E-09      0.000000E+00      0.000000E+00      0.986208E-07     -0.127055E-18      0.492611E-10     -0.634640E-22
  0.0063      0.268472E-09      0.270863E+01     -0.384421E-11      0.902308E-07     -0.128060E-18      0.943315E-10     -0.127430E-21
  0.0126      0.361985E-09      0.356170E+01     -0.550637E-11      0.799878E-07     -0.123661E-18      0.134285E-09     -0.189199E-21
  0.0188      0.518176E-09      0.366837E+01     -0.599870E-11      0.786205E-07     -0.128564E-18      0.173556E-09     -0.253416E-21
  0.0251      0.737552E-09      0.344230E+01     -0.553659E-11      0.787568E-07     -0.126672E-18      0.212895E-09     -0.316689E-21
  0.0314      0.102082E-08      0.312788E+01     -0.519316E-11      0.792385E-07     -0.131558E-18      0.252475E-09     -0.382403E-21
  0.0377      0.136890E-08      0.282392E+01     -0.426478E-11      0.799426E-07     -0.120732E-18      0.292407E-09     -0.442708E-21
  0.0439      0.178290E-08      0.255373E+01     -0.381037E-11      0.807068E-07     -0.120421E-18      0.332720E-09     -0.502859E-21
  0.0502      0.226414E-08      0.232233E+01     -0.386816E-11      0.815539E-07     -0.135839E-18      0.373456E-09     -0.570710E-21
  0.0565      0.281418E-08      0.212441E+01     -0.330590E-11      0.824241E-07     -0.128264E-18      0.414627E-09     -0.634779E-21
  0.0628      0.343474E-08      0.195546E+01     -0.286623E-11      0.833393E-07     -0.122155E-18      0.456255E-09     -0.695795E-21
  0.0690      0.412779E-08      0.180977E+01     -0.270347E-11      0.842666E-07     -0.125879E-18      0.498346E-09     -0.758672E-21
  0.0753      0.489549E-08      0.168426E+01     -0.259900E-11      0.852571E-07     -0.131561E-18      0.540932E-09     -0.824386E-21
  0.0816      0.574024E-08      0.157440E+01     -0.215040E-11      0.862601E-07     -0.117818E-18      0.584019E-09     -0.883237E-21
  0.0879      0.666466E-08      0.147769E+01     -0.220248E-11      0.872853E-07     -0.130097E-18      0.627618E-09     -0.948220E-21
  0.0942      0.767157E-08      0.139189E+01     -0.203118E-11      0.883292E-07     -0.128899E-18      0.671738E-09     -0.101261E-20
  0.1004      0.876404E-08      0.131550E+01     -0.180172E-11      0.894094E-07     -0.122456E-18      0.716398E-09     -0.107377E-20
  0.1067      0.994536E-08      0.124681E+01     -0.167834E-11      0.905060E-07     -0.121831E-18      0.761606E-09     -0.113463E-20
  0.1130      0.112191E-07      0.118497E+01     -0.159892E-11      0.916428E-07     -0.123657E-18      0.807382E-09     -0.119639E-20
  0.1193      0.125889E-07      0.112872E+01     -0.167490E-11      0.927956E-07     -0.137699E-18      0.853733E-09     -0.126517E-20
  0.1255      0.140589E-07      0.107762E+01     -0.137515E-11      0.939932E-07     -0.119944E-18      0.900683E-09     -0.132509E-20
  0.1318      0.156334E-07      0.103072E+01     -0.141943E-11      0.952093E-07     -0.131116E-18      0.948240E-09     -0.139058E-20
  0.1381      0.173167E-07      0.987703E+00     -0.130788E-11      0.964665E-07     -0.127737E-18      0.996425E-09     -0.145438E-20
  0.1444      0.191138E-07      0.947930E+00     -0.125597E-11      0.977466E-07     -0.129510E-18      0.104525E-08     -0.151907E-20
  0.1506      0.210295E-07      0.911166E+00     -0.114759E-11      0.990655E-07     -0.124770E-18      0.109473E-08     -0.158140E-20
  0.1569      0.230693E-07      0.876947E+00     -0.113535E-11      0.100409E-06     -0.129996E-18      0.114489E-08     -0.164633E-20
  0.1632      0.252386E-07      0.845204E+00     -0.115412E-11      0.101803E-06     -0.139011E-18      0.119574E-08     -0.171577E-20
  0.1695      0.275433E-07      0.815488E+00     -0.886399E-12      0.103223E-06     -0.112199E-18      0.124730E-08     -0.177181E-20
  0.1758      0.299895E-07      0.787756E+00     -0.106344E-11      0.104691E-06     -0.141329E-18      0.129959E-08     -0.184240E-20
  0.1820      0.325836E-07      0.761677E+00     -0.993785E-12      0.106189E-06     -0.138548E-18      0.135263E-08     -0.191161E-20
  0.1883      0.353322E-07      0.737286E+00     -0.938477E-12      0.107744E-06     -0.137145E-18      0.140645E-08     -0.198011E-20
  0.1946      0.382423E-07      0.714263E+00     -0.884788E-12      0.109332E-06     -0.135434E-18      0.146106E-08     -0.204776E-20
  0.2009      0.413213E-07      0.692611E+00     -0.854805E-12      0.110974E-06     -0.136961E-18      0.151649E-08     -0.211617E-20
  0.2071      0.445766E-07      0.672121E+00     -0.930848E-12      0.112654E-06     -0.156019E-18      0.157276E-08     -0.219411E-20
  0.2134      0.480162E-07      0.652825E+00     -0.762940E-12      0.114396E-06     -0.133692E-18      0.162991E-08     -0.226088E-20
  0.2197      0.516482E-07      0.634511E+00     -0.676879E-12      0.116181E-06     -0.123938E-18      0.168794E-08     -0.232279E-20
  0.2260      0.554811E-07      0.617231E+00     -0.636675E-12      0.118031E-06     -0.121749E-18      0.174689E-08     -0.238361E-20
  0.2322      0.595238E-07      0.600802E+00     -0.593815E-12      0.119930E-06     -0.118535E-18      0.180680E-08     -0.244281E-20
  0.2385      0.637853E-07      0.585267E+00     -0.566116E-12      0.121898E-06     -0.117910E-18      0.186769E-08     -0.250171E-20
  0.2448      0.682751E-07      0.570480E+00     -0.530560E-12      0.123921E-06     -0.115249E-18      0.192959E-08     -0.255928E-20
  0.2511      0.730031E-07      0.556488E+00     -0.587337E-12      0.126021E-06     -0.133007E-18      0.199253E-08     -0.262571E-20
  0.2574      0.779793E-07      0.543156E+00     -0.478878E-12      0.128182E-06     -0.113013E-18      0.205656E-08     -0.268216E-20
  0.2636      0.832142E-07      0.530537E+00     -0.531083E-12      0.130428E-06     -0.130562E-18      0.212171E-08     -0.274738E-20
  0.2699      0.887186E-07      0.518506E+00     -0.531745E-12      0.132741E-06     -0.136131E-18      0.218801E-08     -0.281538E-20
  0.2762      0.945035E-07      0.507121E+00     -0.503106E-12      0.135149E-06     -0.134079E-18      0.225552E-08     -0.288235E-20
  0.2825      0.100581E-06      0.496261E+00     -0.423073E-12      0.137632E-06     -0.117334E-18      0.232427E-08     -0.294096E-20
  0.2887      0.106962E-06      0.486017E+00     -0.425436E-12      0.140226E-06     -0.122747E-18      0.239431E-08     -0.300227E-20
  0.2950      0.113659E-06      0.476244E+00     -0.460468E-12      0.142903E-06     -0.138169E-18      0.246569E-08     -0.307129E-20
  0.3013      0.120684E-06      0.467035E+00     -0.374927E-12      0.145702E-06     -0.116967E-18      0.253847E-08     -0.312971E-20
  0.3076      0.128051E-06      0.458251E+00     -0.405677E-12      0.148593E-06     -0.131545E-18      0.261269E-08     -0.319542E-20
  0.3138      0.135773E-06      0.450029E+00     -0.389766E-12      0.151632E-06     -0.131327E-18      0.268843E-08     -0.326102E-20
  0.3201      0.143862E-06      0.442184E+00     -0.384744E-12      0.154770E-06     -0.134665E-18      0.276574E-08     -0.332828E-20
  0.3264      0.152334E-06      0.434887E+00     -0.356964E-12      0.158080E-06     -0.129755E-18      0.284470E-08     -0.339309E-20
  0.3327      0.161201E-06      0.427917E+00     -0.347786E-12      0.161495E-06     -0.131254E-18      0.292537E-08     -0.345865E-20
  0.3390      0.170480E-06      0.421542E+00     -0.395302E-12      0.165131E-06     -0.154852E-18      0.300785E-08     -0.353600E-20
  0.3452      0.180184E-06      0.415422E+00     -0.269614E-12      0.168869E-06     -0.109598E-18      0.309220E-08     -0.359075E-20
  0.3515      0.190329E-06      0.409965E+00     -0.295158E-12      0.172890E-06     -0.124474E-18      0.317856E-08     -0.365292E-20
  0.3578      0.200931E-06      0.404641E+00     -0.284472E-12      0.176990E-06     -0.124428E-18      0.326696E-08     -0.371507E-20
  0.3641      0.212004E-06      0.400234E+00     -0.297410E-12      0.181526E-06     -0.134890E-18      0.335764E-08     -0.378245E-20
  0.3703      0.223567E-06      0.395618E+00     -0.284781E-12      0.186010E-06     -0.133897E-18      0.345055E-08     -0.384933E-20
  0.3766      0.235634E-06      0.392844E+00     -0.252614E-12      0.191431E-06     -0.123098E-18      0.354617E-08     -0.391082E-20
  0.3829      0.248223E-06      0.384992E+00     -0.274571E-12      0.194389E-06     -0.138635E-18      0.364327E-08     -0.398007E-20
  0.3892      0.261351E-06      0.376652E+00     -0.227656E-12      0.197006E-06     -0.119074E-18      0.374167E-08     -0.403955E-20
  0.3954      0.275036E-06      0.378489E+00     -0.258690E-12      0.205026E-06     -0.140131E-18      0.384408E-08     -0.410954E-20
  0.4017      0.289294E-06      0.379332E+00     -0.250268E-12      0.212758E-06     -0.140369E-18      0.395035E-08     -0.417966E-20
  0.4080      0.304145E-06      0.377701E+00     -0.228557E-12      0.219292E-06     -0.132700E-18      0.405989E-08     -0.424594E-20
  0.4143      0.319606E-06      0.377631E+00     -0.218435E-12      0.226906E-06     -0.131250E-18      0.417323E-08     -0.431150E-20
  0.4206      0.335697E-06      0.376979E+00     -0.202367E-12      0.234367E-06     -0.125811E-18      0.429030E-08     -0.437434E-20
  0.4268      0.352435E-06      0.378261E+00     -0.208711E-12      0.243259E-06     -0.134222E-18      0.441180E-08     -0.444139E-20
  0.4331      0.369839E-06      0.378701E+00     -0.187616E-12      0.251864E-06     -0.124779E-18      0.453761E-08     -0.450371E-20
  0.4394      0.387930E-06      0.382191E+00     -0.196866E-12      0.262810E-06     -0.135373E-18      0.466889E-08     -0.457133E-20
  0.4457      0.406726E-06      0.383652E+00     -0.203177E-12      0.272702E-06     -0.144419E-18      0.480510E-08     -0.464347E-20
  0.4519      0.426248E-06      0.390955E+00     -0.184477E-12      0.287186E-06     -0.135512E-18      0.494855E-08     -0.471116E-20
  0.4582      0.446515E-06      0.392489E+00     -0.174573E-12      0.297884E-06     -0.132494E-18      0.509734E-08     -0.477734E-20
  0.4645      0.467546E-06      0.409322E+00     -0.157305E-12      0.320897E-06     -0.123323E-18      0.525763E-08     -0.483894E-20
  0.4708      0.489364E-06      0.402883E+00     -0.173117E-12      0.326179E-06     -0.140157E-18      0.542056E-08     -0.490895E-20
  0.4770      0.511987E-06      0.537051E+00     -0.143639E-12      0.448918E-06     -0.120067E-18      0.564479E-08     -0.496892E-20
  0.4833      0.535436E-06      0.689891E+00     -0.156059E-12      0.595256E-06     -0.134652E-18      0.594212E-08     -0.503618E-20
  0.4896      0.559732E-06      0.574053E+00     -0.161539E-12      0.511145E-06     -0.143837E-18      0.619744E-08     -0.510803E-20
  0.4959      0.584895E-06      0.543876E+00     -0.152451E-12      0.499641E-06     -0.140052E-18      0.644701E-08     -0.517798E-20
  0.5022      0.610947E-06      0.628026E+00     -0.168971E-12      0.595111E-06     -0.160116E-18      0.674427E-08     -0.525796E-20
  0.5084      0.637908E-06      0.748130E+00     -0.130264E-12      0.731067E-06     -0.127293E-18      0.710944E-08     -0.532154E-20
  0.5147      0.665800E-06      0.149892E+01     -0.143610E-12      0.151013E-05     -0.144684E-18      0.786375E-08     -0.539381E-20
  0.5210      0.694642E-06      0.373010E+01     -0.265090E-12      0.387356E-05     -0.275286E-18      0.979859E-08     -0.553132E-20
  0.5273      0.724456E-06      0.464419E+01     -0.202629E-12      0.496992E-05     -0.216840E-18      0.122811E-07     -0.563963E-20
  0.5335      0.755263E-06      0.364242E+01     -0.114088E-12      0.401583E-05     -0.125784E-18      0.142870E-07     -0.570246E-20
  0.5398      0.787084E-06      0.390085E+01     -0.252668E-12      0.442984E-05     -0.286932E-18      0.164997E-07     -0.584578E-20
  0.5461      0.819939E-06      0.502314E+01     -0.176372E-12      0.587414E-05     -0.206253E-18      0.194338E-07     -0.594881E-20
  0.5524      0.853850E-06      0.619299E+01     -0.406300E-12      0.745600E-05     -0.489162E-18      0.231581E-07     -0.619314E-20
  0.5586      0.888836E-06      0.718890E+01     -0.323655E-12      0.890842E-05     -0.401070E-18      0.276079E-07     -0.639348E-20
  0.5649      0.924918E-06      0.797198E+01     -0.614433E-12      0.101656E-04     -0.783505E-18      0.326856E-07     -0.678484E-20
  0.5712      0.962117E-06      0.973527E+01     -0.529445E-12      0.127715E-04     -0.694567E-18      0.390650E-07     -0.713177E-20
  0.5775      0.100045E-05      0.127173E+02     -0.112116E-11      0.171597E-04     -0.151280E-17      0.476363E-07     -0.788742E-20
  0.5838      0.103995E-05      0.206285E+02     -0.151397E-12      0.286222E-04     -0.210064E-18      0.619330E-07     -0.799235E-20
  0.5900      0.108061E-05      0.362752E+02      0.545122E-12      0.517439E-04      0.777576E-18      0.877792E-07     -0.760395E-20
  0.5963      0.112248E-05      0.382256E+02     -0.792671E-12      0.560423E-04     -0.116213E-17      0.115772E-06     -0.818443E-20
  0.6026      0.116556E-05      0.195349E+02     -0.573497E-13      0.294293E-04     -0.863974E-19      0.130472E-06     -0.822759E-20
  0.6089      0.120987E-05      0.604302E+01     -0.278029E-12      0.935252E-05     -0.430293E-18      0.135144E-06     -0.844252E-20
  0.6151      0.125544E-05      0.348494E+01     -0.119897E-12      0.553950E-05     -0.190582E-18      0.137911E-06     -0.853771E-20
  0.6214      0.130227E-05      0.293370E+01     -0.216273E-12      0.478840E-05     -0.353001E-18      0.140303E-06     -0.871404E-20
  0.6277      0.135040E-05      0.299318E+01     -0.156203E-12      0.501536E-05     -0.261733E-18      0.142808E-06     -0.884477E-20
  0.6340      0.139983E-05      0.386683E+01     -0.320150E-12      0.664991E-05     -0.550571E-18      0.146129E-06     -0.911978E-20
  0.6402      0.145058E-05      0.485427E+01     -0.271927E-12      0.856589E-05     -0.479844E-18      0.150408E-06     -0.935947E-20
  0.6465      0.150267E-05      0.599989E+01     -0.212667E-12      0.108612E-04     -0.384976E-18      0.155833E-06     -0.955176E-20
  0.6528      0.155612E-05      0.576149E+01     -0.401026E-12      0.106967E-04     -0.744542E-18      0.161176E-06     -0.992366E-20
  0.6591      0.161094E-05      0.876946E+01     -0.397334E-12      0.166943E-04     -0.756400E-18      0.169515E-06     -0.103015E-19
  0.6654      0.166714E-05      0.144449E+02     -0.113805E-11      0.281894E-04     -0.222092E-17      0.183596E-06     -0.114108E-19
  0.6716      0.172474E-05      0.115626E+02     -0.220220E-13      0.231260E-04     -0.440457E-19      0.195147E-06     -0.114328E-19
  0.6779      0.178376E-05      0.620734E+01     -0.265349E-12      0.127211E-04     -0.543795E-18      0.201501E-06     -0.117045E-19
  0.6842      0.184420E-05      0.687638E+01     -0.135163E-12      0.144360E-04     -0.283756E-18      0.208712E-06     -0.118462E-19
  0.6905      0.190608E-05      0.129310E+02      0.441229E-13      0.278028E-04      0.948677E-19      0.222600E-06     -0.117988E-19
  0.6967      0.196941E-05      0.200507E+02     -0.606369E-12      0.441417E-04     -0.133492E-17      0.244648E-06     -0.124656E-19
  0.7030      0.203420E-05      0.201421E+02     -0.188678E-12      0.453927E-04     -0.425211E-18      0.267322E-06     -0.126780E-19
  0.7093      0.210046E-05      0.172661E+02     -0.793251E-12      0.398233E-04     -0.182959E-17      0.287214E-06     -0.135919E-19
  0.7156      0.216821E-05      0.172844E+02     -0.430704E-12      0.407902E-04     -0.101644E-17      0.307589E-06     -0.140996E-19
  0.7218      0.223744E-05      0.185920E+02     -0.113470E-11      0.448834E-04     -0.273930E-17      0.330008E-06     -0.154679E-19
  0.7281      0.230817E-05      0.196686E+02     -0.782200E-12      0.485614E-04     -0.193124E-17      0.354264E-06     -0.164325E-19
  0.7344      0.238041E-05      0.198500E+02     -0.151927E-11      0.501110E-04     -0.383537E-17      0.379295E-06     -0.183483E-19
  0.7407      0.245416E-05      0.197150E+02     -0.108709E-11      0.508772E-04     -0.280537E-17      0.404708E-06     -0.197496E-19
  0.7470      0.252942E-05      0.195432E+02     -0.674433E-12      0.515437E-04     -0.177877E-17      0.430454E-06     -0.206381E-19
  0.7532      0.260620E-05      0.195312E+02     -0.138299E-11      0.526335E-04     -0.372694E-17      0.456745E-06     -0.224997E-19
  0.7595      0.268451E-05      0.196644E+02      0.145230E-12      0.541335E-04      0.399800E-18      0.483784E-06     -0.223000E-19
  0.7658      0.276434E-05      0.198532E+02     -0.576036E-12      0.558173E-04     -0.161953E-17      0.511665E-06     -0.231089E-19
  0.7721      0.284570E-05      0.200430E+02     -0.160512E-12      0.575379E-04     -0.460786E-18      0.540405E-06     -0.233391E-19
  0.7783      0.292859E-05      0.201717E+02     -0.899490E-12      0.591133E-04     -0.263597E-17      0.569932E-06     -0.246558E-19
  0.7846      0.301301E-05      0.202555E+02     -0.472389E-12      0.605813E-04     -0.141285E-17      0.600193E-06     -0.253615E-19
  0.7909      0.309895E-05      0.203071E+02     -0.121902E-11      0.619725E-04     -0.372017E-17      0.631148E-06     -0.272197E-19
  0.7972      0.318641E-05      0.203464E+02     -0.799914E-12      0.633419E-04     -0.249028E-17      0.662787E-06     -0.284636E-19
  0.8034      0.327539E-05      0.204012E+02     -0.373481E-12      0.647764E-04     -0.118585E-17      0.695143E-06     -0.290559E-19
  0.8097      0.336589E-05      0.204579E+02     -0.111767E-11      0.662336E-04     -0.361852E-17      0.728227E-06     -0.308634E-19
  0.8160      0.345789E-05      0.205362E+02     -0.693957E-12      0.677789E-04     -0.229038E-17      0.762083E-06     -0.320074E-19
  0.8223      0.355139E-05      0.206044E+02     -0.145141E-11      0.693096E-04     -0.488230E-17      0.796703E-06     -0.344462E-19
  0.8286      0.364638E-05      0.206817E+02     -0.101319E-11      0.708893E-04     -0.347284E-17      0.832112E-06     -0.361808E-19
  0.8348      0.374286E-05      0.207379E+02     -0.175331E-11      0.724142E-04     -0.612235E-17      0.868283E-06     -0.392390E-19
  0.8411      0.384081E-05      0.207966E+02     -0.132800E-11      0.739636E-04     -0.472306E-17      0.905228E-06     -0.415981E-19
  0.8474      0.394021E-05      0.208359E+02     -0.207973E-11      0.754580E-04     -0.753182E-17      0.942919E-06     -0.453603E-19
  0.8537      0.404107E-05      0.208787E+02     -0.466832E-12      0.769782E-04     -0.172117E-17      0.981370E-06     -0.462200E-19
  0.8599      0.414335E-05      0.209102E+02     -0.325031E-13      0.784686E-04     -0.121973E-18      0.102056E-05     -0.462809E-19
  0.8662      0.424705E-05      0.209459E+02     -0.798524E-12      0.799860E-04     -0.304932E-17      0.106052E-05     -0.478041E-19
  0.8725      0.435215E-05      0.209773E+02     -0.354071E-12      0.814975E-04     -0.137558E-17      0.110123E-05     -0.484912E-19
  0.8788      0.445862E-05      0.210095E+02     -0.110947E-11      0.830223E-04     -0.438424E-17      0.114270E-05     -0.506811E-19
  0.8850      0.456646E-05      0.210416E+02     -0.671129E-12      0.845563E-04     -0.269695E-17      0.118493E-05     -0.520282E-19
  0.8913      0.467564E-05      0.210685E+02     -0.142636E-11      0.860781E-04     -0.582759E-17      0.122793E-05     -0.549391E-19
  0.8976      0.478613E-05      0.210989E+02     -0.996956E-12      0.876226E-04     -0.414030E-17      0.127170E-05     -0.570072E-19
  0.9039      0.489792E-05      0.211173E+02     -0.558744E-12      0.891242E-04     -0.235814E-17      0.131621E-05     -0.581851E-19
  0.9102      0.501098E-05      0.211432E+02     -0.132742E-11      0.906637E-04     -0.569206E-17      0.136150E-05     -0.610283E-19
  0.9164      0.512529E-05      0.211531E+02     -0.883622E-12      0.921397E-04     -0.384892E-17      0.140752E-05     -0.629508E-19
