 
 # eight columns.
 # Omega (column 1); |pulse ft|^2 (2); cross section (Mb) (3); flux (5); flux in
 tegral domega (7)
 
  0.0000      0.157531E-11      0.000000E+00      0.000000E+00      0.000000E+00      0.000000E+00      0.000000E+00      0.000000E+00
  0.0016      0.180698E-11     -0.369424E+00     -0.127513E-08     -0.263423E-10     -0.909251E-19     -0.413733E-13     -0.142807E-21
  0.0031      0.250197E-11     -0.432756E+00     -0.207750E-08     -0.213635E-10     -0.102558E-18     -0.749268E-13     -0.303885E-21
  0.0047      0.366035E-11     -0.177672E+00     -0.714499E-09     -0.855455E-11     -0.344016E-19     -0.883625E-13     -0.357916E-21
  0.0063      0.528217E-11     -0.125997E+00     -0.136287E-08     -0.656582E-11     -0.710206E-19     -0.986748E-13     -0.469461E-21
  0.0079      0.736754E-11     -0.787496E-01     -0.147593E-08     -0.457908E-11     -0.858215E-19     -0.105867E-12     -0.604252E-21
  0.0094      0.991659E-11     -0.581852E-01     -0.924718E-09     -0.379490E-11     -0.603111E-19     -0.111827E-12     -0.698977E-21
  0.0110      0.129295E-10     -0.413165E-01     -0.108437E-08     -0.301151E-11     -0.790386E-19     -0.116557E-12     -0.823115E-21
  0.0126      0.164064E-10     -0.320500E-01     -0.108246E-08     -0.259375E-11     -0.876019E-19     -0.120631E-12     -0.960702E-21
  0.0141      0.203475E-10     -0.243940E-01     -0.820295E-09     -0.217635E-11     -0.731839E-19     -0.124049E-12     -0.107564E-20
  0.0157      0.247531E-10     -0.192282E-01     -0.675075E-09     -0.187821E-11     -0.659415E-19     -0.126999E-12     -0.117921E-20
  0.0173      0.296235E-10     -0.148709E-01     -0.603197E-09     -0.158036E-11     -0.641031E-19     -0.129481E-12     -0.127989E-20
  0.0188      0.349589E-10     -0.118975E-01     -0.493849E-09     -0.136775E-11     -0.567737E-19     -0.131629E-12     -0.136906E-20
  0.0204      0.407596E-10     -0.933834E-02     -0.618294E-09     -0.115540E-11     -0.764996E-19     -0.133444E-12     -0.148921E-20
  0.0220      0.470261E-10     -0.772051E-02     -0.533979E-09     -0.102337E-11     -0.707803E-19     -0.135051E-12     -0.160038E-20
  0.0236      0.537587E-10     -0.630368E-02     -0.459225E-09     -0.891515E-12     -0.649471E-19     -0.136451E-12     -0.170239E-20
  0.0251      0.609578E-10     -0.551575E-02     -0.459869E-09     -0.829261E-12     -0.691386E-19     -0.137754E-12     -0.181097E-20
  0.0267      0.686239E-10     -0.481461E-02     -0.417785E-09     -0.766946E-12     -0.665512E-19     -0.138958E-12     -0.191550E-20
  0.0283      0.767575E-10     -0.409263E-02     -0.397803E-09     -0.688696E-12     -0.669412E-19     -0.140040E-12     -0.202064E-20
  0.0298      0.853589E-10     -0.344376E-02     -0.423834E-09     -0.610528E-12     -0.751394E-19     -0.140999E-12     -0.213865E-20
  0.0314      0.944289E-10     -0.293301E-02     -0.374647E-09     -0.546469E-12     -0.698030E-19     -0.141857E-12     -0.224828E-20
  0.0330      0.103968E-09     -0.246942E-02     -0.321514E-09     -0.482450E-12     -0.628140E-19     -0.142615E-12     -0.234694E-20
  0.0346      0.113976E-09     -0.208930E-02     -0.340339E-09     -0.427140E-12     -0.695795E-19     -0.143286E-12     -0.245622E-20
  0.0361      0.124455E-09     -0.174149E-02     -0.336504E-09     -0.371862E-12     -0.718543E-19     -0.143870E-12     -0.256908E-20
  0.0377      0.135405E-09     -0.145254E-02     -0.335440E-09     -0.323390E-12     -0.746817E-19     -0.144378E-12     -0.268637E-20
  0.0393      0.146826E-09     -0.118641E-02     -0.295194E-09     -0.274963E-12     -0.684143E-19     -0.144809E-12     -0.279382E-20
  0.0408      0.158719E-09     -0.100725E-02     -0.301620E-09     -0.242644E-12     -0.726596E-19     -0.145191E-12     -0.290794E-20
  0.0424      0.171086E-09     -0.841023E-03     -0.250350E-09     -0.210298E-12     -0.626001E-19     -0.145521E-12     -0.300626E-20
  0.0440      0.183926E-09     -0.727783E-03     -0.256856E-09     -0.188653E-12     -0.665811E-19     -0.145817E-12     -0.311083E-20
  0.0455      0.197240E-09     -0.621493E-03     -0.265391E-09     -0.166806E-12     -0.712295E-19     -0.146079E-12     -0.322271E-20
  0.0471      0.211030E-09     -0.317735E-03     -0.218654E-09     -0.881993E-13     -0.606955E-19     -0.146218E-12     -0.331803E-20
  0.0487      0.225296E-09     -0.349236E-04     -0.239619E-09     -0.100158E-13     -0.687211E-19     -0.146233E-12     -0.342597E-20
  0.0503      0.240039E-09      0.830834E-05     -0.237467E-09      0.245937E-14     -0.702929E-19     -0.146230E-12     -0.353637E-20
  0.0518      0.255260E-09      0.495757E-04     -0.220761E-09      0.151326E-13     -0.673859E-19     -0.146206E-12     -0.364221E-20
  0.0534      0.270960E-09      0.114522E-03     -0.209892E-09      0.360157E-13     -0.660083E-19     -0.146149E-12     -0.374588E-20
  0.0550      0.287139E-09      0.175685E-03     -0.217137E-09      0.568770E-13     -0.702969E-19     -0.146060E-12     -0.385629E-20
  0.0565      0.303800E-09      0.219476E-03     -0.187419E-09      0.730884E-13     -0.624130E-19     -0.145945E-12     -0.395431E-20
  0.0581      0.320942E-09      0.260957E-03     -0.194496E-09      0.893246E-13     -0.665752E-19     -0.145805E-12     -0.405888E-20
  0.0597      0.338567E-09      0.301538E-03     -0.189103E-09      0.106018E-12     -0.664871E-19     -0.145638E-12     -0.416330E-20
  0.0613      0.356676E-09      0.340073E-03     -0.171665E-09      0.122732E-12     -0.619540E-19     -0.145446E-12     -0.426061E-20
  0.0628      0.375270E-09      0.373559E-03     -0.179666E-09      0.138299E-12     -0.665162E-19     -0.145228E-12     -0.436508E-20
  0.0644      0.394350E-09      0.405218E-03     -0.183813E-09      0.153803E-12     -0.697672E-19     -0.144987E-12     -0.447465E-20
  0.0660      0.413918E-09      0.350278E-03     -0.169190E-09      0.136224E-12     -0.657986E-19     -0.144773E-12     -0.457800E-20
  0.0675      0.433974E-09      0.299121E-03     -0.162179E-09      0.119129E-12     -0.645902E-19     -0.144586E-12     -0.467944E-20
  0.0691      0.454519E-09      0.383509E-03     -0.165796E-09      0.156334E-12     -0.675850E-19     -0.144340E-12     -0.478559E-20
  0.0707      0.475556E-09      0.463638E-03     -0.163089E-09      0.193350E-12     -0.680128E-19     -0.144036E-12     -0.489241E-20
  0.0722      0.497085E-09      0.547706E-03     -0.163829E-09      0.233559E-12     -0.698620E-19     -0.143670E-12     -0.500214E-20
  0.0738      0.519108E-09      0.627807E-03     -0.154285E-09      0.273629E-12     -0.672451E-19     -0.143240E-12     -0.510775E-20
  0.0754      0.541625E-09      0.681691E-03     -0.137747E-09      0.303544E-12     -0.613362E-19     -0.142763E-12     -0.520409E-20
  0.0770      0.564639E-09      0.733196E-03     -0.143367E-09      0.333405E-12     -0.651931E-19     -0.142239E-12     -0.530648E-20
  0.0785      0.588150E-09      0.756760E-03     -0.152029E-09      0.351280E-12     -0.705701E-19     -0.141688E-12     -0.541732E-20
  0.0801      0.612161E-09      0.779427E-03     -0.133764E-09      0.369188E-12     -0.633596E-19     -0.141108E-12     -0.551683E-20
  0.0817      0.636672E-09      0.790106E-03     -0.137413E-09      0.381746E-12     -0.663922E-19     -0.140508E-12     -0.562110E-20
  0.0832      0.661685E-09      0.800462E-03     -0.137965E-09      0.394360E-12     -0.679704E-19     -0.139889E-12     -0.572786E-20
  0.0848      0.687201E-09      0.805206E-03     -0.134941E-09      0.404366E-12     -0.677661E-19     -0.139254E-12     -0.583429E-20
  0.0864      0.713223E-09      0.809851E-03     -0.137382E-09      0.414424E-12     -0.703024E-19     -0.138603E-12     -0.594471E-20
  0.0880      0.739751E-09      0.813338E-03     -0.129704E-09      0.423980E-12     -0.676127E-19     -0.137937E-12     -0.605090E-20
  0.0895      0.766788E-09      0.816755E-03     -0.122476E-09      0.433580E-12     -0.650172E-19     -0.137256E-12     -0.615302E-20
  0.0911      0.794334E-09      0.822029E-03     -0.127191E-09      0.444262E-12     -0.687401E-19     -0.136558E-12     -0.626098E-20
  0.0927      0.822392E-09      0.827102E-03     -0.123920E-09      0.454949E-12     -0.681626E-19     -0.135844E-12     -0.636804E-20
  0.0942      0.850963E-09      0.822996E-03     -0.120780E-09      0.460611E-12     -0.675977E-19     -0.135120E-12     -0.647421E-20
  0.0958      0.880049E-09      0.819182E-03     -0.120189E-09      0.466374E-12     -0.684256E-19     -0.134388E-12     -0.658167E-20
  0.0974      0.909652E-09      0.822825E-03     -0.118531E-09      0.476396E-12     -0.686264E-19     -0.133640E-12     -0.668946E-20
  0.0989      0.939773E-09      0.826337E-03     -0.110566E-09      0.486426E-12     -0.650849E-19     -0.132876E-12     -0.679168E-20
  0.1005      0.970414E-09      0.826627E-03     -0.109821E-09      0.494611E-12     -0.657113E-19     -0.132099E-12     -0.689489E-20
  0.1021      0.100158E-08      0.826968E-03     -0.108602E-09      0.502849E-12     -0.660370E-19     -0.131309E-12     -0.699861E-20
  0.1037      0.103327E-08      0.826210E-03     -0.102973E-09      0.510429E-12     -0.636165E-19     -0.130507E-12     -0.709852E-20
  0.1052      0.106548E-08      0.825566E-03     -0.102716E-09      0.518082E-12     -0.644594E-19     -0.129694E-12     -0.719976E-20
  0.1068      0.109822E-08      0.830393E-03     -0.104021E-09      0.529225E-12     -0.662949E-19     -0.128862E-12     -0.730388E-20
  0.1084      0.113149E-08      0.835041E-03     -0.989445E-10      0.540364E-12     -0.640281E-19     -0.128014E-12     -0.740445E-20
  0.1099      0.116529E-08      0.835648E-03     -0.997912E-10      0.548956E-12     -0.655551E-19     -0.127152E-12     -0.750741E-20
  0.1115      0.119963E-08      0.836287E-03     -0.100233E-09      0.557598E-12     -0.668306E-19     -0.126276E-12     -0.761237E-20
  0.1131      0.123450E-08      0.834883E-03     -0.968917E-10      0.564887E-12     -0.655575E-19     -0.125389E-12     -0.771534E-20
  0.1147      0.126991E-08      0.833594E-03     -0.952041E-10      0.572245E-12     -0.653557E-19     -0.124490E-12     -0.781798E-20
  0.1162      0.130586E-08      0.833510E-03     -0.923099E-10      0.580435E-12     -0.642822E-19     -0.123578E-12     -0.791895E-20
  0.1178      0.134235E-08      0.833468E-03     -0.899273E-10      0.588670E-12     -0.635147E-19     -0.122654E-12     -0.801870E-20
  0.1194      0.137939E-08      0.833097E-03     -0.923785E-10      0.596687E-12     -0.661640E-19     -0.121716E-12     -0.812262E-20
  0.1209      0.141697E-08      0.832765E-03     -0.912714E-10      0.604743E-12     -0.662800E-19     -0.120767E-12     -0.822672E-20
  0.1225      0.145510E-08      0.829324E-03     -0.876773E-10      0.610521E-12     -0.645452E-19     -0.119808E-12     -0.832809E-20
  0.1241      0.149379E-08      0.826019E-03     -0.870939E-10      0.616352E-12     -0.649870E-19     -0.118840E-12     -0.843016E-20
  0.1256      0.153302E-08      0.806938E-03     -0.865173E-10      0.610206E-12     -0.654242E-19     -0.117881E-12     -0.853292E-20
  0.1272      0.157281E-08      0.789166E-03     -0.850129E-10      0.604697E-12     -0.651410E-19     -0.116932E-12     -0.863523E-20
  0.1288      0.161316E-08      0.852310E-03     -0.864181E-10      0.661667E-12     -0.670883E-19     -0.115892E-12     -0.874060E-20
  0.1304      0.165407E-08      0.912333E-03     -0.837344E-10      0.717476E-12     -0.658503E-19     -0.114766E-12     -0.884402E-20
  0.1319      0.169555E-08      0.886533E-03     -0.805925E-10      0.706158E-12     -0.641951E-19     -0.113656E-12     -0.894485E-20
  0.1335      0.173758E-08      0.862225E-03     -0.821958E-10      0.695544E-12     -0.663061E-19     -0.112564E-12     -0.904899E-20
  0.1351      0.178019E-08      0.855597E-03     -0.818005E-10      0.698899E-12     -0.668192E-19     -0.111466E-12     -0.915393E-20
  0.1366      0.182336E-08      0.849198E-03     -0.812847E-10      0.702328E-12     -0.672265E-19     -0.110363E-12     -0.925952E-20
  0.1382      0.186711E-08      0.843338E-03     -0.777741E-10      0.706100E-12     -0.651178E-19     -0.109254E-12     -0.936179E-20
  0.1398      0.191144E-08      0.837760E-03     -0.786753E-10      0.710013E-12     -0.666784E-19     -0.108139E-12     -0.946652E-20
  0.1414      0.195634E-08      0.828345E-03     -0.742582E-10      0.710542E-12     -0.636976E-19     -0.107023E-12     -0.956656E-20
  0.1429      0.200182E-08      0.819922E-03     -0.752710E-10      0.711759E-12     -0.653414E-19     -0.105905E-12     -0.966919E-20
  0.1445      0.204788E-08      0.895169E-03     -0.757215E-10      0.786321E-12     -0.665141E-19     -0.104670E-12     -0.977365E-20
  0.1461      0.209454E-08      0.966668E-03     -0.713141E-10      0.859131E-12     -0.633807E-19     -0.103321E-12     -0.987320E-20
  0.1476      0.214178E-08      0.927893E-03     -0.729291E-10      0.834298E-12     -0.655728E-19     -0.102011E-12     -0.997619E-20
  0.1492      0.218961E-08      0.891366E-03     -0.731026E-10      0.810729E-12     -0.664894E-19     -0.100737E-12     -0.100806E-19
  0.1508      0.223803E-08      0.889923E-03     -0.715777E-10      0.818699E-12     -0.658491E-19     -0.994514E-13     -0.101840E-19
  0.1523      0.228705E-08      0.892993E-03     -0.703755E-10      0.830863E-12     -0.654792E-19     -0.981464E-13     -0.102869E-19
  0.1539      0.233667E-08      0.894695E-03     -0.712549E-10      0.841830E-12     -0.670446E-19     -0.968242E-13     -0.103922E-19
  0.1555      0.238690E-08      0.887255E-03     -0.668324E-10      0.844159E-12     -0.635862E-19     -0.954984E-13     -0.104920E-19
  0.1571      0.243773E-08      0.878947E-03     -0.675521E-10      0.845522E-12     -0.649832E-19     -0.941704E-13     -0.105941E-19
  0.1586      0.248917E-08      0.875334E-03     -0.663266E-10      0.851302E-12     -0.645056E-19     -0.928334E-13     -0.106954E-19
  0.1602      0.254122E-08      0.874192E-03     -0.643483E-10      0.859460E-12     -0.632638E-19     -0.914835E-13     -0.107948E-19
  0.1618      0.259388E-08      0.873163E-03     -0.651459E-10      0.867731E-12     -0.647407E-19     -0.901206E-13     -0.108965E-19
  0.1633      0.264716E-08      0.873286E-03     -0.662389E-10      0.877165E-12     -0.665331E-19     -0.887430E-13     -0.110010E-19
  0.1649      0.270107E-08      0.873435E-03     -0.633395E-10      0.886653E-12     -0.642980E-19     -0.873504E-13     -0.111020E-19
  0.1665      0.275559E-08      0.872570E-03     -0.625839E-10      0.895131E-12     -0.642020E-19     -0.859445E-13     -0.112028E-19
  0.1681      0.281075E-08      0.871822E-03     -0.633978E-10      0.903739E-12     -0.657187E-19     -0.845251E-13     -0.113060E-19
  0.1696      0.286653E-08      0.877807E-03     -0.626987E-10      0.919409E-12     -0.656702E-19     -0.830811E-13     -0.114091E-19
  0.1712      0.292295E-08      0.883484E-03     -0.626649E-10      0.934910E-12     -0.663125E-19     -0.816127E-13     -0.115133E-19
  0.1728      0.298000E-08      0.880208E-03     -0.613400E-10      0.940992E-12     -0.655759E-19     -0.801348E-13     -0.116163E-19
  0.1743      0.303769E-08      0.876967E-03     -0.581567E-10      0.947068E-12     -0.628054E-19     -0.786473E-13     -0.117149E-19
  0.1759      0.309603E-08      0.852292E-03     -0.588964E-10      0.929720E-12     -0.642469E-19     -0.771871E-13     -0.118158E-19
  0.1775      0.315501E-08      0.828955E-03     -0.607312E-10      0.913335E-12     -0.669131E-19     -0.757526E-13     -0.119209E-19
  0.1790      0.321464E-08      0.842235E-03     -0.573638E-10      0.937212E-12     -0.638326E-19     -0.742806E-13     -0.120212E-19
  0.1806      0.327493E-08      0.854829E-03     -0.582248E-10      0.960639E-12     -0.654317E-19     -0.727718E-13     -0.121240E-19
  0.1822      0.333587E-08      0.859006E-03     -0.581751E-10      0.974819E-12     -0.660184E-19     -0.712408E-13     -0.122276E-19
  0.1838      0.339747E-08      0.863350E-03     -0.577397E-10      0.989313E-12     -0.661639E-19     -0.696870E-13     -0.123316E-19
  0.1853      0.345973E-08      0.890849E-03     -0.581000E-10      0.103072E-11     -0.672224E-19     -0.680681E-13     -0.124371E-19
  0.1869      0.352267E-08      0.916977E-03     -0.564439E-10      0.107117E-11     -0.659354E-19     -0.663857E-13     -0.125407E-19
  0.1885      0.358627E-08      0.902142E-03     -0.552043E-10      0.106393E-11     -0.651046E-19     -0.647147E-13     -0.126430E-19
  0.1900      0.365055E-08      0.888291E-03     -0.555123E-10      0.105756E-11     -0.660904E-19     -0.630537E-13     -0.127468E-19
  0.1916      0.371550E-08      0.887029E-03     -0.551763E-10      0.106604E-11     -0.663112E-19     -0.613794E-13     -0.128509E-19
  0.1932      0.378114E-08      0.885854E-03     -0.540035E-10      0.107462E-11     -0.655113E-19     -0.596916E-13     -0.129538E-19
  0.1948      0.384746E-08      0.891125E-03     -0.543634E-10      0.109111E-11     -0.665635E-19     -0.579779E-13     -0.130583E-19
  0.1963      0.391447E-08      0.896226E-03     -0.538321E-10      0.110754E-11     -0.665245E-19     -0.562384E-13     -0.131628E-19
  0.1979      0.398217E-08      0.902812E-03     -0.526901E-10      0.112596E-11     -0.657137E-19     -0.544700E-13     -0.132660E-19
  0.1995      0.405057E-08      0.909096E-03     -0.526059E-10      0.114419E-11     -0.662101E-19     -0.526729E-13     -0.133700E-19
  0.2010      0.411967E-08      0.902717E-03     -0.522126E-10      0.114652E-11     -0.663140E-19     -0.508722E-13     -0.134742E-19
  0.2026      0.418948E-08      0.896746E-03     -0.507796E-10      0.114925E-11     -0.650783E-19     -0.490672E-13     -0.135764E-19
  0.2042      0.425999E-08      0.895247E-03     -0.509444E-10      0.115767E-11     -0.658777E-19     -0.472489E-13     -0.136799E-19
  0.2057      0.433121E-08      0.893845E-03     -0.511327E-10      0.116621E-11     -0.667135E-19     -0.454173E-13     -0.137846E-19
  0.2073      0.440315E-08      0.895280E-03     -0.499480E-10      0.117849E-11     -0.657483E-19     -0.435663E-13     -0.138879E-19
  0.2089      0.447581E-08      0.897045E-03     -0.502212E-10      0.119127E-11     -0.666937E-19     -0.416953E-13     -0.139926E-19
  0.2105      0.454920E-08      0.899045E-03     -0.499417E-10      0.120445E-11     -0.669068E-19     -0.398036E-13     -0.140977E-19
  0.2120      0.462331E-08      0.900357E-03     -0.492444E-10      0.121678E-11     -0.665508E-19     -0.378925E-13     -0.142023E-19
  0.2136      0.469815E-08      0.901074E-03     -0.484703E-10      0.122836E-11     -0.660756E-19     -0.359633E-13     -0.143060E-19
  0.2152      0.477373E-08      0.902132E-03     -0.477539E-10      0.124046E-11     -0.656634E-19     -0.340150E-13     -0.144092E-19
  0.2167      0.485005E-08      0.901669E-03     -0.469469E-10      0.125052E-11     -0.651106E-19     -0.320509E-13     -0.145114E-19
  0.2183      0.492712E-08      0.901348E-03     -0.477309E-10      0.126081E-11     -0.667659E-19     -0.300707E-13     -0.146163E-19
  0.2199      0.500493E-08      0.904720E-03     -0.472579E-10      0.127633E-11     -0.666687E-19     -0.280661E-13     -0.147210E-19
  0.2215      0.508350E-08      0.908011E-03     -0.459866E-10      0.129185E-11     -0.654262E-19     -0.260371E-13     -0.148238E-19
  0.2230      0.516283E-08      0.910682E-03     -0.458519E-10      0.130660E-11     -0.657859E-19     -0.239850E-13     -0.149271E-19
  0.2246      0.524291E-08      0.913343E-03     -0.455602E-10      0.132144E-11     -0.659173E-19     -0.219095E-13     -0.150306E-19
  0.2262      0.532376E-08      0.916036E-03     -0.450552E-10      0.133643E-11     -0.657322E-19     -0.198105E-13     -0.151338E-19
  0.2277      0.540539E-08      0.918719E-03     -0.455759E-10      0.135151E-11     -0.670458E-19     -0.176879E-13     -0.152392E-19
  0.2293      0.548779E-08      0.921217E-03     -0.444999E-10      0.136642E-11     -0.660055E-19     -0.155418E-13     -0.153428E-19
