 
 # Omega; pulse ft; proj flux t=    500.250000000000     
    0.000000000000         0.19000442E-09      0.00000000E+00      0.00000000E+00      0.58396195E-25     -0.31587556E-33      0.36654757E-27     -0.19827219E-35
    0.006276908399         0.22160172E-09      0.25306709E-16     -0.14433881E-24      0.55373972E-25     -0.31582981E-33      0.71412492E-27     -0.39651567E-35
    0.012553816798         0.31649624E-09      0.29000990E-16     -0.20221747E-24      0.45315656E-25     -0.31597601E-33      0.99856714E-27     -0.59485092E-35
    0.018830725196         0.47499603E-09      0.26633361E-16     -0.20205856E-24      0.41638166E-25     -0.31589508E-33      0.12599261E-26     -0.79313537E-35
    0.025107633595         0.69761494E-09      0.24804155E-16     -0.18348846E-24      0.42714674E-25     -0.31598133E-33      0.15280422E-26     -0.99147396E-35
    0.031384541994         0.98507334E-09      0.22490380E-16     -0.16245855E-24      0.43751429E-25     -0.31603706E-33      0.18026659E-26     -0.11898475E-34
    0.037661450393         0.13382991E-08      0.20070241E-16     -0.14344721E-24      0.44202964E-25     -0.31593005E-33      0.20801239E-26     -0.13881539E-34
    0.043938358791         0.17584287E-08      0.17993512E-16     -0.12738978E-24      0.44631302E-25     -0.31597898E-33      0.23602705E-26     -0.15864910E-34
    0.050215267190         0.22468091E-08      0.16238246E-16     -0.11391567E-24      0.45031061E-25     -0.31590503E-33      0.26429263E-26     -0.17847817E-34
    0.056492175589         0.28049990E-08      0.14752589E-16     -0.10272121E-24      0.45399946E-25     -0.31611653E-33      0.29278976E-26     -0.19832052E-34
    0.062769083988         0.34347712E-08      0.13967989E-16     -0.93107948E-25      0.47372748E-25     -0.31577770E-33      0.32252520E-26     -0.21814159E-34
    0.069045992387         0.41381150E-08      0.13276035E-16     -0.85040870E-25      0.49314559E-25     -0.31588896E-33      0.35347950E-26     -0.23796966E-34
    0.075322900785         0.49172381E-08      0.12255186E-16     -0.78116668E-25      0.49585739E-25     -0.31606805E-33      0.38460401E-26     -0.25780896E-34
    0.081599809184         0.57745703E-08      0.11363750E-16     -0.72025685E-25      0.49841934E-25     -0.31590798E-33      0.41588934E-26     -0.27763821E-34
    0.087876717583         0.67127654E-08      0.10652352E-16     -0.66732976E-25      0.50433118E-25     -0.31594451E-33      0.44754574E-26     -0.29746976E-34
    0.094153625982         0.77347054E-08      0.10014813E-16     -0.62044188E-25      0.50990848E-25     -0.31590064E-33      0.47955223E-26     -0.31729855E-34
    0.100430534380         0.88435030E-08      0.94074900E-17     -0.57914283E-25      0.51342262E-25     -0.31607265E-33      0.51177930E-26     -0.33713814E-34
    0.106707442779         0.10042506E-07      0.88624125E-17     -0.54173983E-25      0.51694224E-25     -0.31599545E-33      0.54422729E-26     -0.35697289E-34
    0.112984351178         0.11335300E-07      0.83618019E-17     -0.50812479E-25      0.51994486E-25     -0.31595686E-33      0.57686375E-26     -0.37680521E-34
    0.119261259577         0.12725715E-07      0.79085765E-17     -0.47809188E-25      0.52302660E-25     -0.31618177E-33      0.60969365E-26     -0.39665165E-34
    0.125538167976         0.14217824E-07      0.75013336E-17     -0.45010618E-25      0.52654863E-25     -0.31594754E-33      0.64274463E-26     -0.41648339E-34
    0.131815076374         0.15815953E-07      0.71309202E-17     -0.42483278E-25      0.53029622E-25     -0.31593008E-33      0.67603084E-26     -0.43631403E-34
    0.138091984773         0.17524683E-07      0.68072562E-17     -0.40165800E-25      0.53542233E-25     -0.31592267E-33      0.70963881E-26     -0.45614421E-34
    0.144368893172         0.19348855E-07      0.65110607E-17     -0.38036753E-25      0.54084903E-25     -0.31595683E-33      0.74358740E-26     -0.47597653E-34
    0.150645801571         0.21293571E-07      0.62336138E-17     -0.36060468E-25      0.54610234E-25     -0.31591155E-33      0.77786575E-26     -0.49580601E-34
    0.156922709970         0.23364205E-07      0.59757973E-17     -0.34225030E-25      0.55144696E-25     -0.31582880E-33      0.81247957E-26     -0.51563029E-34
    0.163199618368         0.25566403E-07      0.57351770E-17     -0.32569239E-25      0.55685227E-25     -0.31622833E-33      0.84743267E-26     -0.53547965E-34
    0.169476526767         0.27906088E-07      0.55150139E-17     -0.30955509E-25      0.56283189E-25     -0.31591485E-33      0.88276112E-26     -0.55530934E-34
    0.175753435166         0.30389467E-07      0.53113074E-17     -0.29487415E-25      0.56919801E-25     -0.31600841E-33      0.91848915E-26     -0.57514490E-34
    0.182030343565         0.33023034E-07      0.51230517E-17     -0.28110658E-25      0.57602933E-25     -0.31607262E-33      0.95464599E-26     -0.59498449E-34
    0.188307251963         0.35813574E-07      0.49427844E-17     -0.26812455E-25      0.58263284E-25     -0.31605297E-33      0.99121732E-26     -0.61482284E-34
    0.194584160362         0.38768170E-07      0.47764800E-17     -0.25596366E-25      0.58981860E-25     -0.31607402E-33      0.10282397E-25     -0.63466252E-34
    0.200861068761         0.41894206E-07      0.46152070E-17     -0.24446213E-25      0.59661210E-25     -0.31601847E-33      0.10656885E-25     -0.65449871E-34
    0.207137977160         0.45199371E-07      0.44657802E-17     -0.23390150E-25      0.60396627E-25     -0.31633580E-33      0.11035989E-25     -0.67435482E-34
    0.213414885559         0.48691666E-07      0.43202975E-17     -0.22351505E-25      0.61092268E-25     -0.31606716E-33      0.11419460E-25     -0.69419406E-34
    0.219691793957         0.52379403E-07      0.41826227E-17     -0.21381721E-25      0.61807058E-25     -0.31595995E-33      0.11807417E-25     -0.71402658E-34
    0.225968702356         0.56271216E-07      0.40482967E-17     -0.20461085E-25      0.62481726E-25     -0.31579798E-33      0.12199609E-25     -0.73384893E-34
    0.232245610755         0.60376060E-07      0.39283734E-17     -0.19605936E-25      0.63295480E-25     -0.31589846E-33      0.12596909E-25     -0.75367759E-34
    0.238522519154         0.64703218E-07      0.38103789E-17     -0.18787235E-25      0.64063008E-25     -0.31586538E-33      0.12999026E-25     -0.77350417E-34
    0.244799427552         0.69262300E-07      0.36976601E-17     -0.18014610E-25      0.64841965E-25     -0.31590322E-33      0.13406033E-25     -0.79333312E-34
    0.251076335951         0.74063251E-07      0.35843271E-17     -0.17284830E-25      0.65531076E-25     -0.31601288E-33      0.13817366E-25     -0.81316896E-34
    0.257353244350         0.79116352E-07      0.34794613E-17     -0.16576830E-25      0.66296605E-25     -0.31584991E-33      0.14233504E-25     -0.83299457E-34
    0.263630152749         0.84432224E-07      0.33783028E-17     -0.15916693E-25      0.67058586E-25     -0.31594294E-33      0.14654424E-25     -0.85282602E-34
    0.269907061148         0.90021830E-07      0.32834541E-17     -0.15281810E-25      0.67874588E-25     -0.31590104E-33      0.15080467E-25     -0.87265484E-34
    0.276183969546         0.95896474E-07      0.31926103E-17     -0.14682772E-25      0.68705699E-25     -0.31597658E-33      0.15511726E-25     -0.89248840E-34
    0.282460877945         0.10206781E-06      0.31073819E-17     -0.14101834E-25      0.69593359E-25     -0.31582664E-33      0.15948557E-25     -0.91231255E-34
    0.288737786344         0.10854784E-06      0.30287163E-17     -0.13561029E-25      0.70569789E-25     -0.31597511E-33      0.16391518E-25     -0.93214602E-34
    0.295014694743         0.11534890E-06      0.29547660E-17     -0.13039319E-25      0.71603717E-25     -0.31598568E-33      0.16840968E-25     -0.95198015E-34
    0.301291603141         0.12248370E-06      0.28867672E-17     -0.12536337E-25      0.72735379E-25     -0.31586726E-33      0.17297521E-25     -0.97180685E-34
    0.307568511540         0.12996528E-06      0.28247669E-17     -0.12066866E-25      0.73979395E-25     -0.31602587E-33      0.17761883E-25     -0.99164350E-34
    0.313845419939         0.13780704E-06      0.28148516E-17     -0.11608866E-25      0.76604413E-25     -0.31592797E-33      0.18242722E-25     -0.10114740E-33
    0.320122328338         0.14602273E-06      0.27082829E-17     -0.11175884E-25      0.76566921E-25     -0.31595776E-33      0.18723325E-25     -0.10313064E-33
    0.326399236737         0.15462643E-06      0.24259639E-17     -0.10757118E-25      0.71229779E-25     -0.31584440E-33      0.19170428E-25     -0.10511317E-33
    0.332676145135         0.16363259E-06      0.23189198E-17     -0.10365177E-25      0.70693021E-25     -0.31598577E-33      0.19614162E-25     -0.10709658E-33
    0.338953053534         0.17305599E-06      0.23647594E-17     -0.99842449E-26      0.74830169E-25     -0.31594027E-33      0.20083864E-25     -0.10907971E-33
    0.345229961933         0.18291177E-06      0.23413287E-17     -0.96194544E-26      0.76884399E-25     -0.31588302E-33      0.20566460E-25     -0.11106248E-33
    0.351506870332         0.19321538E-06      0.22966377E-17     -0.92770135E-26      0.78242558E-25     -0.31605214E-33      0.21057581E-25     -0.11304631E-33
    0.357783778731         0.20398262E-06      0.22519571E-17     -0.89405560E-26      0.79574756E-25     -0.31592190E-33      0.21557065E-25     -0.11502932E-33
    0.364060687129         0.21522964E-06      0.22330513E-17     -0.86202892E-26      0.81821920E-25     -0.31585868E-33      0.22070654E-25     -0.11701194E-33
    0.370337595528         0.22697289E-06      0.22109128E-17     -0.83169002E-26      0.83982823E-25     -0.31592235E-33      0.22597806E-25     -0.11899495E-33
    0.376614503927         0.23922915E-06      0.21399799E-17     -0.80262178E-26      0.84249905E-25     -0.31598806E-33      0.23126635E-25     -0.12097838E-33
    0.382891412326         0.25201552E-06      0.20732731E-17     -0.77484269E-26      0.84576721E-25     -0.31608791E-33      0.23657515E-25     -0.12296243E-33
    0.389168320724         0.26534940E-06      0.20316899E-17     -0.74778954E-26      0.85857992E-25     -0.31601136E-33      0.24196438E-25     -0.12494601E-33
    0.395445229123         0.27924851E-06      0.19901479E-17     -0.72211156E-26      0.87102885E-25     -0.31604687E-33      0.24743175E-25     -0.12692981E-33
    0.401722137522         0.29373083E-06      0.19490043E-17     -0.69716606E-26      0.88324106E-25     -0.31593860E-33      0.25297577E-25     -0.12891292E-33
    0.407999045921         0.30881467E-06      0.19078482E-17     -0.67369965E-26      0.89500459E-25     -0.31604416E-33      0.25859363E-25     -0.13089670E-33
    0.414275954320         0.32451858E-06      0.18688821E-17     -0.65041042E-26      0.90734908E-25     -0.31577664E-33      0.26428898E-25     -0.13287880E-33
    0.420552862718         0.34086139E-06      0.18294894E-17     -0.62913434E-26      0.91903021E-25     -0.31604089E-33      0.27005765E-25     -0.13486256E-33
    0.426829771117         0.35786219E-06      0.17928551E-17     -0.60839004E-26      0.93164180E-25     -0.31614468E-33      0.27590548E-25     -0.13684698E-33
    0.433106679516         0.37554031E-06      0.17537449E-17     -0.58799420E-26      0.94247700E-25     -0.31599295E-33      0.28182132E-25     -0.13883043E-33
    0.439383587915         0.39391532E-06      0.17182469E-17     -0.56863502E-26      0.95474479E-25     -0.31596234E-33      0.28781417E-25     -0.14081370E-33
    0.445660496313         0.41300701E-06      0.16728243E-17     -0.54982444E-26      0.96082939E-25     -0.31580572E-33      0.29384520E-25     -0.14279598E-33
    0.451937404712         0.43283537E-06      0.16305454E-17     -0.53234786E-26      0.96787667E-25     -0.31599677E-33      0.29992048E-25     -0.14477947E-33
    0.458214313111         0.45342059E-06      0.14217309E-17     -0.51496463E-26      0.87195219E-25     -0.31582948E-33      0.30539364E-25     -0.14676190E-33
    0.464491221510         0.47478305E-06      0.12127296E-17     -0.49864449E-26      0.76828855E-25     -0.31590128E-33      0.31021612E-25     -0.14874478E-33
    0.470768129909         0.49694328E-06      0.14353018E-17     -0.48314956E-26      0.93904339E-25     -0.31609966E-33      0.31611041E-25     -0.15072891E-33
    0.477045038307         0.51992196E-06      0.16652356E-17     -0.46749695E-26      0.11248565E-24     -0.31579136E-33      0.32317103E-25     -0.15271111E-33
    0.483321946706         0.54373993E-06      0.16190110E-17     -0.45298253E-26      0.11288784E-24     -0.31584851E-33      0.33025690E-25     -0.15469366E-33
    0.489598855105         0.56841810E-06      0.15684911E-17     -0.43900290E-26      0.11286317E-24     -0.31589123E-33      0.33734121E-25     -0.15667648E-33
    0.495875763504         0.59397753E-06      0.15291421E-17     -0.42554555E-26      0.11352399E-24     -0.31592636E-33      0.34446701E-25     -0.15865952E-33
    0.502152671902         0.62043932E-06      0.14914394E-17     -0.41248617E-26      0.11421202E-24     -0.31587525E-33      0.35163599E-25     -0.16064224E-33
    0.508429580301         0.64782466E-06      0.14070976E-17     -0.40006013E-26      0.11112034E-24     -0.31593272E-33      0.35861092E-25     -0.16262532E-33
    0.514706488700         0.67615476E-06      0.13923976E-17     -0.38826248E-26      0.11336850E-24     -0.31612189E-33      0.36572695E-25     -0.16460959E-33
    0.520983397099         0.70545086E-06      0.15817622E-17     -0.37642486E-26      0.13274763E-24     -0.31591035E-33      0.37405940E-25     -0.16659253E-33
    0.527260305498         0.73573422E-06      0.16388011E-17     -0.36530203E-26      0.14173098E-24     -0.31592983E-33      0.38295573E-25     -0.16857559E-33
    0.533537213896         0.76702604E-06      0.15511355E-17     -0.35454618E-26      0.13820947E-24     -0.31590818E-33      0.39163101E-25     -0.17055852E-33
    0.539814122295         0.79934752E-06      0.14903338E-17     -0.34426896E-26      0.13677843E-24     -0.31595988E-33      0.40021646E-25     -0.17254177E-33
    0.546091030694         0.83271978E-06      0.14664101E-17     -0.33405341E-26      0.13859002E-24     -0.31571297E-33      0.40891563E-25     -0.17452347E-33
    0.552367939093         0.86716384E-06      0.14771288E-17     -0.32459858E-26      0.14372547E-24     -0.31583626E-33      0.41793715E-25     -0.17650594E-33
    0.558644847491         0.90270064E-06      0.14508975E-17     -0.31565992E-26      0.14530728E-24     -0.31613317E-33      0.42705795E-25     -0.17849028E-33
    0.564921755890         0.93935095E-06      0.14275871E-17     -0.30648101E-26      0.14712446E-24     -0.31585360E-33      0.43629282E-25     -0.18047287E-33
    0.571198664289         0.97713540E-06      0.14096747E-17     -0.29790848E-26      0.14946144E-24     -0.31585889E-33      0.44567438E-25     -0.18245549E-33
    0.577475572688         0.10160745E-05      0.14020974E-17     -0.28963279E-26      0.15290186E-24     -0.31585105E-33      0.45527189E-25     -0.18443805E-33
    0.583752481087         0.10561883E-05      0.13724762E-17     -0.28162491E-26      0.15390762E-24     -0.31581036E-33      0.46493253E-25     -0.18642037E-33
    0.590029389485         0.10974971E-05      0.13710015E-17     -0.27397751E-26      0.15805576E-24     -0.31585469E-33      0.47485354E-25     -0.18840296E-33
    0.596306297884         0.11400204E-05      0.13233522E-17     -0.26647379E-26      0.15680551E-24     -0.31574784E-33      0.48469608E-25     -0.19038488E-33
    0.602583206283         0.11837778E-05      0.13152533E-17     -0.25952014E-26      0.16014199E-24     -0.31598532E-33      0.49474805E-25     -0.19236829E-33
    0.608860114682         0.12287883E-05      0.12044457E-17     -0.25242381E-26      0.15065705E-24     -0.31574214E-33      0.50420465E-25     -0.19435017E-33
    0.615137023081         0.12750709E-05      0.11981650E-17     -0.24588264E-26      0.15392947E-24     -0.31588791E-33      0.51386666E-25     -0.19633297E-33
    0.621413931479         0.13226439E-05      0.73693794E-18     -0.23944756E-26      0.97215505E-25     -0.31587485E-33      0.51996879E-25     -0.19831569E-33
    0.627690839878         0.13715254E-05      0.15205752E-17     -0.23332912E-26      0.20592480E-24     -0.31598735E-33      0.53289450E-25     -0.20029911E-33
    0.633967748277         0.14217330E-05      0.68545538E-17     -0.22733904E-26      0.95273640E-24     -0.31598582E-33      0.59269690E-25     -0.20228253E-33
    0.640244656676         0.14732840E-05      0.86949827E-17     -0.22148903E-26      0.12400863E-23     -0.31588965E-33      0.67053597E-25     -0.20426534E-33
    0.646521565074         0.15261949E-05      0.43712409E-17     -0.21601582E-26      0.63954986E-24     -0.31604958E-33      0.71067993E-25     -0.20624915E-33
    0.652798473473         0.15804821E-05      0.24041167E-17     -0.21042381E-26      0.36075193E-24     -0.31575337E-33      0.73332400E-25     -0.20823111E-33
    0.659075381872         0.16361611E-05      0.24172673E-17     -0.20538767E-26      0.37192752E-24     -0.31601523E-33      0.75666955E-25     -0.21021471E-33
    0.665352290271         0.16932470E-05      0.23837737E-17     -0.20042783E-26      0.37599006E-24     -0.31613267E-33      0.78027010E-25     -0.21219904E-33
    0.671629198670         0.17517545E-05      0.25168510E-17     -0.19547748E-26      0.40685893E-24     -0.31599709E-33      0.80580827E-25     -0.21418253E-33
    0.677906107068         0.18116973E-05      0.30335698E-17     -0.19086127E-26      0.50247303E-24     -0.31613792E-33      0.83734804E-25     -0.21616689E-33
    0.684183015467         0.18730887E-05      0.85457902E-17     -0.18615760E-26      0.14500433E-23     -0.31587082E-33      0.92836593E-25     -0.21814959E-33
    0.690459923866         0.19359414E-05      0.19119951E-16     -0.18193511E-26      0.33226392E-23     -0.31616437E-33      0.11369249E-24     -0.22013412E-33
    0.696736832265         0.20002671E-05      0.25023515E-16     -0.17754658E-26      0.44525644E-23     -0.31591789E-33      0.14164083E-24     -0.22211711E-33
    0.703013740663         0.20660771E-05      0.19479284E-16     -0.17345138E-26      0.35481206E-23     -0.31593893E-33      0.16391206E-24     -0.22410023E-33
    0.709290649062         0.21333816E-05      0.12635734E-16     -0.16945175E-26      0.23555237E-23     -0.31588795E-33      0.17869747E-24     -0.22608303E-33
    0.715567557461         0.22021904E-05      0.13417157E-16     -0.16562977E-26      0.25592188E-23     -0.31592595E-33      0.19476145E-24     -0.22806607E-33
    0.721844465860         0.22725123E-05      0.16551046E-16     -0.16201658E-26      0.32294660E-23     -0.31612929E-33      0.21503251E-24     -0.23005038E-33
    0.728121374259         0.23443551E-05      0.17568997E-16     -0.15830158E-26      0.35059785E-23     -0.31589848E-33      0.23703922E-24     -0.23203325E-33
    0.734398282657         0.24177260E-05      0.16047608E-16     -0.15500227E-26      0.32743750E-23     -0.31626867E-33      0.25759217E-24     -0.23401844E-33
    0.740675191056         0.24926312E-05      0.15326506E-16     -0.15156118E-26      0.31968043E-23     -0.31612649E-33      0.27765822E-24     -0.23600273E-33
    0.746952099455         0.25690760E-05      0.15309754E-16     -0.14826959E-26      0.32635863E-23     -0.31606685E-33      0.29814345E-24     -0.23798666E-33
    0.753229007854         0.26470648E-05      0.16800008E-16     -0.14518810E-26      0.36592300E-23     -0.31623593E-33      0.32111210E-24     -0.23997164E-33
    0.759505916252         0.27266009E-05      0.17044973E-16     -0.14202997E-26      0.37925333E-23     -0.31601891E-33      0.34491749E-24     -0.24195526E-33
    0.765782824651         0.28076868E-05      0.13442122E-16     -0.13909573E-26      0.30545944E-23     -0.31608182E-33      0.36409089E-24     -0.24393928E-33
