 
 # Omega; pulse ft; proj flux t=    500.250000000000     
    0.000000000000         0.23733438E-09      0.00000000E+00      0.00000000E+00      0.85961448E-29      0.28303987E-39      0.42937786E-32      0.14137856E-42
    0.006276908399         0.26847166E-09      0.27825707E-21      0.84048423E-32      0.92693955E-29      0.27998501E-39      0.89238463E-32      0.28123121E-42
    0.012553816798         0.36198451E-09      0.45578699E-21      0.12639917E-31      0.10235962E-28      0.28386442E-39      0.14036714E-31      0.42302163E-42
    0.018830725196         0.51817601E-09      0.49000622E-21      0.13322181E-31      0.10501816E-28      0.28552104E-39      0.19282376E-31      0.56563953E-42
    0.025107633595         0.73755180E-09      0.46551693E-21      0.12342717E-31      0.10650617E-28      0.28239048E-39      0.24602365E-31      0.70669372E-42
    0.031384541994         0.10208207E-08      0.42503005E-21      0.11149981E-31      0.10767276E-28      0.28246221E-39      0.29980625E-31      0.84778373E-42
    0.037661450393         0.13688958E-08      0.38393876E-21      0.10000399E-31      0.10868956E-28      0.28310218E-39      0.35409674E-31      0.98919341E-42
    0.043938358791         0.17828953E-08      0.34674574E-21      0.89462946E-32      0.10958363E-28      0.28273382E-39      0.40883382E-31      0.11304191E-41
    0.050215267190         0.22641447E-08      0.31504262E-21      0.80259992E-32      0.11063442E-28      0.28185131E-39      0.46409577E-31      0.12712040E-41
    0.056492175589         0.28141777E-08      0.28744659E-21      0.73167738E-32      0.11152517E-28      0.28388039E-39      0.51980265E-31      0.14130024E-41
    0.062769083988         0.34347388E-08      0.26462707E-21      0.67105341E-32      0.11278069E-28      0.28599442E-39      0.57613666E-31      0.15558567E-41
    0.069045992387         0.41277855E-08      0.24483206E-21      0.60723472E-32      0.11399859E-28      0.28274034E-39      0.63307901E-31      0.16970857E-41
    0.075322900785         0.48954902E-08      0.22695893E-21      0.55735964E-32      0.11488649E-28      0.28213516E-39      0.69046486E-31      0.18380123E-41
    0.081599809184         0.57402438E-08      0.21143437E-21      0.51815665E-32      0.11584287E-28      0.28389308E-39      0.74832844E-31      0.19798170E-41
    0.087876717583         0.66646579E-08      0.19778812E-21      0.47954669E-32      0.11683065E-28      0.28326145E-39      0.80668540E-31      0.21213063E-41
    0.094153625982         0.76715684E-08      0.18567513E-21      0.44278871E-32      0.11782933E-28      0.28099345E-39      0.86554121E-31      0.22616626E-41
    0.100430534380         0.87640384E-08      0.17482309E-21      0.41577441E-32      0.11882008E-28      0.28258480E-39      0.92489190E-31      0.24028139E-41
    0.106707442779         0.99453622E-08      0.16506505E-21      0.39027205E-32      0.11982117E-28      0.28329955E-39      0.98474264E-31      0.25443222E-41
    0.112984351178         0.11219069E-07      0.15626993E-21      0.36380209E-32      0.12085551E-28      0.28135603E-39      0.10451100E-30      0.26848596E-41
    0.119261259577         0.12588925E-07      0.14825136E-21      0.34190360E-32      0.12188226E-28      0.28109005E-39      0.11059903E-30      0.28252643E-41
    0.125538167976         0.14058942E-07      0.14097395E-21      0.32367595E-32      0.12296125E-28      0.28231881E-39      0.11674095E-30      0.29662826E-41
    0.131815076374         0.15633376E-07      0.13427264E-21      0.30644576E-32      0.12403028E-28      0.28307000E-39      0.12293627E-30      0.31076762E-41
    0.138091984773         0.17316734E-07      0.12818588E-21      0.28702085E-32      0.12519594E-28      0.28032608E-39      0.12918981E-30      0.32476993E-41
    0.144368893172         0.19113780E-07      0.12254144E-21      0.27193730E-32      0.12635967E-28      0.28041051E-39      0.13550148E-30      0.33877645E-41
    0.150645801571         0.21029537E-07      0.11730116E-21      0.26099250E-32      0.12753446E-28      0.28376136E-39      0.14187183E-30      0.35295034E-41
    0.156922709970         0.23069292E-07      0.11242521E-21      0.24697788E-32      0.12872554E-28      0.28278676E-39      0.14830168E-30      0.36707555E-41
    0.163199618368         0.25238602E-07      0.10787784E-21      0.23270613E-32      0.12993644E-28      0.28028930E-39      0.15479201E-30      0.38107602E-41
    0.169476526767         0.27543295E-07      0.10365856E-21      0.22360858E-32      0.13120913E-28      0.28303969E-39      0.16134592E-30      0.39521386E-41
    0.175753435166         0.29989481E-07      0.99661998E-22      0.21088487E-32      0.13244857E-28      0.28026127E-39      0.16796173E-30      0.40921293E-41
    0.182030343565         0.32583550E-07      0.95936474E-22      0.20094353E-32      0.13374911E-28      0.28014391E-39      0.17464250E-30      0.42320613E-41
    0.188307251963         0.35332181E-07      0.92403859E-22      0.19107846E-32      0.13503491E-28      0.27923359E-39      0.18138750E-30      0.43715386E-41
    0.194584160362         0.38242343E-07      0.89126820E-22      0.18372222E-32      0.13642626E-28      0.28122326E-39      0.18820200E-30      0.45120098E-41
    0.200861068761         0.41321305E-07      0.85969127E-22      0.17344781E-32      0.13774420E-28      0.27790709E-39      0.19508233E-30      0.46508245E-41
    0.207137977160         0.44576634E-07      0.83032615E-22      0.16560853E-32      0.13917101E-28      0.27757656E-39      0.20203393E-30      0.47894741E-41
    0.213414885559         0.48016203E-07      0.80205496E-22      0.15976012E-32      0.14054642E-28      0.27995228E-39      0.20905423E-30      0.49293104E-41
    0.219691793957         0.51648196E-07      0.77663589E-22      0.15552924E-32      0.14220384E-28      0.28477765E-39      0.21615732E-30      0.50715570E-41
    0.225968702356         0.55481108E-07      0.75089087E-22      0.14705066E-32      0.14359066E-28      0.28120066E-39      0.22332968E-30      0.52120169E-41
    0.232245610755         0.59523755E-07      0.72515990E-22      0.14198540E-32      0.14475352E-28      0.28342558E-39      0.23056013E-30      0.53535881E-41
    0.238522519154         0.63785271E-07      0.70176133E-22      0.13618146E-32      0.14616150E-28      0.28363612E-39      0.23786090E-30      0.54952645E-41
    0.244799427552         0.68275117E-07      0.68051598E-22      0.13038973E-32      0.14782331E-28      0.28323570E-39      0.24524468E-30      0.56367409E-41
    0.251076335951         0.73003082E-07      0.65934731E-22      0.12410343E-32      0.14931457E-28      0.28104232E-39      0.25270295E-30      0.57771217E-41
    0.257353244350         0.77979284E-07      0.63975295E-22      0.12038674E-32      0.15097827E-28      0.28410626E-39      0.26024432E-30      0.59190329E-41
    0.263630152749         0.83214178E-07      0.62066701E-22      0.11550022E-32      0.15258556E-28      0.28394721E-39      0.26786598E-30      0.60608646E-41
    0.269907061148         0.88718553E-07      0.60271076E-22      0.11003537E-32      0.15429849E-28      0.28169883E-39      0.27557320E-30      0.62015733E-41
    0.276183969546         0.94503538E-07      0.58525196E-22      0.10567511E-32      0.15597142E-28      0.28162736E-39      0.28336398E-30      0.63422464E-41
    0.282460877945         0.10058060E-06      0.56887247E-22      0.10240415E-32      0.15776962E-28      0.28400501E-39      0.29124458E-30      0.64841070E-41
    0.288737786344         0.10696156E-06      0.55274109E-22      0.98007802E-33      0.15947712E-28      0.28277257E-39      0.29921047E-30      0.66253520E-41
    0.295014694743         0.11365856E-06      0.53763949E-22      0.94911928E-33      0.16132519E-28      0.28479465E-39      0.30726867E-30      0.67676071E-41
    0.301291603141         0.12068410E-06      0.52272267E-22      0.90566603E-33      0.16307482E-28      0.28254241E-39      0.31541426E-30      0.69087372E-41
    0.307568511540         0.12805103E-06      0.50870877E-22      0.87209431E-33      0.16495404E-28      0.28278553E-39      0.32365373E-30      0.70499887E-41
    0.313845419939         0.13577253E-06      0.49541832E-22      0.82945773E-33      0.16692474E-28      0.27947497E-39      0.33199163E-30      0.71895866E-41
    0.320122328338         0.14386214E-06      0.48332930E-22      0.80443458E-33      0.16917111E-28      0.28156185E-39      0.34044173E-30      0.73302269E-41
    0.326399236737         0.15233372E-06      0.47002397E-22      0.77645834E-33      0.17085176E-28      0.28223938E-39      0.34897579E-30      0.74712056E-41
    0.332676145135         0.16120149E-06      0.45711560E-22      0.75052885E-33      0.17251465E-28      0.28324831E-39      0.35759290E-30      0.76126882E-41
    0.338953053534         0.17048002E-06      0.44583423E-22      0.72002577E-33      0.17464650E-28      0.28205546E-39      0.36631650E-30      0.77535751E-41
    0.345229961933         0.18018417E-06      0.43496270E-22      0.70245188E-33      0.17681240E-28      0.28554679E-39      0.37514829E-30      0.78962059E-41
    0.351506870332         0.19032920E-06      0.42440355E-22      0.66921216E-33      0.17897944E-28      0.28222011E-39      0.38408832E-30      0.80371749E-41
    0.357783778731         0.20093064E-06      0.41430248E-22      0.64297730E-33      0.18121560E-28      0.28123780E-39      0.39314005E-30      0.81776534E-41
    0.364060687129         0.21200438E-06      0.40452972E-22      0.62219208E-33      0.18347378E-28      0.28219419E-39      0.40230458E-30      0.83186095E-41
    0.370337595528         0.22356662E-06      0.39525024E-22      0.60145931E-33      0.18583771E-28      0.28279254E-39      0.41158718E-30      0.84598645E-41
    0.376614503927         0.23563389E-06      0.38604035E-22      0.57750424E-33      0.18811609E-28      0.28141576E-39      0.42098359E-30      0.86004318E-41
    0.382891412326         0.24822301E-06      0.37723833E-22      0.55552711E-33      0.19047359E-28      0.28049441E-39      0.43049775E-30      0.87405389E-41
    0.389168320724         0.26135112E-06      0.36885854E-22      0.54075106E-33      0.19292978E-28      0.28283738E-39      0.44013460E-30      0.88818163E-41
    0.395445229123         0.27503566E-06      0.36077644E-22      0.51678261E-33      0.19543096E-28      0.27993880E-39      0.44989639E-30      0.90216459E-41
    0.401722137522         0.28929433E-06      0.35299476E-22      0.50354731E-33      0.19798622E-28      0.28242750E-39      0.45978581E-30      0.91627186E-41
    0.407999045921         0.30414516E-06      0.34545440E-22      0.48448280E-33      0.20056956E-28      0.28128895E-39      0.46980427E-30      0.93032226E-41
    0.414275954320         0.31960641E-06      0.33829540E-22      0.46971387E-33      0.20327051E-28      0.28223552E-39      0.47995764E-30      0.94441993E-41
    0.420552862718         0.33569662E-06      0.33129176E-22      0.45479181E-33      0.20596316E-28      0.28274279E-39      0.49024551E-30      0.95854295E-41
    0.426829771117         0.35243458E-06      0.32467885E-22      0.43426196E-33      0.20879993E-28      0.27927248E-39      0.50067508E-30      0.97249262E-41
    0.433106679516         0.36983933E-06      0.31814932E-22      0.42596026E-33      0.21159323E-28      0.28329561E-39      0.51124417E-30      0.98664325E-41
    0.439383587915         0.38793013E-06      0.31202742E-22      0.41102872E-33      0.21456308E-28      0.28264050E-39      0.52196161E-30      0.10007612E-40
    0.445660496313         0.40672647E-06      0.30579838E-22      0.39704163E-33      0.21736320E-28      0.28221941E-39      0.53281891E-30      0.10148580E-40
    0.451937404712         0.42624802E-06      0.30006684E-22      0.38521143E-33      0.22042184E-28      0.28296700E-39      0.54382899E-30      0.10289923E-40
    0.458214313111         0.44651466E-06      0.29289460E-22      0.37535298E-33      0.22229565E-28      0.28487837E-39      0.55493267E-30      0.10432219E-40
    0.464491221510         0.46754647E-06      0.28415945E-22      0.36149312E-33      0.22277267E-28      0.28340000E-39      0.56606018E-30      0.10573778E-40
    0.470768129909         0.48936365E-06      0.28274328E-22      0.34563214E-33      0.22891249E-28      0.27982809E-39      0.57749437E-30      0.10713552E-40
    0.477045038307         0.51198657E-06      0.28127295E-22      0.33912498E-33      0.23511465E-28      0.28347287E-39      0.58923836E-30      0.10855147E-40
    0.483321946706         0.53543573E-06      0.27595985E-22      0.32965159E-33      0.23810541E-28      0.28443206E-39      0.60113174E-30      0.10997221E-40
    0.489598855105         0.55973174E-06      0.27151375E-22      0.31599059E-33      0.24175970E-28      0.28136251E-39      0.61320764E-30      0.11137762E-40
    0.495875763504         0.58489532E-06      0.26695609E-22      0.30741072E-33      0.24524358E-28      0.28240788E-39      0.62545757E-30      0.11278825E-40
    0.502152671902         0.61094726E-06      0.26273319E-22      0.29835061E-33      0.24896335E-28      0.28271407E-39      0.63789331E-30      0.11420040E-40
    0.508429580301         0.63790841E-06      0.25827845E-22      0.28949831E-33      0.25238773E-28      0.28289554E-39      0.65050009E-30      0.11561347E-40
    0.514706488700         0.66579967E-06      0.25389637E-22      0.27832076E-33      0.25579553E-28      0.28040263E-39      0.66327708E-30      0.11701408E-40
    0.520983397099         0.69464194E-06      0.25330336E-22      0.27170862E-33      0.26304533E-28      0.28215845E-39      0.67641621E-30      0.11842346E-40
    0.527260305498         0.72445614E-06      0.25064412E-22      0.26497638E-33      0.26822365E-28      0.28356115E-39      0.68981400E-30      0.11983985E-40
    0.533537213896         0.75526319E-06      0.24645068E-22      0.25828183E-33      0.27171659E-28      0.28476066E-39      0.70338625E-30      0.12126223E-40
    0.539814122295         0.78708392E-06      0.24311136E-22      0.24856286E-33      0.27607977E-28      0.28227056E-39      0.71717645E-30      0.12267218E-40
    0.546091030694         0.81993914E-06      0.23974308E-22      0.24322868E-33      0.28035945E-28      0.28443556E-39      0.73118042E-30      0.12409293E-40
    0.552367939093         0.85384956E-06      0.23752760E-22      0.23336708E-33      0.28596937E-28      0.28096034E-39      0.74546461E-30      0.12549633E-40
    0.558644847491         0.88883579E-06      0.23442137E-22      0.22718229E-33      0.29049287E-28      0.28152226E-39      0.75997474E-30      0.12690254E-40
    0.564921755890         0.92491828E-06      0.23202870E-22      0.22163963E-33      0.29587570E-28      0.28262789E-39      0.77475375E-30      0.12831426E-40
    0.571198664289         0.96211735E-06      0.22933637E-22      0.21545795E-33      0.30086131E-28      0.28265451E-39      0.78978178E-30      0.12972613E-40
    0.577475572688         0.10004531E-05      0.22744743E-22      0.20936361E-33      0.30689988E-28      0.28249897E-39      0.80511145E-30      0.13113721E-40
    0.583752481087         0.10399456E-05      0.22486888E-22      0.20549886E-33      0.31200659E-28      0.28513061E-39      0.82069619E-30      0.13256144E-40
    0.590029389485         0.10806144E-05      0.22331664E-22      0.20025197E-33      0.31854495E-28      0.28564488E-39      0.83660753E-30      0.13398824E-40
    0.596306297884         0.11224790E-05      0.22099413E-22      0.19379901E-33      0.32399782E-28      0.28412728E-39      0.85279124E-30      0.13540745E-40
    0.602583206283         0.11655585E-05      0.21944507E-22      0.18863512E-33      0.33059436E-28      0.28417912E-39      0.86930444E-30      0.13682693E-40
    0.608860114682         0.12098719E-05      0.21742701E-22      0.18475176E-33      0.33650220E-28      0.28593215E-39      0.88611274E-30      0.13825516E-40
    0.615137023081         0.12554376E-05      0.21548808E-22      0.17735521E-33      0.34253036E-28      0.28191603E-39      0.90322215E-30      0.13966333E-40
    0.621413931479         0.13022739E-05      0.21416714E-22      0.17198897E-33      0.34956401E-28      0.28072072E-39      0.92068289E-30      0.14106553E-40
    0.627690839878         0.13503983E-05      0.21011747E-22      0.16723153E-33      0.35207145E-28      0.28021205E-39      0.93826888E-30      0.14246520E-40
    0.633967748277         0.13998285E-05      0.28033922E-22      0.16392880E-33      0.48210769E-28      0.28191323E-39      0.96235018E-30      0.14387335E-40
    0.640244656676         0.14505812E-05      0.29988050E-22      0.16116354E-33      0.52917199E-28      0.28439072E-39      0.98878235E-30      0.14529389E-40
    0.646521565074         0.15026729E-05      0.23613003E-22      0.15581535E-33      0.42744986E-28      0.28206176E-39      0.10101335E-29      0.14670279E-40
    0.652798473473         0.15561195E-05      0.22673684E-22      0.15346575E-33      0.42095769E-28      0.28492321E-39      0.10311603E-29      0.14812598E-40
    0.659075381872         0.16109365E-05      0.22630899E-22      0.14614019E-33      0.43082181E-28      0.27820539E-39      0.10526799E-29      0.14951562E-40
    0.665352290271         0.16671388E-05      0.22583572E-22      0.14154597E-33      0.44072257E-28      0.27622956E-39      0.10746940E-29      0.15089538E-40
    0.671629198670         0.17247407E-05      0.23447443E-22      0.13960177E-33      0.46896698E-28      0.27921432E-39      0.10981190E-29      0.15229006E-40
    0.677906107068         0.17837558E-05      0.23937616E-22      0.13530784E-33      0.49056807E-28      0.27729455E-39      0.11226229E-29      0.15367515E-40
    0.684183015467         0.18441971E-05      0.31205396E-22      0.13311567E-33      0.65511463E-28      0.27945815E-39      0.11553459E-29      0.15507104E-40
    0.690459923866         0.19060772E-05      0.46208772E-22      0.13148255E-33      0.99352540E-28      0.28269795E-39      0.12049725E-29      0.15648312E-40
    0.696736832265         0.19694076E-05      0.56257276E-22      0.12788427E-33      0.12385059E-27      0.28153768E-39      0.12668359E-29      0.15788940E-40
    0.703013740663         0.20341994E-05      0.48836890E-22      0.12639137E-33      0.11006019E-27      0.28483914E-39      0.13218111E-29      0.15931218E-40
    0.709290649062         0.21004628E-05      0.38550940E-22      0.12098656E-33      0.88915664E-28      0.27904897E-39      0.13662245E-29      0.16070603E-40
    0.715567557461         0.21682073E-05      0.42032082E-22      0.12012235E-33      0.99193590E-28      0.28348268E-39      0.14157717E-29      0.16212202E-40
    0.721844465860         0.22374415E-05      0.46065929E-22      0.11450791E-33      0.11120913E-27      0.27643695E-39      0.14713207E-29      0.16350283E-40
    0.728121374259         0.23081733E-05      0.48883795E-22      0.11472702E-33      0.12069300E-27      0.28325847E-39      0.15316070E-29      0.16491771E-40
    0.734398282657         0.23804097E-05      0.45154087E-22      0.10853430E-33      0.11399077E-27      0.27399309E-39      0.15885454E-29      0.16628630E-40
    0.740675191056         0.24541568E-05      0.45510132E-22      0.10790155E-33      0.11744517E-27      0.27845482E-39      0.16472093E-29      0.16767719E-40
    0.746952099455         0.25294198E-05      0.44700274E-22      0.10616259E-33      0.11789378E-27      0.27999625E-39      0.17060973E-29      0.16907577E-40
    0.753229007854         0.26062031E-05      0.47421750E-22      0.10200168E-33      0.12779426E-27      0.27487871E-39      0.17699306E-29      0.17044879E-40
    0.759505916252         0.26845099E-05      0.48578712E-22      0.10408666E-33      0.13373109E-27      0.28653751E-39      0.18367294E-29      0.17188005E-40
    0.765782824651         0.27643427E-05      0.42184150E-22      0.99312347E-34      0.11860093E-27      0.27921713E-39      0.18959706E-29      0.17327474E-40
