 
 # Omega; pulse ft; projected flux at t=    500.250000000000     
    0.000000000000         0.10341091E-10      0.00000000E+00      0.00000000E+00      0.42362190E-28      0.45200283E-39
    0.006276908399         0.40699280E-10      0.12199234E-19      0.11958850E-30      0.46204824E-28      0.45294365E-39
    0.012553816798         0.13187398E-09      0.77890396E-20      0.74344846E-31      0.47794845E-28      0.45619236E-39
    0.018830725196         0.28416575E-09      0.54338336E-20      0.51695343E-31      0.47898822E-28      0.45569044E-39
    0.025107633595         0.49807598E-09      0.41988777E-20      0.39918839E-31      0.48656049E-28      0.46257432E-39
    0.031384541994         0.77430759E-09      0.34141413E-20      0.31890119E-31      0.49203162E-28      0.45958692E-39
    0.037661450393         0.11137660E-08      0.28744436E-20      0.27014387E-31      0.49655175E-28      0.46666567E-39
    0.043938358791         0.15175606E-08      0.24851542E-20      0.22365812E-31      0.50138270E-28      0.45123282E-39
    0.050215267190         0.19870057E-08      0.21823461E-20      0.19601392E-31      0.50442984E-28      0.45306870E-39
    0.056492175589         0.25236231E-08      0.19445229E-20      0.17260258E-31      0.50741472E-28      0.45039887E-39
    0.062769083988         0.31291437E-08      0.17625545E-20      0.15674700E-31      0.51325841E-28      0.45644950E-39
    0.069045992387         0.38055096E-08      0.16125681E-20      0.14165539E-31      0.51916596E-28      0.45605924E-39
    0.075322900785         0.45548772E-08      0.14813274E-20      0.12724091E-31      0.52325634E-28      0.44945913E-39
    0.081599809184         0.53796196E-08      0.13721920E-20      0.12024438E-31      0.52843443E-28      0.46306398E-39
    0.087876717583         0.62823298E-08      0.12747979E-20      0.10755086E-31      0.53235589E-28      0.44913262E-39
    0.094153625982         0.72658239E-08      0.11922693E-20      0.10082997E-31      0.53744740E-28      0.45451816E-39
    0.100430534380         0.83331444E-08      0.11170955E-20      0.92774772E-32      0.54143615E-28      0.44966266E-39
    0.106707442779         0.94875639E-08      0.10526964E-20      0.86331070E-32      0.54673510E-28      0.44837452E-39
    0.112984351178         0.10732589E-07      0.99179142E-21      0.83302806E-32      0.55032642E-28      0.46223161E-39
    0.119261259577         0.12071965E-07      0.93966064E-21      0.75605986E-32      0.55560150E-28      0.44704224E-39
    0.125538167976         0.13509678E-07      0.89039224E-21      0.72441077E-32      0.55971168E-28      0.45537366E-39
    0.131815076374         0.15049961E-07      0.84682278E-21      0.66032716E-32      0.56477650E-28      0.44039588E-39
    0.138091984773         0.16697298E-07      0.80607979E-21      0.62531245E-32      0.56933721E-28      0.44166055E-39
    0.144368893172         0.18456429E-07      0.76963357E-21      0.60100869E-32      0.57474056E-28      0.44881628E-39
    0.150645801571         0.20332352E-07      0.73496085E-21      0.57546489E-32      0.57944018E-28      0.45369420E-39
    0.156922709970         0.22330332E-07      0.70371036E-21      0.55405261E-32      0.58494782E-28      0.46054725E-39
    0.163199618368         0.24455902E-07      0.67380436E-21      0.52032627E-32      0.58981004E-28      0.45546404E-39
    0.169476526767         0.26714868E-07      0.64675712E-21      0.50049104E-32      0.59552294E-28      0.46084362E-39
    0.175753435166         0.29113317E-07      0.62093297E-21      0.46056644E-32      0.60082279E-28      0.44565005E-39
    0.182030343565         0.31657619E-07      0.59763919E-21      0.43609633E-32      0.60713789E-28      0.44302752E-39
    0.188307251963         0.34354433E-07      0.57465262E-21      0.41825672E-32      0.61239965E-28      0.44573062E-39
    0.194584160362         0.37210710E-07      0.55395245E-21      0.39926974E-32      0.61879495E-28      0.44600598E-39
    0.200861068761         0.40233700E-07      0.53433551E-21      0.37546537E-32      0.62520443E-28      0.43931688E-39
    0.207137977160         0.43430955E-07      0.51618250E-21      0.35550213E-32      0.63220326E-28      0.43540725E-39
    0.213414885559         0.46810335E-07      0.49898123E-21      0.34947562E-32      0.63931523E-28      0.44776250E-39
    0.219691793957         0.50380010E-07      0.48488791E-21      0.34384304E-32      0.64953054E-28      0.46059419E-39
    0.225968702356         0.54148468E-07      0.46922774E-21      0.32572403E-32      0.65680335E-28      0.45593347E-39
    0.232245610755         0.58124513E-07      0.44923943E-21      0.31527440E-32      0.65675515E-28      0.46090808E-39
    0.238522519154         0.62317278E-07      0.43235871E-21      0.30061625E-32      0.65983766E-28      0.45878091E-39
    0.244799427552         0.66736218E-07      0.41926633E-21      0.29203855E-32      0.66765942E-28      0.46505593E-39
    0.251076335951         0.71391124E-07      0.40592423E-21      0.27168224E-32      0.67421315E-28      0.45124613E-39
    0.257353244350         0.76292116E-07      0.39380378E-21      0.26680159E-32      0.68193613E-28      0.46201091E-39
    0.263630152749         0.81449655E-07      0.38208471E-21      0.25315057E-32      0.68955296E-28      0.45686394E-39
    0.269907061148         0.86874540E-07      0.37060654E-21      0.24649506E-32      0.69679521E-28      0.46344724E-39
    0.276183969546         0.92577913E-07      0.35963201E-21      0.22568757E-32      0.70417575E-28      0.44190648E-39
    0.282460877945         0.98571259E-07      0.34910159E-21      0.21836375E-32      0.71163554E-28      0.44512946E-39
    0.288737786344         0.10486641E-06      0.33945110E-21      0.21633718E-32      0.72015138E-28      0.45896308E-39
    0.295014694743         0.11147554E-06      0.32985809E-21      0.20407585E-32      0.72807629E-28      0.45044459E-39
    0.301291603141         0.11841119E-06      0.32088400E-21      0.19945092E-32      0.73666081E-28      0.45788408E-39
    0.307568511540         0.12568621E-06      0.31216391E-21      0.18931659E-32      0.74514753E-28      0.45190614E-39
    0.313845419939         0.13331385E-06      0.30464749E-21      0.18272308E-32      0.75591137E-28      0.45338451E-39
    0.320122328338         0.14130766E-06      0.29661900E-21      0.17935138E-32      0.76482578E-28      0.46245372E-39
    0.326399236737         0.14968158E-06      0.28456144E-21      0.17277199E-32      0.76227043E-28      0.46281385E-39
    0.332676145135         0.15844985E-06      0.27620810E-21      0.16431500E-32      0.76845845E-28      0.45715260E-39
    0.338953053534         0.16762710E-06      0.27098961E-21      0.15772817E-32      0.78283662E-28      0.45564621E-39
    0.345229961933         0.17722828E-06      0.26425213E-21      0.15311429E-32      0.79242255E-28      0.45914945E-39
    0.351506870332         0.18726866E-06      0.25811546E-21      0.14575931E-32      0.80326549E-28      0.45360872E-39
    0.357783778731         0.19776389E-06      0.25167298E-21      0.13924394E-32      0.81259986E-28      0.44958980E-39
    0.364060687129         0.20872991E-06      0.24614237E-21      0.13310494E-32      0.82434894E-28      0.44577826E-39
    0.370337595528         0.22018301E-06      0.24067721E-21      0.12347223E-32      0.83586236E-28      0.42881415E-39
    0.376614503927         0.23213979E-06      0.23471752E-21      0.12813146E-32      0.84510730E-28      0.46134109E-39
    0.382891412326         0.24461718E-06      0.22892414E-21      0.12234041E-32      0.85431243E-28      0.45655705E-39
    0.389168320724         0.25763241E-06      0.22388798E-21      0.11800405E-32      0.86578012E-28      0.45632444E-39
    0.395445229123         0.27120301E-06      0.21880247E-21      0.11283909E-32      0.87654495E-28      0.45204487E-39
    0.401722137522         0.28534681E-06      0.21401606E-21      0.10951975E-32      0.88798866E-28      0.45441587E-39
    0.407999045921         0.30008192E-06      0.20926780E-21      0.10284867E-32      0.89907702E-28      0.44186864E-39
    0.414275954320         0.31542674E-06      0.20484058E-21      0.10064556E-32      0.91104239E-28      0.44762798E-39
    0.420552862718         0.33139993E-06      0.20042109E-21      0.99910932E-33      0.92254814E-28      0.45989495E-39
    0.426829771117         0.34802041E-06      0.19629786E-21      0.94828877E-33      0.93493062E-28      0.45165251E-39
    0.433106679516         0.36530735E-06      0.19230096E-21      0.92160303E-33      0.94745544E-28      0.45406835E-39
    0.439383587915         0.38328015E-06      0.18843748E-21      0.88847735E-33      0.96018205E-28      0.45272310E-39
    0.445660496313         0.40195843E-06      0.18462714E-21      0.87430575E-33      0.97271664E-28      0.46063203E-39
    0.451937404712         0.42136202E-06      0.18110823E-21      0.83341519E-33      0.98634556E-28      0.45389178E-39
    0.458214313111         0.44151098E-06      0.17697996E-21      0.81626236E-33      0.99611794E-28      0.45942691E-39
    0.464491221510         0.46242550E-06      0.17159101E-21      0.78236748E-33      0.99786686E-28      0.45497639E-39
    0.470768129909         0.48412598E-06      0.16968653E-21      0.75436469E-33      0.10193246E-27      0.45315470E-39
    0.477045038307         0.50663295E-06      0.16863587E-21      0.74029411E-33      0.10461593E-27      0.45925315E-39
    0.483321946706         0.52996708E-06      0.16557376E-21      0.70664114E-33      0.10605172E-27      0.45261100E-39
    0.489598855105         0.55414917E-06      0.16283953E-21      0.68736626E-33      0.10766138E-27      0.45445230E-39
    0.495875763504         0.57920011E-06      0.15999748E-21      0.66824532E-33      0.10916482E-27      0.45593768E-39
    0.502152671902         0.60514088E-06      0.15741397E-21      0.64893780E-33      0.11080971E-27      0.45681209E-39
    0.508429580301         0.63199252E-06      0.15455511E-21      0.62945750E-33      0.11222208E-27      0.45704751E-39
    0.514706488700         0.65977612E-06      0.15234514E-21      0.59688255E-33      0.11407208E-27      0.44693013E-39
    0.520983397099         0.68851279E-06      0.15267745E-21      0.58975696E-33      0.11786282E-27      0.45527627E-39
    0.527260305498         0.71822366E-06      0.15048061E-21      0.56259162E-33      0.11973717E-27      0.44765320E-39
    0.533537213896         0.74892983E-06      0.14754238E-21      0.55495807E-33      0.12097816E-27      0.45504085E-39
    0.539814122295         0.78065236E-06      0.14541892E-21      0.52973927E-33      0.12284236E-27      0.44749626E-39
    0.546091030694         0.81341227E-06      0.14349616E-21      0.53276621E-33      0.12485322E-27      0.46354953E-39
    0.552367939093         0.84723047E-06      0.14210459E-21      0.50867104E-33      0.12731952E-27      0.45574710E-39
    0.558644847491         0.88212778E-06      0.14017714E-21      0.48814415E-33      0.12929648E-27      0.45025401E-39
    0.564921755890         0.91812490E-06      0.13878537E-21      0.46882549E-33      0.13175617E-27      0.44508042E-39
    0.571198664289         0.95524236E-06      0.13712278E-21      0.46557049E-33      0.13395219E-27      0.45480543E-39
    0.577475572688         0.99350052E-06      0.13608915E-21      0.43221997E-33      0.13676400E-27      0.43436329E-39
    0.583752481087         0.10329195E-05      0.13454941E-21      0.44934382E-33      0.13906996E-27      0.46444076E-39
    0.590029389485         0.10735193E-05      0.13381499E-21      0.43481542E-33      0.14221807E-27      0.46212021E-39
    0.596306297884         0.11153196E-05      0.13252718E-21      0.43511003E-33      0.14479337E-27      0.47538210E-39
    0.602583206283         0.11583396E-05      0.13216976E-21      0.40956294E-33      0.14841055E-27      0.45988934E-39
    0.608860114682         0.12025986E-05      0.13122968E-21      0.41374695E-33      0.15140808E-27      0.47736633E-39
    0.615137023081         0.12481153E-05      0.13193611E-21      0.38292890E-33      0.15637248E-27      0.45385255E-39
    0.621413931479         0.12949080E-05      0.13249803E-21      0.35959557E-33      0.16128024E-27      0.43770959E-39
    0.627690839878         0.13429948E-05      0.14433715E-21      0.35894977E-33      0.18039333E-27      0.44861730E-39
    0.633967748277         0.13923932E-05      0.18513284E-21      0.34515105E-33      0.23751552E-27      0.44281031E-39
    0.640244656676         0.14431204E-05      0.17922542E-21      0.34959819E-33      0.23597719E-27      0.46029852E-39
    0.646521565074         0.14951931E-05      0.13779181E-21      0.33486396E-33      0.18614504E-27      0.45237278E-39
    0.652798473473         0.15486273E-05      0.12939375E-21      0.33775822E-33      0.17930603E-27      0.46804490E-39
    0.659075381872         0.16034389E-05      0.12777126E-21      0.30845264E-33      0.18157845E-27      0.43834858E-39
    0.665352290271         0.16596427E-05      0.12697289E-21      0.29513620E-33      0.18500683E-27      0.43003047E-39
    0.671629198670         0.17172535E-05      0.12802513E-21      0.31010570E-33      0.19121143E-27      0.46315717E-39
    0.677906107068         0.17762849E-05      0.12818636E-21      0.29429608E-33      0.19619986E-27      0.45044459E-39
    0.684183015467         0.18367504E-05      0.14228136E-21      0.29310513E-33      0.22312060E-27      0.45963711E-39
    0.690459923866         0.18986625E-05      0.16749847E-21      0.28061443E-33      0.26905058E-27      0.45074727E-39
    0.696736832265         0.19620330E-05      0.18363892E-21      0.26919462E-33      0.30207590E-27      0.44281031E-39
    0.703013740663         0.20268732E-05      0.16839723E-21      0.26888150E-33      0.28360346E-27      0.45283240E-39
    0.709290649062         0.20931935E-05      0.14733762E-21      0.25719835E-33      0.25398764E-27      0.44337083E-39
    0.715567557461         0.21610035E-05      0.14741997E-21      0.25828456E-33      0.26006083E-27      0.45563500E-39
    0.721844465860         0.22303120E-05      0.15000486E-21      0.24242213E-33      0.27073295E-27      0.43753022E-39
    0.728121374259         0.23011271E-05      0.15575287E-21      0.25001233E-33      0.28753234E-27      0.46154287E-39
    0.734398282657         0.23734559E-05      0.14952583E-21      0.22459589E-33      0.28227963E-27      0.42399928E-39
    0.740675191056         0.24473047E-05      0.15136315E-21      0.23534518E-33      0.29214215E-27      0.45423370E-39
    0.746952099455         0.25226788E-05      0.14958601E-21      0.22307697E-33      0.29510324E-27      0.44008619E-39
    0.753229007854         0.25995828E-05      0.15399638E-21      0.21281948E-33      0.31045663E-27      0.42904396E-39
    0.759505916252         0.26780200E-05      0.15434069E-21      0.21800681E-33      0.31789001E-27      0.44902087E-39
    0.765782824651         0.27579930E-05      0.14689357E-21      0.20599595E-33      0.30903247E-27      0.43337117E-39
    0.772059733050         0.28395032E-05      0.14700234E-21      0.21831636E-33      0.31581264E-27      0.46902020E-39
    0.778336641449         0.29225512E-05      0.15264313E-21      0.20064033E-33      0.33480021E-27      0.44007498E-39
    0.784613549848         0.30071363E-05      0.15609433E-21      0.20420047E-33      0.34946062E-27      0.45715961E-39
    0.790890458246         0.30932570E-05      0.15629344E-21      0.18434240E-33      0.35707070E-27      0.42115185E-39
    0.797167366645         0.31809104E-05      0.16066333E-21      0.18291700E-33      0.37448332E-27      0.42635347E-39
    0.803444275044         0.32700927E-05      0.16002638E-21      0.18998589E-33      0.38046060E-27      0.45168894E-39
    0.809721183443         0.33607990E-05      0.16546216E-21      0.16657731E-33      0.40116176E-27      0.40386543E-39
    0.815998091842         0.34530231E-05      0.16443142E-21      0.17904064E-33      0.40645172E-27      0.44256369E-39
    0.822275000240         0.35467578E-05      0.17060111E-21      0.16121619E-33      0.42984326E-27      0.40619719E-39
    0.828551908639         0.36419946E-05      0.16984539E-21      0.16462573E-33      0.43610107E-27      0.42269888E-39
    0.834828817038         0.37387238E-05      0.17644734E-21      0.15433067E-33      0.46158839E-27      0.40373090E-39
    0.841105725437         0.38369346E-05      0.17673469E-21      0.15357251E-33      0.47094416E-27      0.40922399E-39
    0.847382633835         0.39366149E-05      0.18357198E-21      0.14644674E-33      0.49815393E-27      0.39740824E-39
    0.853659542234         0.40377513E-05      0.18562118E-21      0.15112336E-33      0.51285689E-27      0.41754210E-39
    0.859936450633         0.41403294E-05      0.19268897E-21      0.16296400E-33      0.54192501E-27      0.45832549E-39
    0.866213359032         0.42443332E-05      0.19728715E-21      0.14842792E-33      0.56467321E-27      0.42482885E-39
    0.872490267431         0.43497456E-05      0.20461630E-21      0.15585828E-33      0.59587793E-27      0.45388618E-39
    0.878767175829         0.44565484E-05      0.21311072E-21      0.14136516E-33      0.63131179E-27      0.41877524E-39
    0.885044084228         0.45647219E-05      0.22105320E-21      0.14468661E-33      0.66597822E-27      0.43590472E-39
    0.891320992627         0.46742450E-05      0.23585289E-21      0.13358877E-33      0.72249085E-27      0.40922399E-39
    0.897597901026         0.47850957E-05      0.24485961E-21      0.13908817E-33      0.76249984E-27      0.43312454E-39
    0.903874809424         0.48972503E-05      0.27241085E-21      0.14359739E-33      0.86214879E-27      0.45446912E-39
    0.910151717823         0.50106841E-05      0.28288130E-21      0.13004061E-33      0.90970644E-27      0.41819230E-39
    0.916428626222         0.51253709E-05      0.34862375E-21      0.13143902E-33      0.11389310E-26      0.42940269E-39
    0.922705534621         0.52412834E-05      0.35198034E-21      0.11119534E-33      0.11679029E-26      0.36895628E-39
    0.928982443020         0.53583927E-05      0.71209468E-21      0.96941498E-34      0.23992670E-26      0.32662586E-39
    0.935259351418         0.54766690E-05      0.50560886E-21      0.86967674E-34      0.17294695E-26      0.29747885E-39
    0.941536259817         0.55960809E-05     -0.22035592E-21      0.13245110E-33     -0.76504230E-27      0.45985010E-39
    0.947813168216         0.57165958E-05     -0.10358081E-22      0.13538839E-33     -0.36492856E-28      0.47699079E-39
    0.954090076615         0.58381799E-05      0.13388615E-21      0.12761011E-33      0.47856126E-27      0.45612826E-39
    0.960366985013         0.59607981E-05      0.18461552E-21      0.12625259E-33      0.66934375E-27      0.45774255E-39
    0.966643893412         0.60844141E-05      0.23731859E-21      0.11225125E-33      0.87256504E-27      0.41272163E-39
    0.972920801811         0.62089900E-05      0.29616948E-21      0.10955857E-33      0.11040725E-26      0.40841685E-39
    0.979197710210         0.63344872E-05      0.33783823E-21      0.95264942E-34      0.12766260E-26      0.35998797E-39
    0.985474618609         0.64608656E-05      0.42241033E-21      0.10027628E-33      0.16176836E-26      0.38402304E-39
    0.991751527007         0.65880838E-05      0.48818512E-21      0.84636739E-34      0.18943254E-26      0.32841952E-39
    0.998028435406         0.67160994E-05      0.15367848E-21      0.10652376E-33      0.60408917E-27      0.41873040E-39
    1.004305343805         0.68448687E-05      0.61609252E-21      0.60011114E-34      0.24527828E-26      0.23891578E-39
    1.010582252204         0.69743470E-05      0.31401305E-20     -0.10980954E-33      0.12658825E-25     -0.44267579E-39
    1.016859160602         0.71044882E-05      0.64877875E-20     -0.21236442E-33      0.26477831E-25     -0.86669749E-39
