 
 # Omega; pulse ft; projected flux at t=    500.250000000000     
    0.000000000000         0.61823026E-09      0.00000000E+00      0.00000000E+00      0.17719104E-07      0.84703295E-21
    0.006276908399         0.61747610E-09      0.31264518E+00      0.33958070E-13      0.17965525E-07      0.19513320E-20
    0.012553816798         0.61521579E-09      0.63586394E+00     -0.12451385E-13      0.18202443E-07     -0.35643730E-21
    0.018830725196         0.61145675E-09      0.97319040E+00     -0.38470990E-13      0.18459091E-07     -0.72970255E-21
    0.025107633595         0.60621417E-09      0.13264735E+01      0.45691829E-13      0.18708230E-07      0.64442540E-21
    0.031384541994         0.59951527E-09      0.17005703E+01      0.24546754E-13      0.18975483E-07      0.27390018E-21
    0.037661450393         0.59140524E-09      0.20973078E+01      0.81605044E-13      0.19238185E-07      0.74854676E-21
    0.043938358791         0.58195487E-09      0.25225265E+01      0.25159245E-12      0.19516189E-07      0.19465111E-20
    0.050215267190         0.57126980E-09      0.29785893E+01      0.49141052E-12      0.19793834E-07      0.32656057E-20
    0.056492175589         0.55950140E-09      0.34713554E+01      0.30132922E-12      0.20082869E-07      0.17432831E-20
    0.062769083988         0.54685933E-09      0.40039866E+01     -0.14721940E-12      0.20376813E-07     -0.74921884E-21
    0.069045992387         0.53362554E-09      0.45801858E+01      0.11648628E-12      0.20677357E-07      0.52588007E-21
    0.075322900785         0.52016993E-09      0.52030252E+01      0.55367155E-12      0.20988816E-07      0.22334911E-20
    0.081599809184         0.50696746E-09      0.58696144E+01      0.37177728E-12      0.21301702E-07      0.13492350E-20
    0.087876717583         0.49461670E-09      0.65793315E+01      0.59720931E-12      0.21631693E-07      0.19635200E-20
    0.094153625982         0.48385983E-09      0.73147622E+01      0.17056687E-12      0.21958190E-07      0.51202480E-21
    0.100430534380         0.47560399E-09      0.80641117E+01      0.46722584E-12      0.22307456E-07      0.12924697E-20
    0.106707442779         0.47094388E-09      0.87854885E+01      0.58997660E-12      0.22649267E-07      0.15209784E-20
    0.112984351178         0.47118573E-09      0.94490140E+01      0.53599076E-12      0.23018347E-07      0.13057046E-20
    0.119261259577         0.47787234E-09      0.99878761E+01      0.52692850E-12      0.23377575E-07      0.12333263E-20
    0.125538167976         0.49280933E-09      0.10364700E+02      0.13807879E-11      0.23766962E-07      0.31662406E-20
    0.131815076374         0.51809239E-09      0.10516888E+02      0.53682247E-12      0.24145889E-07      0.12324991E-20
    0.138091984773         0.55613556E-09      0.10438412E+02      0.54281435E-12      0.24556159E-07      0.12769601E-20
    0.144368893172         0.60970041E-09      0.10116693E+02     -0.12667929E-11      0.24957165E-07     -0.31250884E-20
    0.150645801571         0.68192607E-09      0.96018424E+01     -0.36976326E-12      0.25389178E-07     -0.97772748E-21
    0.156922709970         0.77635999E-09      0.89325402E+01     -0.76823079E-12      0.25814643E-07     -0.22201528E-20
    0.163199618368         0.89698941E-09      0.81822311E+01     -0.12379747E-11      0.26269616E-07     -0.39746028E-20
    0.169476526767         0.10482735E-08      0.73958380E+01      0.45524701E-12      0.26721832E-07      0.16448486E-20
    0.175753435166         0.12351757E-08      0.66260137E+01     -0.42545411E-12      0.27201386E-07     -0.17465919E-20
    0.182030343565         0.14631970E-08      0.58956848E+01     -0.32802521E-12      0.27682612E-07     -0.15402103E-20
    0.188307251963         0.17384091E-08      0.52273021E+01     -0.70452768E-12      0.28188783E-07     -0.37992406E-20
    0.194584160362         0.20674879E-08      0.46243647E+01     -0.39376312E-12      0.28701287E-07     -0.24439051E-20
    0.200861068761         0.24577476E-08      0.40904437E+01     -0.38005652E-12      0.29236523E-07     -0.27164611E-20
    0.207137977160         0.29171738E-08      0.36203244E+01     -0.64427694E-12      0.29782685E-07     -0.53001598E-20
    0.213414885559         0.34544578E-08      0.32098623E+01      0.14391209E-12      0.30349768E-07      0.13607121E-20
    0.219691793957         0.40790298E-08      0.28520269E+01     -0.45379579E-13      0.30932176E-07     -0.49217246E-21
    0.225968702356         0.48010926E-08      0.25408386E+01     -0.20927840E-13      0.31534262E-07     -0.25973471E-21
    0.232245610755         0.56316541E-08      0.22701595E+01      0.21899256E-14      0.32155750E-07      0.31019273E-22
    0.238522519154         0.65825603E-08      0.20344472E+01     -0.35713328E-13      0.32796362E-07     -0.57571771E-21
    0.244799427552         0.76665268E-08      0.18290492E+01      0.11448853E-12      0.33460118E-07      0.20944213E-20
    0.251076335951         0.88971707E-08      0.16494686E+01     -0.22714044E-12      0.34143183E-07     -0.47016946E-20
    0.257353244350         0.10289041E-07      0.14923864E+01      0.11606940E-12      0.34853013E-07      0.27106709E-20
    0.263630152749         0.11857647E-07      0.13543213E+01     -0.22857026E-13      0.35582705E-07     -0.60053312E-21
    0.269907061148         0.13619491E-07      0.12329741E+01      0.58876962E-13      0.36342466E-07      0.17354249E-20
    0.276183969546         0.15592091E-07      0.11257163E+01      0.73894718E-13      0.37123477E-07      0.24368741E-20
    0.282460877945         0.17794010E-07      0.10309728E+01      0.80923286E-15      0.37938185E-07      0.29778502E-22
    0.288737786344         0.20244883E-07      0.94675281E+00      0.84825062E-15      0.38775915E-07      0.34741586E-22
    0.295014694743         0.22965437E-07      0.87198458E+00     -0.66360602E-13      0.39650956E-07     -0.30175549E-20
    0.301291603141         0.25977515E-07      0.80515631E+00      0.12045279E-12      0.40551282E-07      0.60665426E-20
    0.307568511540         0.29304101E-07      0.74554313E+00     -0.36859691E-13      0.41492835E-07     -0.20514079E-20
    0.313845419939         0.32969333E-07      0.69198600E+00     -0.51493872E-13      0.42462491E-07     -0.31598299E-20
    0.320122328338         0.36998524E-07      0.64399551E+00     -0.54878114E-13      0.43477551E-07     -0.37049420E-20
    0.326399236737         0.41418179E-07      0.60067711E+00     -0.92456445E-13      0.44524264E-07     -0.68531914E-20
    0.332676145135         0.46256007E-07      0.56169654E+00     -0.71291559E-14      0.45620709E-07     -0.57902643E-21
    0.338953053534         0.51540931E-07      0.52636236E+00     -0.10972178E-12      0.46753200E-07     -0.97458420E-20
    0.345229961933         0.57303105E-07      0.49444378E+00      0.17369793E-13      0.47940261E-07      0.16841397E-20
    0.351506870332         0.63573913E-07      0.46540393E+00      0.44660228E-13      0.49168728E-07      0.47182382E-20
    0.357783778731         0.70385980E-07      0.43907744E+00      0.23897866E-14      0.50456885E-07      0.27462396E-21
    0.364060687129         0.77773174E-07      0.41505034E+00      0.22948673E-13      0.51792946E-07      0.28636993E-20
    0.370337595528         0.85770606E-07      0.39319787E+00     -0.28993952E-13      0.53194366E-07     -0.39224905E-20
    0.376614503927         0.94414629E-07      0.37320390E+00      0.12890208E-13      0.54651517E-07      0.18876262E-20
    0.382891412326         0.10374284E-06      0.35496736E+00      0.92612109E-14      0.56180385E-07      0.14657640E-20
    0.389168320724         0.11379405E-06      0.33825028E+00      0.33745248E-13      0.57774211E-07      0.57637945E-20
    0.395445229123         0.12460831E-06      0.32296579E+00     -0.68397549E-14      0.59447142E-07     -0.12589689E-20
    0.401722137522         0.13622687E-06      0.30893864E+00     -0.11859540E-14      0.61196004E-07     -0.23491929E-21
    0.407999045921         0.14869219E-06      0.29608890E+00     -0.64578588E-14      0.63032560E-07     -0.13747742E-20
    0.414275954320         0.16204789E-06      0.28429192E+00     -0.29055747E-13      0.64957900E-07     -0.66389516E-20
    0.420552862718         0.17633876E-06      0.27347201E+00      0.11955359E-13      0.66981347E-07      0.29282194E-20
    0.426829771117         0.19161071E-06      0.26354401E+00     -0.32049051E-14      0.69108590E-07     -0.84041550E-21
    0.433106679516         0.20791078E-06      0.25443498E+00      0.44248207E-14      0.71346513E-07      0.12407709E-20
    0.439383587915         0.22528707E-06      0.24609147E+00     -0.55678129E-14      0.73705994E-07     -0.16675961E-20
    0.445660496313         0.24378875E-06      0.23844353E+00     -0.54051472E-14      0.76191910E-07     -0.17271531E-20
    0.451937404712         0.26346597E-06      0.23146050E+00     -0.16517686E-15      0.78820091E-07     -0.56248282E-22
    0.458214313111         0.28436989E-06      0.22508651E+00     -0.20298613E-13      0.81597759E-07     -0.73585987E-20
    0.464491221510         0.30655259E-06      0.21929357E+00      0.19654162E-14      0.84540960E-07      0.75769744E-21
    0.470768129909         0.33006704E-06      0.21397845E+00      0.61399527E-14      0.87635271E-07      0.25146291E-20
    0.477045038307         0.35496707E-06      0.20921887E+00     -0.22228016E-14      0.90937566E-07     -0.96614696E-21
    0.483321946706         0.38130728E-06      0.20494012E+00     -0.11343969E-14      0.94445088E-07     -0.52277815E-21
    0.489598855105         0.40914305E-06      0.20113631E+00     -0.21215638E-14      0.98183627E-07     -0.10356301E-20
    0.495875763504         0.43853041E-06      0.19776029E+00     -0.62897182E-14      0.10215973E-06     -0.32491654E-20
    0.502152671902         0.46952606E-06      0.19482838E+00     -0.19779067E-13      0.10641184E-06     -0.10802979E-19
    0.508429580301         0.50218725E-06      0.19229459E+00     -0.57805904E-14      0.11094705E-06     -0.33351922E-20
    0.514706488700         0.53657174E-06      0.19018164E+00      0.36621682E-14      0.11581119E-06      0.22300789E-20
    0.520983397099         0.57273772E-06      0.18852332E+00     -0.60592930E-14      0.12106282E-06     -0.38910576E-20
    0.527260305498         0.61074378E-06      0.18723748E+00     -0.67286973E-14      0.12668948E-06     -0.45528021E-20
    0.533537213896         0.65064880E-06      0.18633682E+00     -0.51092517E-15      0.13273773E-06     -0.36395947E-21
    0.539814122295         0.69251188E-06      0.18584952E+00     -0.11665312E-13      0.13927021E-06     -0.87416447E-20
    0.546091030694         0.73639228E-06      0.18584869E+00     -0.13912100E-13      0.14639205E-06     -0.10958489E-19
    0.552367939093         0.78234932E-06      0.18623786E+00     -0.16532737E-13      0.15408275E-06     -0.13678259E-19
    0.558644847491         0.83044233E-06      0.18716262E+00     -0.64929558E-14      0.16251992E-06     -0.56380631E-20
    0.564921755890         0.88073054E-06      0.18844666E+00     -0.11466445E-13      0.17161570E-06     -0.10442328E-19
    0.571198664289         0.93327299E-06      0.19045544E+00     -0.12272366E-13      0.18177272E-06     -0.11712877E-19
    0.577475572688         0.98812849E-06      0.19277682E+00     -0.16293273E-13      0.19268522E-06     -0.16285532E-19
    0.583752481087         0.10453555E-05      0.19606654E+00     -0.92298909E-14      0.20509381E-06     -0.96548521E-20
    0.590029389485         0.11050119E-05      0.19956273E+00     -0.22502261E-14      0.21831650E-06     -0.24616895E-20
    0.596306297884         0.11671553E-05      0.20449276E+00     -0.10383404E-13      0.23380348E-06     -0.11871696E-19
    0.602583206283         0.12318424E-05      0.20926043E+00     -0.13964936E-14      0.24988434E-06     -0.16675961E-20
    0.608860114682         0.12991293E-05      0.21638952E+00     -0.76985632E-14      0.26970245E-06     -0.95952951E-20
    0.615137023081         0.13690713E-05      0.22198757E+00      0.18324191E-15      0.28860023E-06      0.23822802E-21
    0.621413931479         0.14417228E-05      0.23192571E+00     -0.82520613E-14      0.31431382E-06     -0.11183482E-19
    0.627690839878         0.15171371E-05      0.22986537E+00     -0.10095857E-13      0.32453862E-06     -0.14253976E-19
    0.633967748277         0.15953663E-05      0.12543441E+00     -0.79501255E-14      0.18438421E-06     -0.11686408E-19
    0.640244656676         0.16764615E-05      0.17144278E+00     -0.72943482E-14      0.26222894E-06     -0.11157012E-19
    0.646521565074         0.17604722E-05      0.29621911E+00     -0.54251027E-14      0.47116501E-06     -0.86291482E-20
    0.652798473473         0.18474468E-05      0.31625979E+00     -0.17004671E-13      0.52281807E-06     -0.28110906E-19
    0.659075381872         0.19374318E-05      0.35367199E+00     -0.99118828E-14      0.60730353E-06     -0.17020068E-19
    0.665352290271         0.20304724E-05      0.38807609E+00     -0.27633600E-13      0.69179294E-06     -0.49260260E-19
    0.671629198670         0.21266118E-05      0.45688981E+00     -0.37209275E-15      0.84505297E-06     -0.68821427E-21
    0.677906107068         0.22258916E-05      0.50935506E+00     -0.12586266E-13      0.97694225E-06     -0.24140439E-19
    0.684183015467         0.23283513E-05      0.68873146E+00     -0.75632533E-14      0.13691150E-05     -0.15034835E-19
    0.690459923866         0.24340282E-05      0.53517947E+00      0.42419283E-14      0.11020477E-05      0.87350273E-20
    0.696736832265         0.25429579E-05      0.11450978E+01     -0.29598682E-13      0.24413316E-05     -0.63103955E-19
    0.703013740663         0.26551734E-05      0.28911189E+01     -0.17660999E-13      0.63783570E-05     -0.38963516E-19
    0.709290649062         0.27707053E-05      0.75717321E+01     -0.32406687E-12      0.17277271E-04     -0.73945976E-18
    0.715567557461         0.28895822E-05      0.17113413E+02     -0.37560709E-12      0.40367778E-04     -0.88599646E-18
    0.721844465860         0.30118296E-05      0.22189092E+02     -0.12914436E-11      0.54080424E-04     -0.31475744E-17
    0.728121374259         0.31374707E-05      0.19385471E+02     -0.72688274E-12      0.48793960E-04     -0.18295912E-17
    0.734398282657         0.32665259E-05      0.18493736E+02     -0.13718536E-11      0.48049947E-04     -0.35643146E-17
    0.740675191056         0.33990128E-05      0.21236801E+02     -0.11236298E-11      0.56928261E-04     -0.30120492E-17
    0.746952099455         0.35349461E-05      0.21883948E+02     -0.70350687E-12      0.60496399E-04     -0.19447876E-17
    0.753229007854         0.36743374E-05      0.22017759E+02     -0.15005617E-11      0.62739190E-04     -0.42758223E-17
    0.759505916252         0.38171952E-05      0.21598516E+02      0.20888721E-12      0.63409003E-04      0.61325185E-18
    0.765782824651         0.39635250E-05      0.18034873E+02     -0.48300072E-12      0.54525904E-04     -0.14602848E-17
    0.772059733050         0.41133290E-05      0.17511583E+02     -0.10451417E-12      0.54498151E-04     -0.32526065E-18
    0.778336641449         0.42666060E-05      0.19727231E+02     -0.83908241E-12      0.63167691E-04     -0.26867885E-17
    0.784613549848         0.44233513E-05      0.20208622E+02     -0.43417350E-12      0.66549706E-04     -0.14297916E-17
    0.790890458246         0.45835571E-05      0.20198977E+02     -0.11649658E-11      0.68380063E-04     -0.39437854E-17
    0.797167366645         0.47472116E-05      0.20040447E+02     -0.74023737E-12      0.69712440E-04     -0.25749802E-17
    0.803444275044         0.49142998E-05      0.19730399E+02     -0.31388358E-12      0.70494554E-04     -0.11214716E-17
    0.809721183443         0.50848028E-05      0.19446979E+02     -0.10169397E-11      0.71335312E-04     -0.37303331E-17
    0.815998091842         0.52586980E-05      0.19030839E+02     -0.60212065E-12      0.71640867E-04     -0.22666602E-17
    0.822275000240         0.54359592E-05      0.18531898E+02     -0.12643036E-11      0.71563704E-04     -0.48822979E-17
    0.828551908639         0.56165561E-05      0.17907586E+02     -0.84367082E-12      0.70908978E-04     -0.33406979E-17
    0.834828817038         0.58004548E-05      0.17161522E+02     -0.14216625E-11      0.69652100E-04     -0.57699884E-17
    0.841105725437         0.59876175E-05      0.16381879E+02     -0.10184813E-11      0.68120995E-04     -0.42351647E-17
    0.847382633835         0.61780022E-05      0.15502971E+02     -0.15179461E-11      0.66023300E-04     -0.64645555E-17
    0.853659542234         0.63715632E-05      0.14652059E+02     -0.30462901E-12      0.63881300E-04     -0.13281477E-17
    0.859936450633         0.65682506E-05      0.13720570E+02      0.75938696E-15      0.61216614E-04      0.33881318E-20
    0.866213359032         0.67680107E-05      0.12830162E+02     -0.46916695E-12      0.58557445E-04     -0.21412993E-17
    0.872490267431         0.69707857E-05      0.11892332E+02     -0.18294725E-12      0.55501146E-04     -0.85380921E-18
    0.878767175829         0.71765137E-05      0.10992557E+02     -0.56322249E-12      0.52438738E-04     -0.26867885E-17
    0.885044084228         0.73851287E-05      0.10097886E+02     -0.30654336E-12      0.49219526E-04     -0.14941661E-17
    0.891320992627         0.75965609E-05      0.92250259E+01     -0.61113892E-12      0.45926599E-04     -0.30425423E-17
    0.897597901026         0.78107362E-05      0.84098765E+01     -0.38526911E-12      0.42747780E-04     -0.19583402E-17
    0.903874809424         0.80275766E-05      0.75767170E+01     -0.19004800E-12      0.39307104E-04     -0.98594635E-18
    0.910151717823         0.82470002E-05      0.68468718E+01     -0.42248200E-12      0.36240002E-04     -0.22361670E-17
    0.916428626222         0.84689209E-05      0.60118217E+01     -0.24384176E-12      0.32452587E-04     -0.13162892E-17
    0.922705534621         0.86932488E-05      0.53491973E+01     -0.40909342E-12      0.29438888E-04     -0.22514136E-17
    0.928982443020         0.89198899E-05      0.45412506E+01     -0.25250547E-12      0.25470722E-04     -0.14162391E-17
    0.935259351418         0.91487464E-05      0.53138728E+01     -0.48592128E-12      0.30363686E-04     -0.27765740E-17
    0.941536259817         0.93797169E-05      0.65820159E+01     -0.93738865E-13      0.38302349E-04     -0.54548922E-18
    0.947813168216         0.96126957E-05      0.54875288E+01     -0.27651616E-12      0.32509709E-04     -0.16381617E-17
    0.954090076615         0.98475739E-05      0.44275489E+01     -0.13234195E-12      0.26694208E-04     -0.79790504E-18
    0.960366985013         0.10084238E-04      0.39603865E+01     -0.35628728E-13      0.24291664E-04     -0.21853450E-18
    0.966643893412         0.10322573E-04      0.34487375E+01     -0.15561436E-12      0.21512724E-04     -0.97069976E-18
    0.972920801811         0.10562458E-04      0.31354463E+01     -0.75598893E-13      0.19883859E-04     -0.47942065E-18
    0.979197710210         0.10803769E-04      0.27875555E+01     -0.16796255E-12      0.17965621E-04     -0.10825081E-17
    0.985474618609         0.11046380E-04      0.25787341E+01     -0.10167976E-12      0.16884760E-04     -0.66576790E-18
    0.991751527007         0.11290161E-04      0.24550125E+01     -0.18660655E-12      0.16325435E-04     -0.12409033E-17
    0.998028435406         0.11534978E-04      0.31208415E+01     -0.17288681E-12      0.21069749E-04     -0.11672114E-17
    1.004305343805         0.11780695E-04      0.33984268E+01     -0.31052816E-12      0.23286105E-04     -0.21277468E-17
    1.010582252204         0.12027173E-04      0.23560826E+01     -0.16692261E-12      0.16379333E-04     -0.11604351E-17
    1.016859160602         0.12274269E-04      0.17115121E+01     -0.85772856E-13      0.12067814E-04     -0.60478152E-18
