
 # six columns.
 # Omega (column 1); |pulse ft|^2 (2); cross section (Mb) (3); flux (column 5)

  0.0000      0.183498E-13      0.000000E+00     -0.000000E+00      0.318197E-06     -0.101644E-19
  0.0063      0.245581E-13      0.105350E+06      0.355829E-08      0.321184E-06      0.108483E-19
  0.0125      0.485015E-13      0.107708E+06      0.289781E-08      0.324261E-06      0.872407E-20
  0.0188      0.105851E-12      0.747306E+05     -0.180752E-08      0.327339E-06     -0.791736E-20
  0.0251      0.221788E-12      0.480156E+05     -0.993811E-09      0.330510E-06     -0.684078E-20
  0.0314      0.429632E-12      0.312812E+05     -0.197835E-08      0.333682E-06     -0.211034E-19
  0.0376      0.768987E-12      0.211776E+05     -0.273928E-09      0.336952E-06     -0.435841E-20
  0.0439      0.128348E-11      0.149468E+05      0.764956E-10      0.340223E-06      0.174122E-20
  0.0502      0.201818E-11      0.109712E+05     -0.145426E-09      0.343596E-06     -0.455446E-20
  0.0565      0.301674E-11      0.833822E+04      0.387291E-09      0.346970E-06      0.161160E-19
  0.0627      0.431848E-11      0.653690E+04     -0.269457E-09      0.350450E-06     -0.144459E-19
  0.0690      0.595542E-11      0.526595E+04     -0.882791E-10      0.353932E-06     -0.593337E-20
  0.0753      0.794944E-11      0.434736E+04     -0.113306E-09      0.357524E-06     -0.931819E-20
  0.0816      0.103097E-10      0.366796E+04     -0.365691E-09      0.361118E-06     -0.360030E-19
  0.0878      0.130303E-10      0.315745E+04     -0.105237E-10      0.364825E-06     -0.121596E-20
  0.0941      0.160887E-10      0.276776E+04     -0.221652E-10      0.368537E-06     -0.295138E-20
  0.1004      0.194445E-10      0.246815E+04     -0.579749E-10      0.372367E-06     -0.874661E-20
  0.1067      0.230388E-10      0.223607E+04     -0.156348E-11      0.376202E-06     -0.263043E-21
  0.1129      0.267948E-10      0.205714E+04      0.217905E-09      0.380159E-06      0.402688E-19
  0.1192      0.306186E-10      0.192006E+04      0.526844E-10      0.384122E-06      0.105399E-19
  0.1255      0.344014E-10      0.181803E+04     -0.468026E-10      0.388213E-06     -0.999400E-20
  0.1317      0.380221E-10      0.174538E+04      0.408492E-11      0.392311E-06      0.918170E-21
  0.1380      0.413513E-10      0.169941E+04      0.304015E-10      0.396541E-06      0.709390E-20
  0.1443      0.442556E-10      0.167781E+04      0.181247E-10      0.400780E-06      0.432946E-20
  0.1506      0.466028E-10      0.168073E+04     -0.212474E-10      0.405156E-06     -0.512190E-20
  0.1568      0.482681E-10      0.170866E+04      0.138044E-11      0.409544E-06      0.330872E-21
  0.1631      0.491401E-10      0.176478E+04     -0.134870E-09      0.414073E-06     -0.316446E-19
  0.1694      0.491274E-10      0.185324E+04     -0.374694E-10      0.418616E-06     -0.846371E-20
  0.1757      0.481660E-10      0.198220E+04     -0.352171E-10      0.423306E-06     -0.752073E-20
  0.1819      0.462254E-10      0.216296E+04      0.200648E-10      0.428011E-06      0.397047E-20
  0.1882      0.433154E-10      0.241497E+04     -0.236279E-10      0.432870E-06     -0.423516E-20
  0.1945      0.394919E-10      0.276791E+04      0.714884E-10      0.437745E-06      0.113059E-19
  0.2008      0.348617E-10      0.327391E+04     -0.818095E-10      0.442781E-06     -0.110644E-19
  0.2070      0.295871E-10      0.402353E+04     -0.146940E-09      0.447836E-06     -0.163550E-19
  0.2133      0.238877E-10      0.519439E+04     -0.117219E-09      0.453058E-06     -0.102240E-19
  0.2196      0.180423E-10      0.716149E+04     -0.167516E-09      0.458301E-06     -0.107203E-19
  0.2259      0.123876E-10      0.108554E+05      0.101389E-09      0.463719E-06      0.433112E-20
  0.2321      0.731587E-11      0.191132E+05     -0.218233E-09      0.469161E-06     -0.535682E-20
  0.2384      0.326987E-11      0.444453E+05      0.638362E-09      0.474785E-06      0.681928E-20
  0.2447      0.736039E-12      0.205058E+06     -0.415049E-08      0.480436E-06     -0.972434E-20
  0.2510      0.234946E-12      0.666889E+06     -0.697343E-07      0.486278E-06     -0.508484E-19
  0.2572      0.230973E-11      0.703714E+05     -0.119791E-08      0.492149E-06     -0.837769E-20
  0.2635      0.751222E-11      0.224377E+05      0.172257E-09      0.498219E-06      0.382488E-20
  0.2698      0.163870E-10      0.106599E+05      0.324506E-09      0.504323E-06      0.153525E-19
  0.2760      0.294538E-10      0.614467E+04     -0.871952E-10      0.510635E-06     -0.724610E-20
  0.2823      0.471878E-10      0.397133E+04     -0.778259E-10      0.516985E-06     -0.101313E-19
  0.2886      0.700000E-10      0.277137E+04      0.655390E-10      0.523551E-06      0.123812E-19
  0.2949      0.982154E-10      0.204363E+04      0.460938E-10      0.530161E-06      0.119577E-19
  0.3011      0.132052E-09      0.157233E+04     -0.140088E-10      0.536997E-06     -0.478441E-20
  0.3074      0.171602E-09      0.125099E+04     -0.379762E-10      0.543881E-06     -0.165105E-19
  0.3137      0.216807E-09      0.102359E+04     -0.355640E-10      0.551003E-06     -0.191443E-19
  0.3200      0.267450E-09      0.857388E+03     -0.136512E-10      0.558178E-06     -0.888723E-20
  0.3262      0.323129E-09      0.733186E+03     -0.779754E-11      0.565602E-06     -0.601526E-20
  0.3325      0.383258E-09      0.638383E+03     -0.394371E-11      0.573086E-06     -0.354033E-20
  0.3388      0.447050E-09      0.565149E+03      0.775874E-11      0.580830E-06      0.797402E-20
  0.3451      0.513522E-09      0.507845E+03      0.920312E-11      0.588642E-06      0.106673E-19
  0.3513      0.581498E-09      0.462904E+03     -0.129721E-10      0.596726E-06     -0.167223E-19
  0.3576      0.649619E-09      0.427531E+03      0.239939E-11      0.604888E-06      0.339475E-20
  0.3639      0.716361E-09      0.400008E+03      0.881720E-11      0.613333E-06      0.135194E-19
  0.3702      0.780065E-09      0.378874E+03     -0.644265E-11      0.621866E-06     -0.105747E-19
  0.3764      0.838966E-09      0.363332E+03     -0.892050E-11      0.630696E-06     -0.154848E-19
  0.3827      0.891241E-09      0.352644E+03      0.485236E-11      0.639625E-06      0.880120E-20
  0.3890      0.935056E-09      0.346566E+03      0.184286E-10      0.648866E-06      0.345034E-19
  0.3952      0.968624E-09      0.344851E+03     -0.438920E-11      0.658218E-06     -0.837769E-20
  0.4015      0.990278E-09      0.347703E+03      0.751010E-12      0.667896E-06      0.144260E-20
  0.4078      0.998537E-09      0.355357E+03      0.611395E-11      0.677702E-06      0.116599E-19
  0.4141      0.992186E-09      0.368570E+03     -0.123891E-10      0.687847E-06     -0.231214E-19
  0.4203      0.970361E-09      0.388293E+03     -0.309899E-11      0.698139E-06     -0.557189E-20
  0.4266      0.932633E-09      0.416283E+03      0.320252E-11      0.708785E-06      0.545277E-20
  0.4329      0.879094E-09      0.454968E+03      0.850167E-11      0.719599E-06      0.134466E-19
  0.4392      0.810440E-09      0.508441E+03     -0.848994E-11      0.730781E-06     -0.122026E-19
  0.4454      0.728052E-09      0.583001E+03     -0.455372E-11      0.742159E-06     -0.579688E-20
  0.4517      0.634067E-09      0.689599E+03      0.178197E-10      0.753916E-06      0.194818E-19
  0.4580      0.531441E-09      0.847456E+03      0.229327E-10      0.765902E-06      0.207258E-19
  0.4643      0.423997E-09      0.109418E+04      0.174902E-11      0.778291E-06      0.124408E-20
  0.4705      0.316455E-09      0.151001E+04      0.917174E-11      0.790962E-06      0.480426E-20
  0.4768      0.214450E-09      0.229518E+04      0.577685E-10      0.803996E-06      0.202361E-19
  0.4831      0.124512E-09      0.407170E+04      0.106211E-09      0.817375E-06      0.213214E-19
  0.4894      0.540328E-10      0.966463E+04      0.158515E-10      0.831134E-06      0.136319E-20
  0.4956      0.111953E-10      0.480495E+05      0.383669E-09      0.845324E-06      0.674979E-20
  0.5019      0.487533E-11      0.113653E+06      0.153245E-08      0.859842E-06      0.115938E-19
  0.5082      0.445050E-10      0.128265E+05      0.388063E-11      0.874896E-06      0.264698E-21
  0.5144      0.139903E-09      0.420105E+04      0.250569E-10      0.889806E-06      0.530719E-20
  0.5207      0.301067E-09      0.201482E+04     -0.624261E-10      0.907287E-06     -0.281109E-19
  0.5270      0.537928E-09      0.116520E+04     -0.539382E-11      0.926336E-06     -0.428810E-20
  0.5333      0.860073E-09      0.758075E+03      0.326619E-11      0.952253E-06      0.410282E-20
  0.5395      0.127643E-08      0.522571E+03      0.156731E-10      0.962867E-06      0.288785E-19
  0.5458      0.179491E-08      0.371224E+03      0.373087E-11      0.950787E-06      0.955559E-20
  0.5521      0.242207E-08      0.283211E+03      0.131696E-11      0.967694E-06      0.449986E-20
  0.5584      0.316268E-08      0.228620E+03      0.612014E-11      0.100857E-05      0.269992E-19
  0.5646      0.401936E-08      0.190141E+03      0.333725E-11      0.105418E-05      0.185024E-19
  0.5709      0.499214E-08      0.162354E+03     -0.118544E-11      0.110569E-05     -0.807328E-20
  0.5772      0.607809E-08      0.140723E+03      0.235275E-11      0.115416E-05      0.192965E-19
  0.5835      0.727091E-08      0.123706E+03      0.249814E-11      0.120067E-05      0.242463E-19
  0.5897      0.856065E-08      0.108676E+03      0.383029E-11      0.122867E-05      0.433046E-19
  0.5960      0.993334E-08      0.964993E+02      0.253062E-11      0.125262E-05      0.328490E-19
  0.6023      0.113708E-07      0.867180E+02     -0.123489E-11      0.127513E-05     -0.181583E-19
  0.6086      0.128506E-07      0.781906E+02      0.422638E-11      0.128597E-05      0.695096E-19
  0.6148      0.143459E-07      0.734793E+02      0.589901E-12      0.133534E-05      0.107203E-19
  0.6211      0.158256E-07      0.698835E+02      0.350798E-12      0.138683E-05      0.696155E-20
  0.6274      0.172547E-07      0.826380E+02      0.327960E-11      0.177015E-05      0.702508E-19
  0.6337      0.185944E-07      0.103324E+03      0.106318E-11      0.236148E-05      0.242993E-19
  0.6399      0.198035E-07      0.915319E+02     -0.412927E-12      0.220616E-05     -0.995264E-20
  0.6462      0.208383E-07      0.653584E+02      0.224903E-11      0.164154E-05      0.564865E-19
  0.6525      0.216545E-07      0.567084E+02      0.133123E-13      0.146584E-05      0.344107E-21
  0.6587      0.222084E-07      0.576905E+02      0.249603E-11      0.151480E-05      0.655392E-19
  0.6650      0.224582E-07      0.608648E+02      0.126602E-11      0.160088E-05      0.332990E-19
  0.6713      0.223666E-07      0.656849E+02     -0.424330E-12      0.170453E-05     -0.110114E-19
  0.6776      0.219030E-07      0.697595E+02      0.352412E-11      0.175634E-05      0.887267E-19
  0.6838      0.210461E-07      0.775931E+02      0.839255E-12      0.185991E-05      0.201170E-19
  0.6901      0.197871E-07      0.933574E+02     -0.663780E-12      0.208479E-05     -0.148231E-19
  0.6964      0.181332E-07      0.104257E+03      0.265216E-11      0.211436E-05      0.537866E-19
  0.7027      0.161114E-07      0.115443E+03      0.143182E-11      0.206160E-05      0.255698E-19
  0.7089      0.137728E-07      0.141622E+03     -0.109511E-11      0.214289E-05     -0.165701E-19
  0.7152      0.111976E-07      0.183135E+03      0.646443E-11      0.223314E-05      0.788270E-19
  0.7215      0.849960E-08      0.240197E+03      0.559664E-11      0.220390E-05      0.513514E-19
  0.7278      0.583195E-08      0.345081E+03      0.170828E-10      0.215378E-05      0.106620E-18
  0.7340      0.339288E-08      0.600545E+03      0.138230E-10      0.216198E-05      0.497632E-19
  0.7403      0.143171E-08      0.143779E+04      0.151834E-10      0.216566E-05      0.228699E-19
  0.7466      0.255274E-09      0.828416E+04      0.310710E-09      0.220614E-05      0.827445E-19
  0.7529      0.234472E-09      0.955545E+04      0.748584E-10      0.231785E-05      0.181583E-19
  0.7591      0.181107E-08      0.133541E+04     -0.626800E-12      0.248136E-05     -0.116467E-20
  0.7654      0.550462E-08      0.481039E+03      0.132128E-10      0.269446E-05      0.740095E-19
  0.7717      0.119194E-07      0.253855E+03      0.381967E-11      0.305394E-05      0.459515E-19
  0.7779      0.217515E-07      0.165196E+03      0.894616E-11      0.359741E-05      0.194818E-18
  0.7842      0.357955E-07      0.122240E+03      0.396411E-11      0.434564E-05      0.140925E-18
  0.7905      0.549514E-07      0.984612E+02      0.836994E-12      0.533085E-05      0.453163E-19
  0.7968      0.802307E-07      0.850186E+02      0.412845E-11      0.666767E-05      0.323778E-18
  0.8030      0.112763E-06      0.765987E+02      0.209889E-11      0.837725E-05      0.229546E-18
  0.8093      0.153801E-06      0.706955E+02      0.466407E-12      0.104637E-04      0.690332E-19
  0.8156      0.204726E-06      0.665080E+02      0.288117E-11      0.130025E-04      0.563277E-18
  0.8219      0.267051E-06      0.629884E+02      0.147100E-11      0.159407E-04      0.372271E-18
  0.8281      0.342427E-06      0.604526E+02      0.841651E-13      0.194685E-04      0.271051E-19
  0.8344      0.432643E-06      0.577575E+02      0.220655E-11      0.233244E-04      0.891079E-18
  0.8407      0.539627E-06      0.554566E+02      0.101319E-11      0.277246E-04      0.506526E-18
  0.8470      0.665449E-06      0.527370E+02      0.286250E-11      0.322715E-04      0.175166E-17
  0.8532      0.812319E-06      0.503002E+02      0.167693E-11      0.372976E-04      0.124344E-17
  0.8595      0.982584E-06      0.476388E+02      0.610749E-12      0.424164E-04      0.543795E-18
  0.8658      0.117872E-05      0.451709E+02      0.223347E-11      0.478978E-04      0.236830E-17
  0.8721      0.140335E-05      0.426322E+02      0.121376E-11      0.534335E-04      0.152127E-17
  0.8783      0.165920E-05      0.401402E+02      0.313189E-12      0.590572E-04      0.460786E-18
  0.8846      0.194910E-05      0.377774E+02      0.167029E-11      0.648294E-04      0.286636E-17
  0.8909      0.227602E-05      0.353702E+02      0.820720E-12      0.703801E-04      0.163308E-17
  0.8971      0.264300E-05      0.333004E+02      0.198166E-11      0.764071E-04      0.454687E-17
  0.9034      0.305314E-05      0.310309E+02      0.120870E-11      0.816774E-04      0.318146E-17
  0.9097      0.350963E-05      0.291359E+02      0.528831E-12      0.875477E-04      0.158903E-17
  0.9160      0.401569E-05      0.268019E+02      0.146459E-11      0.915159E-04      0.500088E-17
  0.9222      0.457457E-05      0.250158E+02      0.845436E-12      0.966429E-04      0.326616E-17
  0.9285      0.518953E-05      0.220965E+02      0.288765E-12      0.961865E-04      0.125700E-17
  0.9348      0.586379E-05      0.252398E+02      0.124483E-11      0.123311E-03      0.608170E-17
  0.9411      0.660056E-05      0.318672E+02      0.919169E-12      0.174083E-03      0.502121E-17
  0.9473      0.740296E-05      0.297539E+02      0.242714E-12      0.181091E-03      0.147723E-17
  0.9536      0.827401E-05      0.264877E+02      0.117322E-11      0.178995E-03      0.792823E-17
  0.9599      0.921663E-05      0.253049E+02      0.599852E-12      0.189238E-03      0.448589E-17
  0.9662      0.102336E-04      0.241404E+02      0.144568E-11      0.199148E-03      0.119262E-16
  0.9724      0.113274E-04      0.234899E+02      0.920191E-12      0.213110E-03      0.834836E-17
  0.9787      0.125005E-04      0.228628E+02      0.423014E-12      0.227434E-03      0.420806E-17
  0.9850      0.137550E-04      0.225443E+02      0.123359E-11      0.245201E-03      0.134170E-16
  0.9913      0.150928E-04      0.223019E+02      0.756559E-12      0.264470E-03      0.897177E-17
  0.9975      0.165153E-04      0.228879E+02      0.307946E-12      0.295134E-03      0.397089E-17
  1.0038      0.180239E-04      0.226371E+02      0.112222E-11      0.316572E-03      0.156938E-16
  1.0101      0.196193E-04      0.216765E+02      0.627101E-12      0.327921E-03      0.948677E-17
  1.0164      0.213020E-04      0.217147E+02      0.179327E-12      0.354474E-03      0.292735E-17
  1.0226      0.230722E-04      0.217661E+02      0.967149E-12      0.382477E-03      0.169949E-16
  1.0289      0.249293E-04      0.215070E+02      0.511341E-12      0.405853E-03      0.964940E-17
  1.0352      0.268726E-04      0.217667E+02      0.690412E-13      0.440091E-03      0.139591E-17
  1.0414      0.289007E-04      0.222998E+02     -0.392528E-12      0.481976E-03     -0.848388E-17
  1.0477      0.310118E-04      0.223859E+02      0.169073E-11      0.516071E-03      0.389771E-16
  1.0540      0.332035E-04      0.223285E+02      0.122624E-11      0.547846E-03      0.300866E-16
  1.0603      0.354730E-04      0.222974E+02      0.763504E-12      0.581017E-03      0.198951E-16
  1.0665      0.378168E-04      0.221567E+02      0.301321E-12      0.611878E-03      0.832125E-17
  1.0728      0.402310E-04      0.220484E+02     -0.154981E-12      0.643971E-03     -0.452654E-17
  1.0791      0.427110E-04      0.219843E+02      0.189216E-11      0.677716E-03      0.583301E-16
  1.0854      0.452519E-04      0.218504E+02      0.142819E-11      0.709534E-03      0.463767E-16
  1.0916      0.478480E-04      0.217150E+02      0.970250E-12      0.741305E-03      0.331224E-16
  1.0979      0.504932E-04      0.215974E+02      0.519106E-12      0.773607E-03      0.185941E-16
  1.1042      0.531809E-04      0.214673E+02      0.729802E-13      0.805276E-03      0.273761E-17
  1.1105      0.559040E-04      0.213030E+02     -0.365690E-12      0.835283E-03     -0.143386E-16
  1.1167      0.586550E-04      0.211121E+02      0.159882E-11      0.863656E-03      0.654045E-16
  1.1230      0.614257E-04      0.209673E+02      0.115607E-11      0.893231E-03      0.492499E-16
  1.1293      0.642079E-04      0.207933E+02      0.716138E-12      0.920795E-03      0.317129E-16
  1.1356      0.669926E-04      0.206044E+02      0.284332E-12      0.946742E-03      0.130646E-16
  1.1418      0.697709E-04      0.203924E+02     -0.141246E-12      0.970500E-03     -0.672205E-17
  1.1481      0.725332E-04      0.201722E+02      0.173741E-11      0.992574E-03      0.854893E-16
  1.1544      0.752700E-04      0.199354E+02      0.130657E-11      0.101240E-02      0.663532E-16
  1.1606      0.779713E-04      0.196918E+02      0.882741E-12      0.103032E-02      0.461870E-16
  1.1669      0.806272E-04      0.194350E+02      0.470440E-12      0.104587E-02      0.253161E-16
  1.1732      0.832277E-04      0.191680E+02      0.686797E-13      0.105908E-02      0.379471E-17
  1.1795      0.857627E-04      0.188887E+02      0.182544E-11      0.106971E-02      0.103379E-15
  1.1857      0.882220E-04      0.186029E+02      0.141353E-11      0.107800E-02      0.819115E-16
  1.1920      0.905958E-04      0.183167E+02      0.101471E-11      0.108424E-02      0.600648E-16
  1.1983      0.928742E-04      0.180480E+02      0.625933E-12      0.108947E-02      0.377844E-16
  1.2046      0.950476E-04      0.178312E+02      0.251398E-12      0.109583E-02      0.154499E-16
  1.2108      0.971068E-04      0.177496E+02     -0.118033E-12      0.110868E-02     -0.737257E-17
  1.2171      0.990428E-04      0.180063E+02      0.155585E-11      0.114122E-02      0.986082E-16
  1.2234      0.100847E-03      0.190116E+02      0.125219E-11      0.122059E-02      0.803936E-16
  1.2297      0.102511E-03      0.212821E+02      0.959316E-12      0.138182E-02      0.622874E-16
  1.2359      0.104028E-03      0.239910E+02      0.587127E-12      0.157273E-02      0.384892E-16
  1.2422      0.105390E-03      0.250956E+02      0.968067E-13      0.165827E-02      0.639679E-17
  1.2485      0.106591E-03      0.242089E+02      0.234547E-11      0.160978E-02      0.155962E-15
  1.2548      0.107625E-03      0.226734E+02      0.172844E-11      0.151469E-02      0.115468E-15
