 
 # eight columns.
 # Omega (column 1); |pulse ft|^2 (2); cross section (Mb) (3); flux (5); flux in
 tegral domega (7)
 
  0.0000      0.190004E-09      0.000000E+00      0.000000E+00     -0.802049E-10     -0.314645E-18     -0.503439E-12     -0.197500E-20
  0.0063      0.221602E-09     -0.369326E-01     -0.143235E-09     -0.808127E-10     -0.313415E-18     -0.101069E-11     -0.394228E-20
  0.0126      0.316496E-09     -0.169210E-01     -0.200839E-09     -0.264401E-10     -0.313822E-18     -0.117665E-11     -0.591211E-20
  0.0188      0.474996E-09     -0.111467E-01     -0.200678E-09     -0.174266E-10     -0.313737E-18     -0.128604E-11     -0.788141E-20
  0.0251      0.697615E-09     -0.801836E-02     -0.181827E-09     -0.138082E-10     -0.313120E-18     -0.137271E-11     -0.984683E-20
  0.0314      0.985073E-09     -0.526044E-02     -0.161602E-09     -0.102334E-10     -0.314370E-18     -0.143695E-11     -0.118201E-19
  0.0377      0.133830E-08     -0.659643E-02     -0.142262E-09     -0.145281E-10     -0.313320E-18     -0.152814E-11     -0.137868E-19
  0.0439      0.175843E-08     -0.755847E-02     -0.126588E-09     -0.187481E-10     -0.313991E-18     -0.164582E-11     -0.157577E-19
  0.0502      0.224681E-08     -0.547527E-02     -0.112731E-09     -0.151837E-10     -0.312619E-18     -0.174113E-11     -0.177200E-19
  0.0565      0.280500E-08     -0.379470E-02     -0.101890E-09     -0.116779E-10     -0.313559E-18     -0.181443E-11     -0.196881E-19
  0.0628      0.343477E-08     -0.342475E-02     -0.924902E-10     -0.116151E-10     -0.313683E-18     -0.188733E-11     -0.216571E-19
  0.0690      0.413811E-08     -0.309840E-02     -0.841471E-10     -0.115092E-10     -0.312569E-18     -0.195958E-11     -0.236191E-19
  0.0753      0.491724E-08     -0.269544E-02     -0.776424E-10     -0.109060E-10     -0.314149E-18     -0.202803E-11     -0.255909E-19
  0.0816      0.577457E-08     -0.234493E-02     -0.713419E-10     -0.102850E-10     -0.312909E-18     -0.209259E-11     -0.275550E-19
  0.0879      0.671277E-08     -0.216424E-02     -0.664260E-10     -0.102465E-10     -0.314491E-18     -0.215691E-11     -0.295291E-19
  0.0942      0.773471E-08     -0.199699E-02     -0.615522E-10     -0.101677E-10     -0.313396E-18     -0.222073E-11     -0.314962E-19
  0.1004      0.884350E-08     -0.199567E-02     -0.576327E-10     -0.108916E-10     -0.314536E-18     -0.228909E-11     -0.334705E-19
  0.1067      0.100425E-07     -0.197697E-02     -0.538457E-10     -0.115316E-10     -0.314081E-18     -0.236148E-11     -0.354420E-19
  0.1130      0.113353E-07     -0.200891E-02     -0.502458E-10     -0.124916E-10     -0.312433E-18     -0.243988E-11     -0.374031E-19
  0.1193      0.127257E-07     -0.201964E-02     -0.476107E-10     -0.133567E-10     -0.314869E-18     -0.252372E-11     -0.393795E-19
  0.1255      0.142178E-07     -0.209200E-02     -0.446414E-10     -0.146846E-10     -0.313356E-18     -0.261590E-11     -0.413464E-19
  0.1318      0.158160E-07     -0.213770E-02     -0.422632E-10     -0.158971E-10     -0.314294E-18     -0.271568E-11     -0.433192E-19
  0.1381      0.175247E-07     -0.223416E-02     -0.398736E-10     -0.175727E-10     -0.313624E-18     -0.282598E-11     -0.452878E-19
  0.1444      0.193489E-07     -0.229388E-02     -0.377358E-10     -0.190544E-10     -0.313457E-18     -0.294559E-11     -0.472553E-19
  0.1506      0.212936E-07     -0.226749E-02     -0.357877E-10     -0.198646E-10     -0.313522E-18     -0.307027E-11     -0.492233E-19
  0.1569      0.233642E-07     -0.223051E-02     -0.339169E-10     -0.205832E-10     -0.312985E-18     -0.319947E-11     -0.511879E-19
  0.1632      0.255664E-07     -0.227202E-02     -0.323970E-10     -0.220600E-10     -0.314556E-18     -0.333794E-11     -0.531623E-19
  0.1695      0.279061E-07     -0.229337E-02     -0.307435E-10     -0.234048E-10     -0.313752E-18     -0.348485E-11     -0.551317E-19
  0.1758      0.303895E-07     -0.233689E-02     -0.292959E-10     -0.250438E-10     -0.313956E-18     -0.364205E-11     -0.571024E-19
  0.1820      0.330230E-07     -0.235990E-02     -0.280196E-10     -0.265345E-10     -0.315049E-18     -0.380860E-11     -0.590799E-19
  0.1883      0.358136E-07     -0.229176E-02     -0.267032E-10     -0.270142E-10     -0.314765E-18     -0.397817E-11     -0.610557E-19
  0.1946      0.387682E-07     -0.222618E-02     -0.255152E-10     -0.274898E-10     -0.315072E-18     -0.415072E-11     -0.630333E-19
  0.2009      0.418942E-07     -0.234419E-02     -0.242845E-10     -0.303036E-10     -0.313927E-18     -0.434093E-11     -0.650038E-19
  0.2071      0.451994E-07     -0.243922E-02     -0.233506E-10     -0.329888E-10     -0.315801E-18     -0.454800E-11     -0.669861E-19
  0.2134      0.486917E-07     -0.246933E-02     -0.222332E-10     -0.349182E-10     -0.314395E-18     -0.476718E-11     -0.689595E-19
  0.2197      0.523794E-07     -0.249443E-02     -0.211891E-10     -0.368604E-10     -0.313114E-18     -0.499855E-11     -0.709249E-19
  0.2260      0.562712E-07     -0.253691E-02     -0.203094E-10     -0.391549E-10     -0.313457E-18     -0.524432E-11     -0.728924E-19
  0.2322      0.603761E-07     -0.257629E-02     -0.194582E-10     -0.415101E-10     -0.313518E-18     -0.550488E-11     -0.748604E-19
  0.2385      0.647032E-07     -0.260805E-02     -0.186303E-10     -0.438485E-10     -0.313228E-18     -0.578011E-11     -0.768265E-19
  0.2448      0.692623E-07     -0.264315E-02     -0.177832E-10     -0.463501E-10     -0.311846E-18     -0.607105E-11     -0.787839E-19
  0.2511      0.740633E-07     -0.269326E-02     -0.172464E-10     -0.492400E-10     -0.315310E-18     -0.638012E-11     -0.807631E-19
  0.2574      0.791164E-07     -0.273708E-02     -0.163916E-10     -0.521516E-10     -0.312321E-18     -0.670747E-11     -0.827235E-19
  0.2636      0.844322E-07     -0.278043E-02     -0.158004E-10     -0.551909E-10     -0.313634E-18     -0.705390E-11     -0.846921E-19
  0.2699      0.900218E-07     -0.283851E-02     -0.151632E-10     -0.586769E-10     -0.313449E-18     -0.742221E-11     -0.866596E-19
  0.2762      0.958965E-07     -0.290909E-02     -0.146106E-10     -0.626042E-10     -0.314424E-18     -0.781517E-11     -0.886332E-19
  0.2825      0.102068E-06     -0.298929E-02     -0.140244E-10     -0.669487E-10     -0.314091E-18     -0.823540E-11     -0.906048E-19
  0.2887      0.108548E-06     -0.308859E-02     -0.133897E-10     -0.719648E-10     -0.311983E-18     -0.868712E-11     -0.925630E-19
  0.2950      0.115349E-06     -0.320987E-02     -0.129869E-10     -0.777857E-10     -0.314716E-18     -0.917537E-11     -0.945385E-19
  0.3013      0.122484E-06     -0.341981E-02     -0.124020E-10     -0.861661E-10     -0.312482E-18     -0.971623E-11     -0.964999E-19
  0.3076      0.129965E-06     -0.369432E-02     -0.119962E-10     -0.967526E-10     -0.314176E-18     -0.103235E-10     -0.984720E-19
  0.3138      0.137807E-06     -0.445195E-02     -0.115442E-10     -0.121157E-09     -0.314169E-18     -0.110840E-10     -0.100444E-18
  0.3201      0.146023E-06     -0.278541E-02     -0.111208E-10     -0.787474E-10     -0.314400E-18     -0.115783E-10     -0.102417E-18
  0.3264      0.154626E-06      0.965568E-03     -0.106951E-10      0.283505E-10     -0.314024E-18     -0.114004E-10     -0.104389E-18
  0.3327      0.163633E-06      0.535026E-03     -0.102787E-10      0.163105E-10     -0.313350E-18     -0.112980E-10     -0.106355E-18
  0.3390      0.173056E-06     -0.177623E-02     -0.995091E-11     -0.562068E-10     -0.314885E-18     -0.116508E-10     -0.108332E-18
  0.3452      0.182912E-06     -0.233402E-02     -0.951486E-11     -0.766443E-10     -0.312448E-18     -0.121319E-10     -0.110293E-18
  0.3515      0.193215E-06     -0.245278E-02     -0.922501E-11     -0.835620E-10     -0.314280E-18     -0.126564E-10     -0.112266E-18
  0.3578      0.203983E-06     -0.253237E-02     -0.886595E-11     -0.894834E-10     -0.313286E-18     -0.132181E-10     -0.114232E-18
  0.3641      0.215230E-06     -0.248107E-02     -0.858123E-11     -0.909095E-10     -0.314428E-18     -0.137887E-10     -0.116206E-18
  0.3703      0.226973E-06     -0.244167E-02     -0.828275E-11     -0.927482E-10     -0.314625E-18     -0.143709E-10     -0.118181E-18
  0.3766      0.239229E-06     -0.267590E-02     -0.791861E-11     -0.105349E-09     -0.311752E-18     -0.150321E-10     -0.120138E-18
  0.3829      0.252016E-06     -0.285306E-02     -0.770495E-11     -0.116387E-09     -0.314314E-18     -0.157627E-10     -0.122111E-18
  0.3892      0.265349E-06     -0.292242E-02     -0.741817E-11     -0.123500E-09     -0.313487E-18     -0.165379E-10     -0.124078E-18
  0.3954      0.279249E-06     -0.293626E-02     -0.717369E-11     -0.128511E-09     -0.313971E-18     -0.173445E-10     -0.126049E-18
  0.4017      0.293731E-06     -0.304158E-02     -0.691475E-11     -0.137837E-09     -0.313359E-18     -0.182097E-10     -0.128016E-18
  0.4080      0.308815E-06     -0.300691E-02     -0.671452E-11     -0.141059E-09     -0.314990E-18     -0.190951E-10     -0.129993E-18
  0.4143      0.324519E-06     -0.310311E-02     -0.648266E-11     -0.150657E-09     -0.314735E-18     -0.200408E-10     -0.131969E-18
  0.4206      0.340861E-06     -0.286913E-02     -0.621670E-11     -0.144129E-09     -0.312291E-18     -0.209455E-10     -0.133929E-18
  0.4268      0.357862E-06     -0.299981E-02     -0.605247E-11     -0.155882E-09     -0.314511E-18     -0.219239E-10     -0.135903E-18
  0.4331      0.375540E-06     -0.220429E-02     -0.582972E-11     -0.118460E-09     -0.313294E-18     -0.226675E-10     -0.137870E-18
  0.4394      0.393915E-06     -0.253021E-02     -0.565287E-11     -0.140591E-09     -0.314102E-18     -0.235500E-10     -0.139841E-18
  0.4457      0.413007E-06      0.797122E-03     -0.545328E-11      0.457848E-10     -0.313223E-18     -0.232626E-10     -0.141807E-18
  0.4519      0.432835E-06     -0.229586E-02     -0.530190E-11     -0.136280E-09     -0.314716E-18     -0.241180E-10     -0.143783E-18
  0.4582      0.453421E-06      0.593164E-01     -0.513772E-11      0.363790E-08     -0.315098E-18     -0.128327E-11     -0.145761E-18
  0.4645      0.474783E-06      0.172052E+00     -0.493971E-11      0.108998E-07     -0.312941E-18      0.671339E-10     -0.147725E-18
  0.4708      0.496943E-06      0.111844E+00     -0.479761E-11      0.731738E-08     -0.313883E-18      0.113064E-09     -0.149695E-18
  0.4770      0.519922E-06     -0.110122E-01     -0.463060E-11     -0.743870E-09     -0.312794E-18      0.108395E-09     -0.151658E-18
  0.4833      0.543740E-06     -0.271112E-01     -0.450388E-11     -0.189037E-08     -0.314039E-18      0.965295E-10     -0.153630E-18
  0.4896      0.568418E-06     -0.214817E-01     -0.435288E-11     -0.154575E-08     -0.313218E-18      0.868270E-10     -0.155596E-18
  0.4959      0.593978E-06     -0.263314E-01     -0.422584E-11     -0.195485E-08     -0.313727E-18      0.745566E-10     -0.157565E-18
  0.5022      0.620439E-06     -0.267890E-01     -0.411389E-11     -0.205146E-08     -0.315035E-18      0.616798E-10     -0.159542E-18
  0.5084      0.647825E-06      0.709097E-01     -0.396295E-11      0.559983E-08     -0.312960E-18      0.968294E-10     -0.161507E-18
  0.5147      0.676155E-06      0.776344E+00     -0.386162E-11      0.632097E-07     -0.314412E-18      0.493591E-09     -0.163480E-18
  0.5210      0.705451E-06      0.158491E+01     -0.378592E-11      0.133012E-06     -0.317729E-18      0.132849E-08     -0.165475E-18
  0.5273      0.735734E-06      0.149215E+01     -0.366199E-11      0.129048E-06     -0.316705E-18      0.213851E-08     -0.167463E-18
  0.5335      0.767026E-06      0.140163E+01     -0.351578E-11      0.124888E-06     -0.313264E-18      0.292243E-08     -0.169429E-18
  0.5398      0.799348E-06      0.187234E+01     -0.349144E-11      0.171838E-06     -0.320434E-18      0.400104E-08     -0.171440E-18
  0.5461      0.832720E-06      0.239455E+01     -0.336597E-11      0.226309E-06     -0.318117E-18      0.542156E-08     -0.173437E-18
  0.5524      0.867164E-06      0.268594E+01     -0.335030E-11      0.261344E-06     -0.325986E-18      0.706199E-08     -0.175483E-18
  0.5586      0.902701E-06      0.289204E+01     -0.321965E-11      0.289638E-06     -0.322447E-18      0.888001E-08     -0.177507E-18
  0.5649      0.939351E-06      0.303331E+01     -0.323442E-11      0.312607E-06     -0.333333E-18      0.108422E-07     -0.179600E-18
  0.5712      0.977135E-06      0.324414E+01     -0.310575E-11      0.343961E-06     -0.329289E-18      0.130012E-07     -0.181666E-18
  0.5775      0.101607E-05      0.351702E+01     -0.316079E-11      0.383539E-06     -0.344691E-18      0.154087E-07     -0.183830E-18
  0.5838      0.105619E-05      0.396151E+01     -0.281608E-11      0.444239E-06     -0.315791E-18      0.181971E-07     -0.185812E-18
  0.5900      0.109750E-05      0.445000E+01     -0.266278E-11      0.513018E-06     -0.306978E-18      0.214173E-07     -0.187739E-18
  0.5963      0.114002E-05      0.511627E+01     -0.273820E-11      0.606233E-06     -0.324453E-18      0.252226E-07     -0.189776E-18
  0.6026      0.118378E-05      0.583726E+01     -0.258281E-11      0.710730E-06     -0.314477E-18      0.296837E-07     -0.191750E-18
  0.6089      0.122879E-05      0.709707E+01     -0.274368E-11      0.887730E-06     -0.343191E-18      0.352559E-07     -0.193904E-18
  0.6151      0.127507E-05      0.877519E+01     -0.255514E-11      0.112736E-05     -0.328261E-18      0.423323E-07     -0.195964E-18
  0.6214      0.132264E-05      0.147394E+02     -0.309845E-11      0.194439E-05     -0.408742E-18      0.545370E-07     -0.198530E-18
  0.6277      0.137153E-05      0.421176E+02     -0.350598E-11      0.570380E-05     -0.474799E-18      0.903393E-07     -0.201510E-18
  0.6340      0.142173E-05      0.670828E+02     -0.657980E-11      0.932405E-05     -0.914548E-18      0.148865E-06     -0.207251E-18
  0.6402      0.147328E-05      0.480943E+02     -0.430458E-11      0.685925E-05     -0.613922E-18      0.191920E-06     -0.211104E-18
  0.6465      0.152619E-05      0.150404E+02     -0.250069E-11      0.220053E-05     -0.365873E-18      0.205733E-06     -0.213401E-18
  0.6528      0.158048E-05      0.359975E+01     -0.229630E-11      0.540163E-06     -0.344573E-18      0.209123E-06     -0.215564E-18
  0.6591      0.163616E-05      0.363550E+01     -0.216632E-11      0.559369E-06     -0.333316E-18      0.212635E-06     -0.217656E-18
  0.6654      0.169325E-05      0.450878E+01     -0.232262E-11      0.711165E-06     -0.366345E-18      0.217099E-06     -0.219955E-18
  0.6716      0.175175E-05      0.543756E+01     -0.191451E-11      0.879003E-06     -0.309489E-18      0.222616E-06     -0.221898E-18
  0.6779      0.181170E-05      0.660050E+01     -0.210673E-11      0.109329E-05     -0.348954E-18      0.229478E-06     -0.224088E-18
  0.6842      0.187309E-05      0.153932E+02     -0.202755E-11      0.261190E-05     -0.344034E-18      0.245873E-06     -0.226248E-18
  0.6905      0.193594E-05      0.308569E+02     -0.155306E-11      0.536227E-05     -0.269889E-18      0.279532E-06     -0.227942E-18
  0.6967      0.200027E-05      0.334265E+02     -0.268353E-11      0.594774E-05     -0.477495E-18      0.316865E-06     -0.230939E-18
  0.7030      0.206608E-05      0.243259E+02     -0.188283E-11      0.443093E-05     -0.342955E-18      0.344678E-06     -0.233092E-18
  0.7093      0.213338E-05      0.237594E+02     -0.269883E-11      0.442918E-05     -0.503109E-18      0.372479E-06     -0.236250E-18
  0.7156      0.220219E-05      0.347661E+02     -0.240441E-11      0.663136E-05     -0.458622E-18      0.414104E-06     -0.239128E-18
  0.7218      0.227251E-05      0.456250E+02     -0.425871E-11      0.890242E-05     -0.830966E-18      0.469983E-06     -0.244344E-18
  0.7281      0.234436E-05      0.467809E+02     -0.331831E-11      0.933536E-05     -0.662184E-18      0.528580E-06     -0.248501E-18
  0.7344      0.241773E-05      0.432102E+02     -0.474116E-11      0.881667E-05     -0.967393E-18      0.583922E-06     -0.254573E-18
  0.7407      0.249263E-05      0.421219E+02     -0.372280E-11      0.878579E-05     -0.776503E-18      0.639069E-06     -0.259447E-18
  0.7470      0.256908E-05      0.429530E+02     -0.285340E-11      0.915631E-05     -0.608260E-18      0.696543E-06     -0.263265E-18
  0.7532      0.264706E-05      0.461614E+02     -0.458502E-11      0.100545E-04     -0.998669E-18      0.759654E-06     -0.269534E-18
  0.7595      0.272660E-05      0.464812E+02     -0.959716E-12      0.103421E-04     -0.213538E-18      0.824570E-06     -0.270874E-18
  0.7658      0.280769E-05      0.404372E+02     -0.246316E-11      0.918896E-05     -0.559729E-18      0.882249E-06     -0.274387E-18
  0.7721      0.289032E-05      0.389891E+02     -0.158034E-11      0.904653E-05     -0.366682E-18      0.939033E-06     -0.276689E-18
  0.7783      0.297451E-05      0.432885E+02     -0.317132E-11      0.102533E-04     -0.751158E-18      0.100339E-05     -0.281404E-18
  0.7846      0.306025E-05      0.449435E+02     -0.225744E-11      0.108645E-04     -0.545709E-18      0.107159E-05     -0.284829E-18
  0.7909      0.314754E-05      0.453188E+02     -0.389137E-11      0.111783E-04     -0.959844E-18      0.114175E-05     -0.290854E-18
  0.7972      0.323638E-05      0.457846E+02     -0.294667E-11      0.115205E-04     -0.741452E-18      0.121407E-05     -0.295508E-18
  0.8034      0.332675E-05      0.459881E+02     -0.196465E-11      0.118019E-04     -0.504187E-18      0.128815E-05     -0.298673E-18
  0.8097      0.341867E-05      0.460325E+02     -0.361242E-11      0.120456E-04     -0.945284E-18      0.136375E-05     -0.304606E-18
  0.8160      0.351211E-05      0.457609E+02     -0.262584E-11      0.122072E-04     -0.700470E-18      0.144038E-05     -0.309003E-18
  0.8223      0.360708E-05      0.452781E+02     -0.424635E-11      0.123103E-04     -0.115451E-17      0.151765E-05     -0.316250E-18
  0.8286      0.370356E-05      0.445385E+02     -0.322717E-11      0.123389E-04     -0.894056E-18      0.159510E-05     -0.321862E-18
  0.8348      0.380155E-05      0.436709E+02     -0.473452E-11      0.123253E-04     -0.133623E-17      0.167246E-05     -0.330249E-18
  0.8411      0.390103E-05      0.426419E+02     -0.373866E-11      0.122577E-04     -0.107470E-17      0.174940E-05     -0.336995E-18
  0.8474      0.400200E-05      0.415419E+02     -0.514347E-11      0.121598E-04     -0.150555E-17      0.182573E-05     -0.346445E-18
  0.8537      0.410443E-05      0.403299E+02     -0.189459E-11      0.120182E-04     -0.564582E-18      0.190117E-05     -0.349989E-18
  0.8599      0.420832E-05      0.390650E+02     -0.103115E-11      0.118488E-04     -0.312758E-18      0.197554E-05     -0.351952E-18
  0.8662      0.431364E-05      0.377222E+02     -0.239877E-11      0.116428E-04     -0.740374E-18      0.204862E-05     -0.356599E-18
  0.8725      0.442038E-05      0.363464E+02     -0.155928E-11      0.114131E-04     -0.489628E-18      0.212026E-05     -0.359673E-18
  0.8788      0.452853E-05      0.349357E+02     -0.277222E-11      0.111582E-04     -0.885429E-18      0.219030E-05     -0.365231E-18
  0.8850      0.463805E-05      0.335146E+02     -0.198065E-11      0.108855E-04     -0.643311E-18      0.225863E-05     -0.369269E-18
  0.8913      0.474894E-05      0.320948E+02     -0.307976E-11      0.105984E-04     -0.101700E-17      0.232515E-05     -0.375652E-18
  0.8976      0.486117E-05      0.306604E+02     -0.233906E-11      0.102915E-04     -0.785130E-18      0.238975E-05     -0.380580E-18
  0.9039      0.497470E-05      0.292258E+02     -0.165036E-11      0.996936E-05     -0.562964E-18      0.245233E-05     -0.384114E-18
  0.9102      0.508953E-05      0.276787E+02     -0.260920E-11      0.959294E-05     -0.904302E-18      0.251254E-05     -0.389790E-18
  0.9164      0.520562E-05      0.259902E+02     -0.194368E-11      0.915010E-05     -0.684293E-18      0.256998E-05     -0.394086E-18
