 
 # Omega; pulse ft; projected flux at t=    500.250000000000     
    0.000000000000         0.10341091E-10      0.00000000E+00      0.00000000E+00      0.12802455E-07     -0.19079417E-18
    0.006276908399         0.40699280E-10      0.32835022E+01     -0.50145118E-10      0.12436325E-07     -0.18992555E-18
    0.012553816798         0.13187398E-09      0.19658281E+01     -0.30980054E-10      0.12062649E-07     -0.19009877E-18
    0.018830725196         0.28416575E-09      0.13753999E+01     -0.21607820E-10      0.12124044E-07     -0.19047126E-18
    0.025107633595         0.49807598E-09      0.10579131E+01     -0.16383549E-10      0.12258960E-07     -0.18985044E-18
    0.031384541994         0.77430759E-09      0.86176273E+00     -0.13264299E-10      0.12419360E-07     -0.19115948E-18
    0.037661450393         0.11137660E-08      0.72838737E+00     -0.10984928E-10      0.12582679E-07     -0.18976144E-18
    0.043938358791         0.15175606E-08      0.63257797E+00     -0.93471213E-11      0.12762333E-07     -0.18857924E-18
    0.050215267190         0.19870057E-08      0.55973171E+00     -0.81927927E-11      0.12937699E-07     -0.18936909E-18
    0.056492175589         0.25236231E-08      0.50318710E+00     -0.72005805E-11      0.13130447E-07     -0.18789599E-18
    0.062769083988         0.31291437E-08      0.45719583E+00     -0.65481820E-11      0.13313608E-07     -0.19068400E-18
    0.069045992387         0.38055096E-08      0.41980670E+00     -0.58742580E-11      0.13515668E-07     -0.18912161E-18
    0.075322900785         0.45548772E-08      0.38813430E+00     -0.54140253E-11      0.13710253E-07     -0.19124219E-18
    0.081599809184         0.53796196E-08      0.36160352E+00     -0.49028403E-11      0.13925438E-07     -0.18880956E-18
    0.087876717583         0.62823298E-08      0.33832658E+00     -0.45254962E-11      0.14128525E-07     -0.18898482E-18
    0.094153625982         0.72658239E-08      0.31844062E+00     -0.42023409E-11      0.14354567E-07     -0.18943180E-18
    0.100430534380         0.83331444E-08      0.30056267E+00     -0.38993210E-11      0.14567733E-07     -0.18899309E-18
    0.106707442779         0.94875639E-08      0.28506146E+00     -0.36385285E-11      0.14805133E-07     -0.18897293E-18
    0.112984351178         0.10732589E-07      0.27086804E+00     -0.34177849E-11      0.15029959E-07     -0.18964646E-18
    0.119261259577         0.12071965E-07      0.25842126E+00     -0.32348509E-11      0.15279903E-07     -0.19126990E-18
    0.125538167976         0.13509678E-07      0.24684098E+00     -0.30065069E-11      0.15516732E-07     -0.18899278E-18
    0.131815076374         0.15049961E-07      0.23659082E+00     -0.28283832E-11      0.15779091E-07     -0.18863502E-18
    0.138091984773         0.16697298E-07      0.22695824E+00     -0.27182686E-11      0.16030146E-07     -0.19199234E-18
    0.144368893172         0.18456429E-07      0.21836117E+00     -0.25656475E-11      0.16306594E-07     -0.19159530E-18
    0.150645801571         0.20332352E-07      0.21020405E+00     -0.24221150E-11      0.16572402E-07     -0.19095857E-18
    0.156922709970         0.22330332E-07      0.20286980E+00     -0.22946662E-11      0.16863224E-07     -0.19074040E-18
    0.163199618368         0.24455902E-07      0.19586595E+00     -0.22072788E-11      0.17144992E-07     -0.19321264E-18
    0.169476526767         0.26714868E-07      0.18951997E+00     -0.20525293E-11      0.17450676E-07     -0.18899340E-18
    0.175753435166         0.29113317E-07      0.18344913E+00     -0.19760470E-11      0.17750776E-07     -0.19120487E-18
    0.182030343565         0.31657619E-07      0.17790376E+00     -0.18762822E-11      0.18073131E-07     -0.19061033E-18
    0.188307251963         0.34354433E-07      0.17258984E+00     -0.18012011E-11      0.18392670E-07     -0.19195160E-18
    0.194584160362         0.37210710E-07      0.16769656E+00     -0.17260725E-11      0.18732616E-07     -0.19281166E-18
    0.200861068761         0.40233700E-07      0.16301346E+00     -0.16329798E-11      0.19073547E-07     -0.19106838E-18
    0.207137977160         0.43430955E-07      0.15866381E+00     -0.15744850E-11      0.19432618E-07     -0.19283772E-18
    0.213414885559         0.46810335E-07      0.15451752E+00     -0.14823277E-11      0.19797419E-07     -0.18992191E-18
    0.219691793957         0.50380010E-07      0.15063487E+00     -0.14140764E-11      0.20178261E-07     -0.18942229E-18
    0.225968702356         0.54148468E-07      0.14694040E+00     -0.13478441E-11      0.20568040E-07     -0.18866501E-18
    0.232245610755         0.58124513E-07      0.14345819E+00     -0.13037970E-11      0.20972536E-07     -0.19060557E-18
    0.238522519154         0.62317278E-07      0.14014925E+00     -0.12478050E-11      0.21388664E-07     -0.19043187E-18
    0.244799427552         0.66736218E-07      0.13701307E+00     -0.11843465E-11      0.21818606E-07     -0.18860090E-18
    0.251076335951         0.71391124E-07      0.13404140E+00     -0.11687768E-11      0.22263385E-07     -0.19412605E-18
    0.257353244350         0.76292116E-07      0.13120954E+00     -0.10932195E-11      0.22721094E-07     -0.18930897E-18
    0.263630152749         0.81449655E-07      0.12853630E+00     -0.10328779E-11      0.23197103E-07     -0.18640474E-18
    0.269907061148         0.86874540E-07      0.12597837E+00     -0.99677308E-12      0.23685800E-07     -0.18740811E-18
    0.276183969546         0.92577913E-07      0.12356808E+00     -0.97004541E-12      0.24195190E-07     -0.18993928E-18
    0.282460877945         0.98571259E-07      0.12125702E+00     -0.94336380E-12      0.24717964E-07     -0.19230254E-18
    0.288737786344         0.10486641E-06      0.11908759E+00     -0.88963007E-12      0.25264638E-07     -0.18873656E-18
    0.295014694743         0.11147554E-06      0.11700681E+00     -0.87400622E-12      0.25826222E-07     -0.19291424E-18
    0.301291603141         0.11841119E-06      0.11504881E+00     -0.81112031E-12      0.26412021E-07     -0.18621076E-18
    0.307568511540         0.12568621E-06      0.11317398E+00     -0.81324341E-12      0.27015074E-07     -0.19412440E-18
    0.313845419939         0.13331385E-06      0.11142378E+00     -0.77156252E-12      0.27647200E-07     -0.19144516E-18
    0.320122328338         0.14130766E-06      0.10975575E+00     -0.74384955E-12      0.28300286E-07     -0.19180002E-18
    0.326399236737         0.14968158E-06      0.10817418E+00     -0.72332270E-12      0.28977214E-07     -0.19376044E-18
    0.332676145135         0.15844985E-06      0.10668827E+00     -0.68744804E-12      0.29682511E-07     -0.19125987E-18
    0.338953053534         0.16762710E-06      0.10528104E+00     -0.67771784E-12      0.30413657E-07     -0.19577959E-18
    0.345229961933         0.17722828E-06      0.10397358E+00     -0.62873177E-12      0.31178938E-07     -0.18854010E-18
    0.351506870332         0.18726866E-06      0.10272247E+00     -0.61240625E-12      0.31967639E-07     -0.19058324E-18
    0.357783778731         0.19776389E-06      0.10158699E+00     -0.58784321E-12      0.32800332E-07     -0.18980238E-18
    0.364060687129         0.20872991E-06      0.10047911E+00     -0.56286315E-12      0.33651196E-07     -0.18850702E-18
    0.370337595528         0.22018301E-06      0.99503069E-01     -0.55155693E-12      0.34557020E-07     -0.19155352E-18
    0.376614503927         0.23213979E-06      0.98551237E-01     -0.52604858E-12      0.35483662E-07     -0.18940534E-18
    0.382891412326         0.24461718E-06      0.97751047E-01     -0.50746754E-12      0.36479305E-07     -0.18937969E-18
    0.389168320724         0.25763241E-06      0.96928431E-01     -0.48564211E-12      0.37482453E-07     -0.18779895E-18
    0.395445229123         0.27120301E-06      0.96291971E-01     -0.47806357E-12      0.38575543E-07     -0.19151713E-18
    0.401722137522         0.28534681E-06      0.95598923E-01     -0.45979727E-12      0.39665603E-07     -0.19077763E-18
    0.407999045921         0.30008192E-06      0.95129779E-01     -0.44624599E-12      0.40870597E-07     -0.19172061E-18
    0.414275954320         0.31542674E-06      0.94565455E-01     -0.43401072E-12      0.42058628E-07     -0.19302921E-18
    0.420552862718         0.33139993E-06      0.94274099E-01     -0.40896033E-12      0.43394833E-07     -0.18824646E-18
    0.426829771117         0.34802041E-06      0.93834253E-01     -0.39613807E-12      0.44691530E-07     -0.18867328E-18
    0.433106679516         0.36530735E-06      0.93736171E-01     -0.38128331E-12      0.46183255E-07     -0.18785603E-18
    0.439383587915         0.38328015E-06      0.93419766E-01     -0.37725519E-12      0.47601986E-07     -0.19223016E-18
    0.445660496313         0.40195843E-06      0.93557568E-01     -0.36374903E-12      0.49291237E-07     -0.19164286E-18
    0.451937404712         0.42136202E-06      0.93373823E-01     -0.34968045E-12      0.50852938E-07     -0.19044179E-18
    0.458214313111         0.44151098E-06      0.94023099E-01     -0.34554099E-12      0.52920169E-07     -0.19448505E-18
    0.464491221510         0.46242550E-06      0.93782878E-01     -0.32456079E-12      0.54538303E-07     -0.18874442E-18
    0.470768129909         0.48412598E-06      0.93227240E-01     -0.31227146E-12      0.56002571E-07     -0.18758471E-18
    0.477045038307         0.50663295E-06      0.93228125E-01     -0.30637237E-12      0.57835541E-07     -0.19006294E-18
    0.483321946706         0.52996708E-06      0.94245908E-01     -0.29992398E-12      0.60365484E-07     -0.19210443E-18
    0.489598855105         0.55414917E-06      0.94344730E-01     -0.29133917E-12      0.62376032E-07     -0.19261893E-18
    0.495875763504         0.57920011E-06      0.95456377E-01     -0.28114576E-12      0.65129014E-07     -0.19182318E-18
    0.502152671902         0.60514088E-06      0.95577624E-01     -0.27665041E-12      0.67280739E-07     -0.19474479E-18
    0.508429580301         0.63199252E-06      0.97044403E-01     -0.26387848E-12      0.70463697E-07     -0.19160150E-18
    0.514706488700         0.65977612E-06      0.97019358E-01     -0.25119856E-12      0.72645572E-07     -0.18809095E-18
    0.520983397099         0.68851279E-06      0.98570457E-01     -0.25106891E-12      0.76093701E-07     -0.19381834E-18
    0.527260305498         0.71822366E-06      0.98691426E-01     -0.24342053E-12      0.78528601E-07     -0.19368930E-18
    0.533537213896         0.74892983E-06      0.10116928E+00     -0.23412907E-12      0.82954296E-07     -0.19197539E-18
    0.539814122295         0.78065236E-06      0.10105720E+00     -0.23128011E-12      0.85367882E-07     -0.19537344E-18
    0.546091030694         0.81341227E-06      0.10402233E+00     -0.22427638E-12      0.90507806E-07     -0.19513852E-18
    0.552367939093         0.84723047E-06      0.10332541E+00     -0.22038418E-12      0.92575071E-07     -0.19745463E-18
    0.558644847491         0.88212778E-06      0.10703441E+00     -0.20784727E-12      0.98726318E-07     -0.19171400E-18
    0.564921755890         0.91812490E-06      0.10525769E+00     -0.20901003E-12      0.99926594E-07     -0.19842409E-18
    0.571198664289         0.95524236E-06      0.11015324E+00     -0.20181331E-12      0.10760624E-06     -0.19714692E-18
    0.577475572688         0.99350052E-06      0.10597757E+00     -0.20029291E-12      0.10650309E-06     -0.20128613E-18
    0.583752481087         0.10329195E-05      0.11247872E+00     -0.18798553E-12      0.11625775E-06     -0.19430142E-18
    0.590029389485         0.10735193E-05      0.10311057E+00     -0.17967036E-12      0.10958553E-06     -0.19095299E-18
    0.596306297884         0.11153196E-05      0.11185582E+00     -0.18004584E-12      0.12220876E-06     -0.19671017E-18
    0.602583206283         0.11583396E-05      0.89153773E-01     -0.16993295E-12      0.10010884E-06     -0.19081402E-18
    0.608860114682         0.12025986E-05      0.10122631E+00     -0.17086710E-12      0.11679127E-06     -0.19714030E-18
    0.615137023081         0.12481153E-05      0.33423083E-01     -0.15872863E-12      0.39613494E-07     -0.18812734E-18
    0.621413931479         0.12949080E-05      0.47503779E-01     -0.15811216E-12      0.57822903E-07     -0.19245846E-18
    0.627690839878         0.13429948E-05     -0.33938940E+00     -0.14323441E-12     -0.42417065E-06     -0.17901512E-18
    0.633967748277         0.13923932E-05     -0.12315391E+01     -0.66517639E-13     -0.15799988E-05     -0.85338569E-19
    0.640244656676         0.14431204E-05     -0.84595235E-01     -0.14176755E-12     -0.11138233E-06     -0.18665827E-18
    0.646521565074         0.14951931E-05      0.79931535E+00     -0.15733952E-12      0.10798072E-05     -0.21255233E-18
    0.652798473473         0.15486273E-05      0.57430395E+00     -0.17038588E-12      0.79583565E-06     -0.23611043E-18
    0.659075381872         0.16034389E-05      0.66659657E+00     -0.15735231E-12      0.94731452E-06     -0.22361670E-18
    0.665352290271         0.16596427E-05      0.70633338E+00     -0.18308296E-12      0.10291685E-05     -0.26676244E-18
    0.671629198670         0.17172535E-05      0.93398003E+00     -0.12296060E-12      0.13949422E-05     -0.18364733E-18
    0.677906107068         0.17762849E-05      0.11435380E+01     -0.15848148E-12      0.17502799E-05     -0.24256906E-18
    0.684183015467         0.18367504E-05      0.23846468E+01     -0.14988964E-12      0.37395188E-05     -0.23505164E-18
    0.690459923866         0.18986625E-05      0.57224547E+01     -0.71979671E-13      0.91919036E-05     -0.11562000E-18
    0.696736832265         0.19620330E-05      0.97397522E+01     -0.38516831E-12      0.16021355E-04     -0.63358064E-18
    0.703013740663         0.20268732E-05      0.10183444E+02     -0.18055860E-12      0.17150282E-04     -0.30408483E-18
    0.709290649062         0.20931935E-05      0.10827343E+02     -0.57341918E-12      0.18664693E-04     -0.98848745E-18
    0.715567557461         0.21610035E-05      0.16025840E+02     -0.45710780E-12      0.28270886E-04     -0.80637537E-18
    0.721844465860         0.22303120E-05      0.22007933E+02     -0.13844795E-11      0.39720530E-04     -0.24987472E-17
    0.728121374259         0.23011271E-05      0.22752047E+02     -0.95527938E-12      0.42002109E-04     -0.17635226E-17
    0.734398282657         0.23734559E-05      0.20931062E+02     -0.16511435E-11      0.39514326E-04     -0.31170812E-17
    0.740675191056         0.24473047E-05      0.20612851E+02     -0.11901890E-11      0.39784335E-04     -0.22971534E-17
    0.746952099455         0.25226788E-05      0.20453463E+02     -0.75309000E-12      0.40350587E-04     -0.14856958E-17
    0.753229007854         0.25995828E-05      0.21819844E+02     -0.15806244E-11      0.43988794E-04     -0.31865379E-17
    0.759505916252         0.26780200E-05      0.22069278E+02      0.12008443E-12      0.45455305E-04      0.24733362E-18
    0.765782824651         0.27579930E-05      0.18774966E+02     -0.59185634E-12      0.39498491E-04     -0.12451384E-17
    0.772059733050         0.28395032E-05      0.17924103E+02     -0.19476997E-12      0.38507268E-04     -0.41843428E-18
    0.778336641449         0.29225512E-05      0.19998578E+02     -0.94073897E-12      0.43863932E-04     -0.20633723E-17
    0.784613549848         0.30071363E-05      0.20124812E+02     -0.51606399E-12      0.45054996E-04     -0.11553529E-17
    0.790890458246         0.30932570E-05      0.20217305E+02     -0.12487023E-11      0.46188806E-04     -0.28528070E-17
    0.797167366645         0.31809104E-05      0.20100303E+02     -0.82128335E-12      0.46850941E-04     -0.19142945E-17
    0.803444275044         0.32700927E-05      0.19921862E+02     -0.39474983E-12      0.47363964E-04     -0.93851251E-18
    0.809721183443         0.33607990E-05      0.19632321E+02     -0.11053910E-11      0.47598416E-04     -0.26800122E-17
    0.815998091842         0.34530231E-05      0.19165001E+02     -0.68259875E-12      0.47373229E-04     -0.16872896E-17
    0.822275000240         0.35467578E-05      0.18645901E+02     -0.13474100E-11      0.46979849E-04     -0.33949081E-17
    0.828551908639         0.36419946E-05      0.17927518E+02     -0.91708950E-12      0.46031332E-04     -0.23547516E-17
    0.834828817038         0.37387238E-05      0.17235323E+02     -0.15010805E-11      0.45087815E-04     -0.39268447E-17
    0.841105725437         0.38369346E-05      0.16366918E+02     -0.10896663E-11      0.43612856E-04     -0.29036289E-17
    0.847382633835         0.39366149E-05      0.15569901E+02     -0.15931395E-11      0.42251586E-04     -0.43232562E-17
    0.853659542234         0.40377513E-05      0.14623005E+02     -0.37095139E-12      0.40402227E-04     -0.10249099E-17
    0.859936450633         0.41403294E-05      0.13763683E+02     -0.67463052E-13      0.38709450E-04     -0.18973538E-18
    0.866213359032         0.42443332E-05      0.12787194E+02     -0.53387360E-12      0.36599374E-04     -0.15280474E-17
    0.872490267431         0.43497456E-05      0.11906816E+02     -0.24897572E-12      0.34674701E-04     -0.72506020E-18
    0.878767175829         0.44565484E-05      0.10947830E+02     -0.62561768E-12      0.32431470E-04     -0.18533081E-17
    0.885044084228         0.45647219E-05      0.10091288E+02     -0.36999254E-12      0.30402536E-04     -0.11146954E-17
    0.891320992627         0.46742450E-05      0.91867769E+01     -0.67081066E-12      0.28141958E-04     -0.20549019E-17
    0.897597901026         0.47850957E-05      0.83872359E+01     -0.44554503E-12      0.26118093E-04     -0.13874400E-17
    0.903874809424         0.48972503E-05      0.75469608E+01     -0.24997084E-12      0.23885257E-04     -0.79112877E-18
    0.910151717823         0.50106841E-05      0.68131374E+01     -0.47937420E-12      0.21910091E-04     -0.15416000E-17
    0.916428626222         0.51253709E-05      0.59968195E+01     -0.30231410E-12      0.19591218E-04     -0.98764042E-18
    0.922705534621         0.52412834E-05      0.53111965E+01     -0.46383863E-12      0.17623034E-04     -0.15390589E-17
    0.928982443020         0.53583927E-05      0.46004067E+01     -0.31223463E-12      0.15500191E-04     -0.10520149E-17
    0.935259351418         0.54766690E-05      0.53862797E+01     -0.54775606E-12      0.18424136E-04     -0.18736369E-17
    0.941536259817         0.55960809E-05      0.65243034E+01     -0.14784689E-12      0.22651392E-04     -0.51330197E-18
    0.947813168216         0.57165958E-05      0.53980231E+01     -0.32601039E-12      0.19017932E-04     -0.11485767E-17
    0.954090076615         0.58381799E-05      0.43871561E+01     -0.18436480E-12      0.15681406E-04     -0.65899163E-18
    0.960366985013         0.59607981E-05      0.38963022E+01     -0.87609374E-13      0.14126469E-04     -0.31763736E-18
    0.966643893412         0.60844141E-05      0.34136083E+01     -0.20572436E-12      0.12551041E-04     -0.75640042E-18
    0.972920801811         0.62089900E-05      0.30804490E+01     -0.12542442E-12      0.11483421E-04     -0.46756219E-18
    0.979197710210         0.63344872E-05      0.27530867E+01     -0.21585977E-12      0.10403387E-04     -0.81569273E-18
    0.985474618609         0.64608656E-05      0.25290182E+01     -0.15040080E-12      0.96852541E-05     -0.57598240E-18
    0.991751527007         0.65880838E-05      0.24125229E+01     -0.23247694E-12      0.93614149E-05     -0.90209009E-18
    0.998028435406         0.67160994E-05      0.31003197E+01     -0.22000778E-12      0.12186935E-04     -0.86482064E-18
    1.004305343805         0.68448687E-05      0.34191604E+01     -0.35998757E-12      0.13612335E-04     -0.14331797E-17
    1.010582252204         0.69743470E-05      0.23349925E+01     -0.21284530E-12      0.94130676E-05     -0.85804438E-18
    1.016859160602         0.71044882E-05      0.17108394E+01     -0.13210307E-12      0.69822445E-05     -0.53913647E-18
