 
 # Omega; pulse ft; projected flux at t=    500.250000000000     
    0.000000000000         0.61823026E-09      0.00000000E+00      0.00000000E+00      0.64707240E-09     -0.26469780E-22
    0.006276908399         0.61747610E-09      0.11386302E-01      0.11622289E-14      0.65429087E-09      0.66785141E-22
    0.012553816798         0.61521579E-09      0.23127272E-01     -0.11185839E-15      0.66204865E-09     -0.32020937E-23
    0.018830725196         0.61145675E-09      0.35297753E-01      0.93493575E-15      0.66951384E-09      0.17733492E-22
    0.025107633595         0.60621417E-09      0.48045305E-01     -0.49726291E-15      0.67761819E-09     -0.70132637E-23
    0.031384541994         0.59951527E-09      0.61420884E-01     -0.61653564E-14      0.68535300E-09     -0.68794931E-22
    0.037661450393         0.59140524E-09      0.75640565E-01      0.31109493E-14      0.69383578E-09      0.28536116E-22
    0.043938358791         0.58195487E-09      0.90719159E-01     -0.18835521E-14      0.70187261E-09     -0.14572596E-22
    0.050215267190         0.57126980E-09      0.10695332E+00      0.17175076E-13      0.71074460E-09      0.11413477E-21
    0.056492175589         0.55950140E-09      0.12430122E+00      0.58610410E-14      0.71912119E-09      0.33907943E-22
    0.062769083988         0.54685933E-09      0.14312462E+00     -0.28177603E-14      0.72837994E-09     -0.14339951E-22
    0.069045992387         0.53362554E-09      0.16328070E+00      0.84176856E-14      0.73713456E-09      0.38001841E-22
    0.075322900785         0.52016993E-09      0.18513021E+00      0.15170795E-13      0.74680858E-09      0.61198441E-22
    0.081599809184         0.50696746E-09      0.20830583E+00     -0.16430325E-13      0.75597278E-09     -0.59628090E-22
    0.087876717583         0.49461670E-09      0.23300017E+00     -0.16551802E-13      0.76606388E-09     -0.54419437E-22
    0.094153625982         0.48385983E-09      0.25839614E+00     -0.22173348E-15      0.77567957E-09     -0.66562190E-24
    0.100430534380         0.47560399E-09      0.28421422E+00     -0.21048524E-14      0.78621137E-09     -0.58225760E-23
    0.106707442779         0.47094388E-09      0.30888458E+00     -0.12515946E-13      0.79631422E-09     -0.32266506E-22
    0.112984351178         0.47118573E-09      0.33139826E+00      0.36802145E-13      0.80730541E-09      0.89652161E-22
    0.119261259577         0.47787234E-09      0.34945593E+00     -0.22860957E-13      0.81793485E-09     -0.53508246E-22
    0.125538167976         0.49280933E-09      0.36170362E+00     -0.39398584E-14      0.82941099E-09     -0.90343633E-23
    0.131815076374         0.51809239E-09      0.36613234E+00     -0.24952450E-13      0.84060897E-09     -0.57288720E-22
    0.138091984773         0.55613556E-09      0.36242744E+00      0.77081836E-14      0.85260341E-09      0.18133350E-22
    0.144368893172         0.60970041E-09      0.35039885E+00     -0.31052648E-13      0.86440911E-09     -0.76604680E-22
    0.150645801571         0.68192607E-09      0.33165087E+00      0.55820332E-14      0.87695075E-09      0.14760004E-22
    0.156922709970         0.77635999E-09      0.30775919E+00     -0.87075340E-14      0.88941034E-09     -0.25164385E-22
    0.163199618368         0.89698941E-09      0.28111604E+00     -0.22628303E-13      0.90254239E-09     -0.72649722E-22
    0.169476526767         0.10482735E-08      0.25343954E+00      0.34662933E-14      0.91570000E-09      0.12524031E-22
    0.175753435166         0.12351757E-08      0.22640991E+00     -0.32248450E-13      0.92946736E-09     -0.13238767E-21
    0.182030343565         0.14631970E-08      0.20091395E+00     -0.22392631E-13      0.94337181E-09     -0.10514241E-21
    0.188307251963         0.17384091E-08      0.17761777E+00     -0.54504354E-13      0.95782275E-09     -0.29392054E-21
    0.194584160362         0.20674879E-08      0.15669342E+00     -0.33279365E-13      0.97252337E-09     -0.20654958E-21
    0.200861068761         0.24577476E-08      0.13818962E+00     -0.83524335E-14      0.98771293E-09     -0.59699176E-22
    0.207137977160         0.29171738E-08      0.12195519E+00     -0.20050386E-13      0.10032673E-08     -0.16494498E-21
    0.213414885559         0.34544578E-08      0.10779947E+00     -0.85967241E-14      0.10192615E-08     -0.81283420E-22
    0.219691793957         0.40790298E-08      0.95497259E-01      0.59322360E-14      0.10357329E-08      0.64339142E-22
    0.225968702356         0.48010926E-08      0.84812374E-01      0.58505475E-14      0.10526035E-08      0.72610948E-22
    0.232245610755         0.56316541E-08      0.75545115E-01      0.31790419E-14      0.10700613E-08      0.45029645E-22
    0.238522519154         0.65825603E-08      0.67484872E-01      0.26522021E-14      0.10878918E-08      0.42754898E-22
    0.244799427552         0.76665268E-08      0.60479107E-01      0.50656766E-14      0.11063879E-08      0.92670078E-22
    0.251076335951         0.88971707E-08      0.54359533E-01     -0.52948819E-14      0.11252154E-08     -0.10960143E-21
    0.257353244350         0.10289041E-07      0.49025902E-01      0.80468469E-14      0.11449450E-08      0.18792510E-21
    0.263630152749         0.11857647E-07      0.44342235E-01     -0.10946422E-13      0.11650239E-08     -0.28760036E-21
    0.269907061148         0.13619491E-07      0.40234554E-01     -0.58494599E-15      0.11859316E-08     -0.17241546E-22
    0.276183969546         0.15592091E-07      0.36605358E-01      0.25412283E-14      0.12071586E-08      0.83803736E-22
    0.282460877945         0.17794010E-07      0.33409226E-01     -0.12103370E-14      0.12294072E-08     -0.44538506E-22
    0.288737786344         0.20244883E-07      0.30569447E-01      0.10091910E-14      0.12520251E-08      0.41333181E-22
    0.295014694743         0.22965437E-07      0.28055650E-01     -0.15047330E-14      0.12757489E-08     -0.68423346E-22
    0.301291603141         0.25977515E-07      0.25809519E-01      0.17450381E-14      0.12998831E-08      0.87887940E-22
    0.307568511540         0.29304101E-07      0.23811343E-01     -0.18717812E-15      0.13252085E-08     -0.10417306E-22
    0.313845419939         0.32969333E-07      0.22016524E-01     -0.32310045E-15      0.13510049E-08     -0.19826485E-22
    0.320122328338         0.36998524E-07      0.20414202E-01     -0.11279786E-14      0.13782076E-08     -0.76152315E-22
    0.326399236737         0.41418179E-07      0.18962713E-01     -0.14660791E-14      0.14055818E-08     -0.10867085E-21
    0.332676145135         0.46256007E-07      0.17659559E-01      0.18586728E-15      0.14343005E-08      0.15096046E-22
    0.338953053534         0.51540931E-07      0.16482068E-01     -0.29951849E-14      0.14639903E-08     -0.26604196E-21
    0.345229961933         0.57303105E-07      0.15419951E-01      0.42336738E-15      0.14950870E-08      0.41048838E-22
    0.351506870332         0.63573913E-07      0.14453353E-01     -0.26229271E-15      0.15269596E-08     -0.27710551E-22
    0.357783778731         0.70385980E-07      0.13578482E-01     -0.44898475E-15      0.15603806E-08     -0.51595391E-22
    0.364060687129         0.77773174E-07      0.12779758E-01     -0.85842089E-15      0.15947495E-08     -0.10711989E-21
    0.370337595528         0.85770606E-07      0.12054106E-01     -0.88657172E-15      0.16307579E-08     -0.11994119E-21
    0.376614503927         0.94414629E-07      0.11389823E-01      0.53803345E-15      0.16679116E-08      0.78788953E-22
    0.382891412326         0.10374284E-06      0.10784132E-01     -0.10263376E-14      0.17067955E-08     -0.16243759E-21
    0.389168320724         0.11379405E-06      0.10228652E-01      0.53998208E-15      0.17470860E-08      0.92230638E-22
    0.395445229123         0.12460831E-06      0.97204892E-02     -0.44911170E-15      0.17892152E-08     -0.82666362E-22
    0.401722137522         0.13622687E-06      0.92538426E-02      0.26464732E-15      0.18330442E-08      0.52422571E-22
    0.407999045921         0.14869219E-06      0.88255635E-02     -0.37787411E-15      0.18788204E-08     -0.80443315E-22
    0.414275954320         0.16204789E-06      0.84320985E-02     -0.59145061E-15      0.19266514E-08     -0.13514063E-21
    0.420552862718         0.17633876E-06      0.80699824E-02      0.73011276E-15      0.19765763E-08      0.17882611E-21
    0.426829771117         0.19161071E-06      0.77374137E-02     -0.52836772E-16      0.20289657E-08     -0.13855275E-22
    0.433106679516         0.20791078E-06      0.74307276E-02      0.19284843E-15      0.20836620E-08      0.54076933E-22
    0.439383587915         0.22528707E-06      0.71493849E-02     -0.46829974E-15      0.21412872E-08     -0.14025881E-21
    0.445660496313         0.24378875E-06      0.68901175E-02     -0.35076506E-15      0.22016584E-08     -0.11208297E-21
    0.451937404712         0.26346597E-06      0.66525356E-02     -0.61485873E-15      0.22654123E-08     -0.20938009E-21
    0.458214313111         0.28436989E-06      0.64384899E-02     -0.73872256E-15      0.23340641E-08     -0.26779972E-21
    0.464491221510         0.30655259E-06      0.62209544E-02      0.87167069E-16      0.23982712E-08      0.33604212E-22
    0.470768129909         0.33006704E-06      0.60120430E-02     -0.21661511E-15      0.24622434E-08     -0.88715121E-22
    0.477045038307         0.35496707E-06      0.58553488E-02     -0.91348013E-16      0.25450437E-08     -0.39704669E-22
    0.483321946706         0.38130728E-06      0.57043219E-02     -0.18240995E-15      0.26287931E-08     -0.84062230E-22
    0.489598855105         0.40914305E-06      0.55659892E-02      0.84303353E-16      0.27170082E-08      0.41152235E-22
    0.495875763504         0.43853041E-06      0.54355948E-02     -0.15031754E-15      0.28079393E-08     -0.77651580E-22
    0.502152671902         0.46952606E-06      0.53235497E-02     -0.49523391E-15      0.29076293E-08     -0.27048806E-21
    0.508429580301         0.50218725E-06      0.52123524E-02      0.17777609E-15      0.30073394E-08      0.10257040E-21
    0.514706488700         0.53657174E-06      0.51465855E-02     -0.68597735E-16      0.31340155E-08     -0.41772621E-22
    0.520983397099         0.57273772E-06      0.50997518E-02     -0.11673542E-15      0.32748751E-08     -0.74963243E-22
    0.527260305498         0.61074378E-06      0.50007890E-02     -0.12836359E-15      0.33836569E-08     -0.86853964E-22
    0.533537213896         0.65064880E-06      0.49105388E-02     -0.54721247E-16      0.34980408E-08     -0.38980886E-22
    0.539814122295         0.69251188E-06      0.48787548E-02     -0.46719752E-15      0.36559966E-08     -0.35010419E-21
    0.546091030694         0.73639228E-06      0.48691289E-02     -0.23706646E-15      0.38353876E-08     -0.18673602E-21
    0.552367939093         0.78234932E-06      0.48285727E-02     -0.16946656E-15      0.39948899E-08     -0.14020711E-21
    0.558644847491         0.83044233E-06      0.48024426E-02     -0.54536637E-16      0.41701307E-08     -0.47356090E-22
    0.564921755890         0.88073054E-06      0.47976144E-02     -0.30405516E-15      0.43691192E-08     -0.27689871E-21
    0.571198664289         0.93327299E-06      0.48161944E-02     -0.41731243E-15      0.45966276E-08     -0.39828746E-21
    0.577475572688         0.98812849E-06      0.48329015E-02     -0.40426981E-15      0.48306053E-08     -0.40407773E-21
    0.583752481087         0.10453555E-05      0.48731274E-02     -0.13897818E-15      0.50974952E-08     -0.14537699E-21
    0.590029389485         0.11050119E-05      0.49216758E-02     -0.65026695E-16      0.53841868E-08     -0.71137533E-22
    0.596306297884         0.11671553E-05      0.49978810E-02     -0.51548042E-16      0.57142462E-08     -0.58936619E-22
    0.602583206283         0.12318424E-05      0.50659017E-02     -0.71868162E-16      0.60493495E-08     -0.85819989E-22
    0.608860114682         0.12991293E-05      0.51934180E-02     -0.12792225E-15      0.64729452E-08     -0.15943906E-21
    0.615137023081         0.13690713E-05      0.52350663E-02     -0.66806948E-16      0.68059726E-08     -0.86853964E-22
    0.621413931479         0.14417228E-05      0.54333314E-02     -0.15716759E-15      0.73634405E-08     -0.21299901E-21
    0.627690839878         0.15171371E-05      0.49197483E-02     -0.21999735E-15      0.69460150E-08     -0.31060632E-21
    0.633967748277         0.15953663E-05      0.44942780E-02     -0.19385746E-15      0.66064322E-08     -0.28496372E-21
    0.640244656676         0.16764615E-05      0.70535271E-02     -0.27256461E-15      0.10788666E-07     -0.41689903E-21
    0.646521565074         0.17604722E-05      0.84121065E-02     -0.15497322E-15      0.13380265E-07     -0.24649982E-21
    0.652798473473         0.18474468E-05      0.87328838E-02     -0.45433855E-15      0.14436579E-07     -0.75108000E-21
    0.659075381872         0.19374318E-05      0.99096493E-02     -0.23893341E-15      0.17016233E-07     -0.41028158E-21
    0.665352290271         0.20304724E-05      0.11022872E-01     -0.71784623E-15      0.19649614E-07     -0.12796484E-20
    0.671629198670         0.21266118E-05      0.12769692E-01      0.15831831E-15      0.23618531E-07      0.29282194E-21
    0.677906107068         0.22258916E-05      0.24839836E-01     -0.70038704E-15      0.47642769E-07     -0.13433413E-20
    0.684183015467         0.23283513E-05      0.56609844E-01     -0.51930789E-15      0.11253354E-06     -0.10323214E-20
    0.690459923866         0.24340282E-05      0.16346162E+00      0.13818403E-14      0.33660203E-06      0.28455013E-20
    0.696736832265         0.25429579E-05      0.25732888E+00     -0.70396194E-14      0.54862138E-06     -0.15008365E-19
    0.703013740663         0.26551734E-05      0.16948681E+00     -0.11638022E-14      0.37392007E-06     -0.25675686E-20
    0.709290649062         0.27707053E-05      0.16218538E+00     -0.69021975E-14      0.37007659E-06     -0.15749519E-19
    0.715567557461         0.28895822E-05      0.28379868E+00     -0.62391713E-14      0.66943526E-06     -0.14717197E-19
    0.721844465860         0.30118296E-05      0.25757711E+00     -0.14965767E-13      0.62778050E-06     -0.36475356E-19
    0.728121374259         0.31374707E-05      0.19649309E+00     -0.72982729E-14      0.49458048E-06     -0.18370027E-19
    0.734398282657         0.32665259E-05      0.21173195E+00     -0.15679084E-13      0.55011649E-06     -0.40736991E-19
    0.740675191056         0.33990128E-05      0.26002276E+00     -0.13656320E-13      0.69702791E-06     -0.36607705E-19
    0.746952099455         0.35349461E-05      0.27751378E+00     -0.89049078E-14      0.76716431E-06     -0.24616895E-19
    0.753229007854         0.36743374E-05      0.29430847E+00     -0.20027802E-13      0.83862646E-06     -0.57068845E-19
    0.759505916252         0.38171952E-05      0.31804030E+00      0.31196036E-14      0.93370390E-06      0.91585437E-20
    0.765782824651         0.39635250E-05      0.26620334E+00     -0.71091318E-14      0.80482838E-06     -0.21493461E-19
    0.772059733050         0.41133290E-05      0.24237377E+00     -0.13778724E-14      0.75429629E-06     -0.42881043E-20
    0.778336641449         0.42666060E-05      0.28995809E+00     -0.12350145E-13      0.92846190E-06     -0.39545851E-19
    0.784613549848         0.44233513E-05      0.31727907E+00     -0.67678852E-14      0.10448426E-05     -0.22287554E-19
    0.790890458246         0.45835571E-05      0.32998796E+00     -0.19078316E-13      0.11171158E-05     -0.64586262E-19
    0.797167366645         0.47472116E-05      0.34612676E+00     -0.12859798E-13      0.12040321E-05     -0.44733928E-19
    0.803444275044         0.49142998E-05      0.35434761E+00     -0.57638177E-14      0.12660452E-05     -0.20593489E-19
    0.809721183443         0.50848028E-05      0.36707695E+00     -0.19223485E-13      0.13465098E-05     -0.70515493E-19
    0.815998091842         0.52586980E-05      0.37244994E+00     -0.11812905E-13      0.14020736E-05     -0.44469230E-19
    0.822275000240         0.54359592E-05      0.37852627E+00     -0.25855272E-13      0.14617359E-05     -0.99844009E-19
    0.828551908639         0.56165561E-05      0.37924345E+00     -0.17861692E-13      0.15016968E-05     -0.70727251E-19
    0.834828817038         0.58004548E-05      0.37792102E+00     -0.31304959E-13      0.15338379E-05     -0.12705494E-18
    0.841105725437         0.59876175E-05      0.37516029E+00     -0.23348683E-13      0.15600342E-05     -0.97091152E-19
    0.847382633835         0.61780022E-05      0.36835430E+00     -0.36098955E-13      0.15687294E-05     -0.15373648E-18
    0.853659542234         0.63715632E-05      0.36294283E+00     -0.75282999E-14      0.15823892E-05     -0.32822527E-19
    0.859936450633         0.65682506E-05      0.35164844E+00      0.47461685E-16      0.15689383E-05      0.21175824E-21
    0.866213359032         0.67680107E-05      0.34320424E+00     -0.12550401E-13      0.15663998E-05     -0.57280603E-19
    0.872490267431         0.69707857E-05      0.32825705E+00     -0.50364943E-14      0.15319656E-05     -0.23505164E-19
    0.878767175829         0.71765137E-05      0.31686549E+00     -0.16246803E-13      0.15115706E-05     -0.77503515E-19
    0.885044084228         0.73851287E-05      0.29968945E+00     -0.90798700E-14      0.14607585E-05     -0.44257471E-19
    0.891320992627         0.75965609E-05      0.28596849E+00     -0.18970487E-13      0.14236882E-05     -0.94444174E-19
    0.897597901026         0.78107362E-05      0.26754404E+00     -0.12227128E-13      0.13599384E-05     -0.62151043E-19
    0.903874809424         0.80275766E-05      0.25159366E+00     -0.63063608E-14      0.13052379E-05     -0.32716648E-19
    0.910151717823         0.82470002E-05      0.23129003E+00     -0.14262768E-13      0.12242015E-05     -0.75491811E-19
    0.916428626222         0.84689209E-05      0.21220962E+00     -0.86497922E-14      0.11455348E-05     -0.46692691E-19
    0.922705534621         0.86932488E-05      0.18681804E+00     -0.14265555E-13      0.10281384E-05     -0.78509366E-19
    0.928982443020         0.89198899E-05      0.20384985E+00     -0.11317063E-13      0.11433421E-05     -0.63474531E-19
    0.935259351418         0.91487464E-05      0.38766801E+00     -0.35502790E-13      0.22151508E-05     -0.20286439E-18
    0.941536259817         0.93797169E-05      0.44427260E+00     -0.63681294E-14      0.25853301E-05     -0.37057691E-19
    0.947813168216         0.96126957E-05      0.31233638E+00     -0.15727393E-13      0.18503711E-05     -0.93173624E-19
    0.954090076615         0.98475739E-05      0.25387965E+00     -0.76391652E-14      0.15306700E-05     -0.46057417E-19
    0.960366985013         0.10084238E-04      0.22570139E+00     -0.20023898E-14      0.13843756E-05     -0.12281978E-19
    0.966643893412         0.10322573E-04      0.20307148E+00     -0.91657671E-14      0.12667304E-05     -0.57174724E-19
    0.972920801811         0.10562458E-04      0.18768804E+00     -0.45245804E-14      0.11902492E-05     -0.28693241E-19
    0.979197710210         0.10803769E-04      0.17159302E+00     -0.10341591E-13      0.11059063E-05     -0.66650905E-19
    0.985474618609         0.11046380E-04      0.15966279E+00     -0.63388145E-14      0.10454230E-05     -0.41504614E-19
    0.991751527007         0.11290161E-04      0.14273312E+00     -0.10811079E-13      0.94915208E-06     -0.71891921E-19
    0.998028435406         0.11534978E-04      0.13941425E+00     -0.77159208E-14      0.94122797E-06     -0.52092526E-19
    1.004305343805         0.11780695E-04      0.15383388E+00     -0.14053810E-13      0.10540736E-05     -0.96297058E-19
    1.010582252204         0.12027173E-04      0.15803493E+00     -0.11163711E-13      0.10986485E-05     -0.77609394E-19
    1.016859160602         0.12274269E-04      0.14259049E+00     -0.71177055E-14      0.10054008E-05     -0.50186702E-19
