 
 # Omega; pulse ft; projected flux at t=    500.250000000000     
    0.000000000000         0.10341091E-10      0.00000000E+00      0.00000000E+00      0.77240915E-08     -0.42351647E-21
    0.006276908399         0.40699280E-10      0.20679191E+01      0.20271031E-12      0.78322816E-08      0.76776901E-21
    0.012553816798         0.13187398E-09      0.12932171E+01     -0.66019270E-13      0.79353954E-08     -0.40510524E-21
    0.018830725196         0.28416575E-09      0.91312787E+00      0.14496609E-12      0.80491513E-08      0.12778648E-20
    0.025107633595         0.49807598E-09      0.70387626E+00      0.64904166E-13      0.81564267E-08      0.75210105E-21
    0.031384541994         0.77430759E-09      0.57426850E+00      0.11091961E-13      0.82761149E-08      0.15985265E-21
    0.037661450393         0.11137660E-08      0.48556961E+00      0.11993423E-13      0.83880735E-08      0.20718289E-21
    0.043938358791         0.15175606E-08      0.42199853E+00      0.28325907E-13      0.85138685E-08      0.57147841E-21
    0.050215267190         0.19870057E-08      0.37341096E+00      0.71153161E-13      0.86310613E-08      0.16446419E-20
    0.056492175589         0.25236231E-08      0.33582010E+00      0.34037176E-14      0.87630782E-08      0.88818518E-22
    0.062769083988         0.31291437E-08      0.30515645E+00      0.15832676E-13      0.88861995E-08      0.46104979E-21
    0.069045992387         0.38055096E-08      0.28030683E+00      0.50439873E-13      0.90244725E-08      0.16239106E-20
    0.075322900785         0.45548772E-08      0.25915703E+00      0.24165195E-13      0.91543273E-08      0.85359869E-21
    0.081599809184         0.53796196E-08      0.24146471E+00      0.35709665E-15      0.92988639E-08      0.13751878E-22
    0.087876717583         0.62823298E-08      0.22596602E+00      0.60154283E-14      0.94363458E-08      0.25120441E-21
    0.094153625982         0.72658239E-08      0.21268189E+00      0.30707766E-13      0.95872077E-08      0.13842351E-20
    0.100430534380         0.83331444E-08      0.20081622E+00     -0.62505905E-15      0.97332018E-08     -0.30295490E-22
    0.106707442779         0.94875639E-08      0.19043513E+00      0.19408708E-13      0.98905598E-08      0.10080230E-20
    0.112984351178         0.10732589E-07      0.18104578E+00      0.48942681E-13      0.10045890E-07      0.27157373E-20
    0.119261259577         0.12071965E-07      0.17267838E+00      0.26650352E-14      0.10210108E-07      0.15757791E-21
    0.125538167976         0.13509678E-07      0.16505398E+00      0.16060354E-13      0.10375500E-07      0.10095739E-20
    0.131815076374         0.15049961E-07      0.15814366E+00      0.96012406E-14      0.10547168E-07      0.64034119E-21
    0.138091984773         0.16697298E-07      0.15182184E+00      0.55834100E-14      0.10723234E-07      0.39435836E-21
    0.144368893172         0.18456429E-07      0.14600396E+00     -0.65283617E-14      0.10903162E-07     -0.48751957E-21
    0.150645801571         0.20332352E-07      0.14067113E+00     -0.18124833E-14      0.11090455E-07     -0.14289545E-21
    0.156922709970         0.22330332E-07      0.13569741E+00      0.16453130E-13      0.11279627E-07      0.13676397E-20
    0.163199618368         0.24455902E-07      0.13113341E+00     -0.91426686E-14      0.11478673E-07     -0.80029724E-21
    0.169476526767         0.26714868E-07      0.12682911E+00      0.14476827E-13      0.11678208E-07      0.13330016E-20
    0.175753435166         0.29113317E-07      0.12287559E+00     -0.12793088E-13      0.11889602E-07     -0.12378758E-20
    0.182030343565         0.31657619E-07      0.11911391E+00     -0.16046622E-13      0.12100707E-07     -0.16301662E-20
    0.188307251963         0.34354433E-07      0.11565443E+00     -0.20021948E-13      0.12325138E-07     -0.21337124E-20
    0.194584160362         0.37210710E-07      0.11234080E+00     -0.62776033E-14      0.12549077E-07     -0.70124236E-21
    0.200861068761         0.40233700E-07      0.10928825E+00      0.63573012E-14      0.12787377E-07      0.74384217E-21
    0.207137977160         0.43430955E-07      0.10635081E+00     -0.14117088E-13      0.13025495E-07     -0.17290143E-20
    0.213414885559         0.46810335E-07      0.10363904E+00      0.36460762E-14      0.13278659E-07      0.46715025E-21
    0.219691793957         0.50380010E-07      0.10102188E+00     -0.17552646E-14      0.13532364E-07     -0.23512609E-21
    0.225968702356         0.54148468E-07      0.98599955E-01     -0.14921416E-15      0.13801567E-07     -0.20886310E-22
    0.232245610755         0.58124513E-07      0.96258980E-01     -0.57684875E-14      0.14072358E-07     -0.84331063E-21
    0.238522519154         0.62317278E-07      0.94087334E-01     -0.11341563E-14      0.14358995E-07     -0.17308754E-21
    0.244799427552         0.66736218E-07      0.91987173E-01      0.13358697E-13      0.14648470E-07      0.21273017E-20
    0.251076335951         0.71391124E-07      0.90034771E-01     -0.57035915E-14      0.14954177E-07     -0.94732860E-21
    0.257353244350         0.76292116E-07      0.88147620E-01      0.79772463E-15      0.15264213E-07      0.13813916E-21
    0.263630152749         0.81449655E-07      0.86389470E-01      0.90316857E-14      0.15590814E-07      0.16299594E-20
    0.269907061148         0.86874540E-07      0.84690556E-01      0.31522777E-14      0.15923079E-07      0.59267491E-21
    0.276183969546         0.92577913E-07      0.83106692E-01      0.17278297E-14      0.16272666E-07      0.33831687E-21
    0.282460877945         0.98571259E-07      0.81578054E-01     -0.42242078E-14      0.16629498E-07     -0.86109502E-21
    0.288737786344         0.10486641E-06      0.80152521E-01      0.11291518E-13      0.17004496E-07      0.23955151E-20
    0.295014694743         0.11147554E-06      0.78778587E-01      0.59024342E-14      0.17388333E-07      0.13028095E-20
    0.301291603141         0.11841119E-06      0.77498210E-01      0.11530040E-13      0.17791443E-07      0.26469780E-20
    0.307568511540         0.12568621E-06      0.76266406E-01     -0.55600730E-14      0.18205091E-07     -0.13272113E-20
    0.313845419939         0.13331385E-06      0.75120185E-01     -0.12419715E-13      0.18639314E-07     -0.30816614E-20
    0.320122328338         0.14130766E-06      0.74020456E-01      0.13233074E-14      0.19086017E-07      0.34121200E-21
    0.326399236737         0.14968158E-06      0.72999757E-01     -0.10634828E-13      0.19554847E-07     -0.28488100E-20
    0.332676145135         0.15844985E-06      0.72023969E-01     -0.13973790E-15      0.20038307E-07     -0.38877489E-22
    0.338953053534         0.16762710E-06      0.71121033E-01     -0.36379483E-14      0.20545492E-07     -0.10509330E-20
    0.345229961933         0.17722828E-06      0.70263005E-01      0.20839941E-14      0.21070025E-07      0.62493495E-21
    0.351506870332         0.18726866E-06      0.69472649E-01      0.14459529E-14      0.21620163E-07      0.44998625E-21
    0.357783778731         0.19776389E-06      0.68727548E-01      0.34841682E-15      0.22190700E-07      0.11249656E-21
    0.364060687129         0.20872991E-06      0.68045536E-01      0.45248180E-14      0.22788951E-07      0.15153949E-20
    0.370337595528         0.22018301E-06      0.67409954E-01     -0.26771139E-14      0.23411209E-07     -0.92975101E-21
    0.376614503927         0.23213979E-06      0.66833586E-01      0.25248273E-14      0.24063629E-07      0.90907149E-21
    0.382891412326         0.24461718E-06      0.66305185E-01      0.35863587E-14      0.24744155E-07      0.13383782E-20
    0.389168320724         0.25763241E-06      0.65832951E-01      0.38353395E-14      0.25457758E-07      0.14831348E-20
    0.395445229123         0.27120301E-06      0.65410973E-01     -0.14680741E-14      0.26204301E-07     -0.58812542E-21
    0.401722137522         0.28534681E-06      0.65043181E-01      0.24222310E-14      0.26987511E-07      0.10050244E-20
    0.407999045921         0.30008192E-06      0.64728205E-01      0.46593059E-15      0.27809172E-07      0.20017771E-21
    0.414275954320         0.31542674E-06      0.64465950E-01     -0.45882483E-14      0.28671669E-07     -0.20406546E-20
    0.420552862718         0.33139993E-06      0.64260047E-01      0.45572617E-14      0.29579216E-07      0.20977300E-20
    0.426829771117         0.34802041E-06      0.64106474E-01      0.38972600E-14      0.30532735E-07      0.18561933E-20
    0.433106679516         0.36530735E-06      0.64013365E-01      0.49023675E-15      0.31539005E-07      0.24153674E-21
    0.439383587915         0.38328015E-06      0.63973011E-01     -0.24886064E-14      0.32597409E-07     -0.12680679E-20
    0.445660496313         0.40195843E-06      0.63998883E-01     -0.10723344E-14      0.33718107E-07     -0.56496436E-21
    0.451937404712         0.42136202E-06      0.64078665E-01      0.66828562E-15      0.34898307E-07      0.36395947E-21
    0.458214313111         0.44151098E-06      0.64235463E-01     -0.49056891E-14      0.36154430E-07     -0.27611289E-20
    0.464491221510         0.46242550E-06      0.64451568E-01      0.26200640E-14      0.37481034E-07      0.15236667E-20
    0.470768129909         0.48412598E-06      0.64724515E-01      0.28145962E-14      0.38880688E-07      0.16907572E-20
    0.477045038307         0.50663295E-06      0.65065453E-01     -0.54668399E-15      0.40364382E-07     -0.33914405E-21
    0.483321946706         0.52996708E-06      0.65506650E-01     -0.19526570E-14      0.41957690E-07     -0.12506971E-20
    0.489598855105         0.55414917E-06      0.66011885E-01     -0.13937518E-14      0.43643768E-07     -0.92147920E-21
    0.495875763504         0.57920011E-06      0.66619900E-01     -0.85834928E-15      0.45454149E-07     -0.58564387E-21
    0.502152671902         0.60514088E-06      0.67300956E-01     -0.59035801E-14      0.47375712E-07     -0.41557554E-20
    0.508429580301         0.63199252E-06      0.68098662E-01      0.38277599E-15      0.49446267E-07      0.27793269E-21
    0.514706488700         0.65977612E-06      0.68973436E-01      0.19089446E-14      0.51645515E-07      0.14293681E-20
    0.520983397099         0.68851279E-06      0.70020578E-01     -0.27966552E-14      0.54053974E-07     -0.21589414E-20
    0.527260305498         0.71822366E-06      0.71155341E-01     -0.27735611E-14      0.56618184E-07     -0.22069179E-20
    0.533537213896         0.74892983E-06      0.72436457E-01     -0.13437373E-14      0.59394662E-07     -0.11018046E-20
    0.539814122295         0.78065236E-06      0.73832405E-01     -0.48921024E-14      0.62369786E-07     -0.41325943E-20
    0.546091030694         0.81341227E-06      0.75456068E-01     -0.44036158E-14      0.65652860E-07     -0.38315006E-20
    0.552367939093         0.84723047E-06      0.77208529E-01     -0.47786774E-14      0.69175480E-07     -0.42814869E-20
    0.558644847491         0.88212778E-06      0.79231552E-01     -0.26903705E-14      0.73081536E-07     -0.24815418E-20
    0.564921755890         0.91812490E-06      0.81384590E-01     -0.73190104E-14      0.77262623E-07     -0.69483171E-20
    0.571198664289         0.95524236E-06      0.83924484E-01     -0.46470169E-14      0.81983956E-07     -0.45395672E-20
    0.577475572688         0.99350052E-06      0.86602481E-01     -0.86326621E-14      0.87031931E-07     -0.86754703E-20
    0.583752481087         0.10329195E-05      0.89810007E-01     -0.41071016E-14      0.92827420E-07     -0.42450909E-20
    0.590029389485         0.10735193E-05      0.93144313E-01      0.99623156E-16      0.98993428E-07      0.10587912E-21
    0.596306297884         0.11153196E-05      0.97268191E-01     -0.36765062E-14      0.10627095E-06     -0.40167891E-20
    0.602583206283         0.11583396E-05      0.10140599E+00     -0.31234425E-15      0.11386659E-06     -0.35072458E-21
    0.608860114682         0.12025986E-05      0.10682467E+00     -0.50128509E-14      0.12325045E-06     -0.57836468E-20
    0.615137023081         0.12481153E-05      0.11175027E+00     -0.89891696E-15      0.13244795E-06     -0.10654086E-20
    0.621413931479         0.12949080E-05      0.11890162E+00     -0.52462129E-14      0.14473031E-06     -0.63858343E-20
    0.627690839878         0.13429948E-05      0.12129885E+00     -0.50459262E-14      0.15159994E-06     -0.63064250E-20
    0.633967748277         0.13923932E-05      0.56686666E-01     -0.27982180E-14      0.72725957E-07     -0.35899639E-20
    0.640244656676         0.14431204E-05      0.77344387E-01     -0.26587383E-14      0.10183550E-06     -0.35006284E-20
    0.646521565074         0.14951931E-05      0.15726630E+00     -0.26059970E-14      0.21245342E-06     -0.35204807E-20
    0.652798473473         0.15486273E-05      0.17248130E+00     -0.96462855E-14      0.23901415E-06     -0.13367239E-19
    0.659075381872         0.16034389E-05      0.19753014E+00     -0.64725292E-14      0.28071427E-06     -0.91982484E-20
    0.665352290271         0.16596427E-05      0.22026030E+00     -0.16204604E-13      0.32093197E-06     -0.23611043E-19
    0.671629198670         0.17172535E-05      0.26623111E+00     -0.74435649E-15      0.39762844E-06     -0.11117307E-20
    0.677906107068         0.17762849E-05      0.30041353E+00     -0.74017976E-14      0.45980784E-06     -0.11329066E-19
    0.684183015467         0.18367504E-05      0.42273951E+00     -0.38316384E-14      0.66292515E-06     -0.60086400E-20
    0.690459923866         0.18986625E-05      0.31473183E+00      0.25047871E-14      0.50554959E-06      0.40234065E-20
    0.696736832265         0.19620330E-05      0.68444914E+00     -0.18086948E-13      0.11258811E-05     -0.29752032E-19
    0.703013740663         0.20268732E-05      0.18529890E+01     -0.11693558E-13      0.31206813E-05     -0.19693516E-19
    0.709290649062         0.20931935E-05      0.49496130E+01     -0.21177692E-12      0.85323799E-05     -0.36507120E-18
    0.715567557461         0.21610035E-05      0.11313086E+02     -0.24776011E-12      0.19957206E-04     -0.43706900E-18
    0.721844465860         0.22303120E-05      0.14754487E+02     -0.85790798E-12      0.26629310E-04     -0.15483762E-17
    0.728121374259         0.23011271E-05      0.12862815E+02     -0.48268680E-12      0.23745792E-04     -0.89107866E-18
    0.734398282657         0.23734559E-05      0.12251088E+02     -0.90723154E-12      0.23127994E-04     -0.17127006E-17
    0.740675191056         0.24473047E-05      0.14070121E+02     -0.74518473E-12      0.27156380E-04     -0.14382619E-17
    0.746952099455         0.25226788E-05      0.14492186E+02     -0.46542164E-12      0.28590182E-04     -0.91818371E-18
    0.753229007854         0.25995828E-05      0.14577018E+02     -0.99324722E-12      0.29387260E-04     -0.20023859E-17
    0.759505916252         0.26780200E-05      0.14296129E+02      0.13900184E-12      0.29445227E-04      0.28629714E-18
    0.765782824651         0.27579930E-05      0.11932987E+02     -0.31807245E-12      0.25104439E-04     -0.66915603E-18
    0.772059733050         0.28395032E-05      0.11566256E+02     -0.69391728E-13      0.24848378E-04     -0.14907780E-18
    0.778336641449         0.29225512E-05      0.13024609E+02     -0.55378476E-12      0.28567561E-04     -0.12146452E-17
    0.784613549848         0.30071363E-05      0.13337819E+02     -0.28602960E-12      0.29860422E-04     -0.64035691E-18
    0.790890458246         0.30932570E-05      0.13322913E+02     -0.76820404E-12      0.30437758E-04     -0.17550523E-17
    0.797167366645         0.31809104E-05      0.13212089E+02     -0.48695561E-12      0.30795497E-04     -0.11350241E-17
    0.803444275044         0.32700927E-05      0.12999001E+02     -0.20663800E-12      0.30904952E-04     -0.49127911E-18
    0.809721183443         0.33607990E-05      0.12805528E+02     -0.66938344E-12      0.31046907E-04     -0.16229151E-17
    0.815998091842         0.34530231E-05      0.12523509E+02     -0.39544124E-12      0.30956381E-04     -0.97747602E-18
    0.822275000240         0.35467578E-05      0.12188343E+02     -0.82969258E-12      0.30709513E-04     -0.20904773E-17
    0.828551908639         0.36419946E-05      0.11770831E+02     -0.55487214E-12      0.30223203E-04     -0.14247094E-17
    0.834828817038         0.37387238E-05      0.11273480E+02     -0.93509931E-12      0.29491561E-04     -0.24462312E-17
    0.841105725437         0.38369346E-05      0.10755568E+02     -0.66816758E-12      0.28660315E-04     -0.17804633E-17
    0.847382633835         0.39366149E-05      0.10171773E+02     -0.99633643E-12      0.27602844E-04     -0.27037292E-17
    0.853659542234         0.40377513E-05      0.96086391E+01     -0.19743198E-12      0.26547923E-04     -0.54548922E-18
    0.859936450633         0.41403294E-05      0.89917002E+01      0.18070460E-14      0.25288563E-04      0.50821977E-20
    0.866213359032         0.42443332E-05      0.84040039E+01     -0.30718448E-12      0.24053852E-04     -0.87922020E-18
    0.872490267431         0.43497456E-05      0.77846764E+01     -0.11983411E-12      0.22670319E-04     -0.34897757E-18
    0.878767175829         0.44565484E-05      0.71919474E+01     -0.36885138E-12      0.21305175E-04     -0.10926725E-17
    0.885044084228         0.45647219E-05      0.66026940E+01     -0.20017834E-12      0.19892272E-04     -0.60308746E-18
    0.891320992627         0.46742450E-05      0.60286209E+01     -0.39955540E-12      0.18467543E-04     -0.12239626E-17
    0.897597901026         0.47850957E-05      0.54929634E+01     -0.25187710E-12      0.17105245E-04     -0.78435251E-18
    0.903874809424         0.48972503E-05      0.49459852E+01     -0.12391488E-12      0.15653470E-04     -0.39217625E-18
    0.910151717823         0.50106841E-05      0.44672368E+01     -0.27550847E-12      0.14366005E-04     -0.88599646E-18
    0.916428626222         0.51253709E-05      0.39204831E+01     -0.15919456E-12      0.12807962E-04     -0.52007823E-18
    0.922705534621         0.52412834E-05      0.34860340E+01     -0.26625409E-12      0.11566979E-04     -0.88345536E-18
    0.928982443020         0.53583927E-05      0.29587515E+01     -0.16491620E-12      0.99689479E-05     -0.55565361E-18
    0.935259351418         0.54766690E-05      0.34599464E+01     -0.31647027E-12      0.11834982E-04     -0.10825081E-17
    0.941536259817         0.55960809E-05      0.42805816E+01     -0.60992941E-13      0.14861530E-04     -0.21175824E-18
    0.947813168216         0.57165958E-05      0.35676370E+01     -0.17959422E-12      0.12569246E-04     -0.63273361E-18
    0.954090076615         0.58381799E-05      0.28770250E+01     -0.85784135E-13      0.10283608E-04     -0.30662593E-18
    0.960366985013         0.59607981E-05      0.25729302E+01     -0.23128875E-13      0.93284396E-05     -0.83856262E-19
    0.966643893412         0.60844141E-05      0.22389884E+01     -0.10090400E-12      0.82322376E-05     -0.37100043E-18
    0.972920801811         0.62089900E-05      0.20348391E+01     -0.49419948E-13      0.75855549E-05     -0.18422967E-18
    0.979197710210         0.63344872E-05      0.18076743E+01     -0.10871442E-12      0.68308551E-05     -0.41081098E-18
    0.985474618609         0.64608656E-05      0.16715731E+01     -0.66242706E-13      0.64015395E-05     -0.25368637E-18
    0.991751527007         0.65880838E-05      0.15891917E+01     -0.12060423E-12      0.61666080E-05     -0.46798570E-18
    0.998028435406         0.67160994E-05      0.20190157E+01     -0.11151227E-12      0.79364757E-05     -0.43833955E-18
    1.004305343805         0.68448687E-05      0.22012310E+01     -0.20095051E-12      0.87635236E-05     -0.80002262E-18
    1.010582252204         0.69743470E-05      0.15264453E+01     -0.10789345E-12      0.61535671E-05     -0.43495142E-18
    1.016859160602         0.71044882E-05      0.11075301E+01     -0.55622346E-13      0.45200302E-05     -0.22700483E-18
