 
 # Omega; pulse ft; projected flux at t=    500.250000000000     
    0.000000000000         0.10341091E-10      0.00000000E+00      0.00000000E+00      0.55771446E-09     -0.21983152E-19
    0.006276908399         0.40699280E-10      0.13573320E+00     -0.58174455E-11      0.51409200E-09     -0.22033681E-19
    0.012553816798         0.13187398E-09      0.75830034E-01     -0.35842801E-11      0.46530572E-09     -0.21993740E-19
    0.018830725196         0.28416575E-09      0.51808272E-01     -0.24931581E-11      0.45668590E-09     -0.21976995E-19
    0.025107633595         0.49807598E-09      0.39650546E-01     -0.18956297E-11      0.45946538E-09     -0.21966310E-19
    0.031384541994         0.77430759E-09      0.32089451E-01     -0.15302740E-11      0.46245961E-09     -0.22053663E-19
    0.037661450393         0.11137660E-08      0.27072405E-01     -0.12752663E-11      0.46766790E-09     -0.22029854E-19
    0.043938358791         0.15175606E-08      0.23419521E-01     -0.10895572E-11      0.47249151E-09     -0.21981940E-19
    0.050215267190         0.19870057E-08      0.20702662E-01     -0.95158749E-12      0.47852357E-09     -0.21995096E-19
    0.056492175589         0.25236231E-08      0.18562259E-01     -0.84361682E-12      0.48437402E-09     -0.22013811E-19
    0.062769083988         0.31291437E-08      0.16845071E-01     -0.75588211E-12      0.49053088E-09     -0.22011396E-19
    0.069045992387         0.38055096E-08      0.15429625E-01     -0.68144481E-12      0.49675644E-09     -0.21939101E-19
    0.075322900785         0.45548772E-08      0.14242722E-01     -0.62328441E-12      0.50310247E-09     -0.22016572E-19
    0.081599809184         0.53796196E-08      0.13232004E-01     -0.57288262E-12      0.50956766E-09     -0.22061847E-19
    0.087876717583         0.62823298E-08      0.12364259E-01     -0.52700108E-12      0.51633173E-09     -0.22007576E-19
    0.094153625982         0.72658239E-08      0.11607523E-01     -0.48865496E-12      0.52324029E-09     -0.22027435E-19
    0.100430534380         0.83331444E-08      0.10940061E-01     -0.45407207E-12      0.53024512E-09     -0.22008058E-19
    0.106707442779         0.94875639E-08      0.10348152E-01     -0.42368572E-12      0.53744820E-09     -0.22004811E-19
    0.112984351178         0.10732589E-07      0.98185044E-02     -0.39637981E-12      0.54481035E-09     -0.21994371E-19
    0.119261259577         0.12071965E-07      0.93423676E-02     -0.37219342E-12      0.55239447E-09     -0.22007011E-19
    0.125538167976         0.13509678E-07      0.89100154E-02     -0.35073201E-12      0.56009469E-09     -0.22047452E-19
    0.131815076374         0.15049961E-07      0.85184366E-02     -0.33011057E-12      0.56812511E-09     -0.22016259E-19
    0.138091984773         0.16697298E-07      0.81509570E-02     -0.31144236E-12      0.57570518E-09     -0.21997292E-19
    0.144368893172         0.18456429E-07      0.78123462E-02     -0.29445871E-12      0.58340391E-09     -0.21989343E-19
    0.150645801571         0.20332352E-07      0.75136516E-02     -0.27892258E-12      0.59237326E-09     -0.21990144E-19
    0.156922709970         0.22330332E-07      0.72337312E-02     -0.26455633E-12      0.60129217E-09     -0.21990816E-19
    0.163199618368         0.24455902E-07      0.69713250E-02     -0.25114646E-12      0.61023016E-09     -0.21983934E-19
    0.169476526767         0.26714868E-07      0.67261044E-02     -0.23854143E-12      0.61932824E-09     -0.21964489E-19
    0.175753435166         0.29113317E-07      0.64987775E-02     -0.22841318E-12      0.62883012E-09     -0.22101555E-19
    0.182030343565         0.31657619E-07      0.62834201E-02     -0.21728727E-12      0.63832869E-09     -0.22074077E-19
    0.188307251963         0.34354433E-07      0.60911465E-02     -0.20751753E-12      0.64912537E-09     -0.22114868E-19
    0.194584160362         0.37210710E-07      0.59116530E-02     -0.19798031E-12      0.66036373E-09     -0.22115475E-19
    0.200861068761         0.40233700E-07      0.57234270E-02     -0.18852570E-12      0.66967510E-09     -0.22058632E-19
    0.207137977160         0.43430955E-07      0.55491151E-02     -0.18096352E-12      0.67963726E-09     -0.22163813E-19
    0.213414885559         0.46810335E-07      0.53914584E-02     -0.17243417E-12      0.69077578E-09     -0.22092973E-19
    0.219691793957         0.50380010E-07      0.52403099E-02     -0.16373342E-12      0.70196457E-09     -0.21932875E-19
    0.225968702356         0.54148468E-07      0.50989387E-02     -0.15652307E-12      0.71372592E-09     -0.21909378E-19
    0.232245610755         0.58124513E-07      0.49636710E-02     -0.14997581E-12      0.72565235E-09     -0.21925366E-19
    0.238522519154         0.62317278E-07      0.48360890E-02     -0.14378455E-12      0.73805237E-09     -0.21943460E-19
    0.244799427552         0.66736218E-07      0.47137699E-02     -0.13759859E-12      0.75064289E-09     -0.21911846E-19
    0.251076335951         0.71391124E-07      0.45993668E-02     -0.13247972E-12      0.76392424E-09     -0.22003999E-19
    0.257353244350         0.76292116E-07      0.44898903E-02     -0.12679179E-12      0.77749848E-09     -0.21956088E-19
    0.263630152749         0.81449655E-07      0.43869846E-02     -0.12216287E-12      0.79172450E-09     -0.22046884E-19
    0.269907061148         0.86874540E-07      0.42882746E-02     -0.11659337E-12      0.80625917E-09     -0.21921281E-19
    0.276183969546         0.92577913E-07      0.41953166E-02     -0.11233949E-12      0.82146197E-09     -0.21996581E-19
    0.282460877945         0.98571259E-07      0.41071063E-02     -0.10812930E-12      0.83722416E-09     -0.22041908E-19
    0.288737786344         0.10486641E-06      0.40235905E-02     -0.10317412E-12      0.85361170E-09     -0.21888569E-19
    0.295014694743         0.11147554E-06      0.39464322E-02     -0.99779479E-13      0.87107269E-09     -0.22023736E-19
    0.301291603141         0.11841119E-06      0.38726693E-02     -0.95648101E-13      0.88905765E-09     -0.21958156E-19
    0.307568511540         0.12568621E-06      0.38116131E-02     -0.92336261E-13      0.90984705E-09     -0.22041029E-19
    0.313845419939         0.13331385E-06      0.37614623E-02     -0.88782796E-13      0.93331875E-09     -0.22029371E-19
    0.320122328338         0.14130766E-06      0.38396461E-02     -0.85297489E-13      0.99004459E-09     -0.21993776E-19
    0.326399236737         0.14968158E-06      0.37276908E-02     -0.82214377E-13      0.99855709E-09     -0.22023219E-19
    0.332676145135         0.15844985E-06      0.34675328E-02     -0.79224794E-13      0.96472729E-09     -0.22041701E-19
    0.338953053534         0.16762710E-06      0.34158873E-02     -0.76591178E-13      0.98678384E-09     -0.22125711E-19
    0.345229961933         0.17722828E-06      0.33757592E-02     -0.73309853E-13      0.10123013E-08     -0.21983695E-19
    0.351506870332         0.18726866E-06      0.33281285E-02     -0.70659486E-13      0.10357267E-08     -0.21989511E-19
    0.357783778731         0.19776389E-06      0.32845503E-02     -0.68093872E-13      0.10605132E-08     -0.21986099E-19
    0.364060687129         0.20872991E-06      0.32412187E-02     -0.65680330E-13      0.10855080E-08     -0.21996826E-19
    0.370337595528         0.22018301E-06      0.32015177E-02     -0.63318717E-13      0.11118744E-08     -0.21990338E-19
    0.376614503927         0.23213979E-06      0.31613466E-02     -0.61148736E-13      0.11382521E-08     -0.22016782E-19
    0.382891412326         0.24461718E-06      0.31252073E-02     -0.59047329E-13      0.11662831E-08     -0.22035626E-19
    0.389168320724         0.25763241E-06      0.30905849E-02     -0.57046263E-13      0.11951365E-08     -0.22059925E-19
    0.395445229123         0.27120301E-06      0.30599889E-02     -0.55061683E-13      0.12258627E-08     -0.22058270E-19
    0.401722137522         0.28534681E-06      0.30298012E-02     -0.52846627E-13      0.12571155E-08     -0.21926955E-19
    0.407999045921         0.30008192E-06      0.30045736E-02     -0.51389665E-13      0.12908546E-08     -0.22078536E-19
    0.414275954320         0.31542674E-06      0.29792777E-02     -0.49705287E-13      0.13250540E-08     -0.22106764E-19
    0.420552862718         0.33139993E-06      0.29603548E-02     -0.47679519E-13      0.13626659E-08     -0.21947118E-19
    0.426829771117         0.34802041E-06      0.29400670E-02     -0.46259990E-13      0.14002999E-08     -0.22032783E-19
    0.433106679516         0.36530735E-06      0.29291869E-02     -0.44570202E-13      0.14431930E-08     -0.21959474E-19
    0.439383587915         0.38328015E-06      0.29146928E-02     -0.43291381E-13      0.14851800E-08     -0.22059097E-19
    0.445660496313         0.40195843E-06      0.29180806E-02     -0.41975986E-13      0.15374043E-08     -0.22115242E-19
    0.451937404712         0.42136202E-06      0.29120836E-02     -0.40496115E-13      0.15859692E-08     -0.22054858E-19
    0.458214313111         0.44151098E-06      0.29766417E-02     -0.39317985E-13      0.16753796E-08     -0.22129821E-19
    0.464491221510         0.46242550E-06      0.28647245E-02     -0.37872336E-13      0.16659461E-08     -0.22024201E-19
    0.470768129909         0.48412598E-06      0.26595338E-02     -0.36589751E-13      0.15976096E-08     -0.21979843E-19
    0.477045038307         0.50663295E-06      0.27254633E-02     -0.35552376E-13      0.16907843E-08     -0.22055479E-19
    0.483321946706         0.52996708E-06      0.27901023E-02     -0.34382324E-13      0.17870895E-08     -0.22022236E-19
    0.489598855105         0.55414917E-06      0.28019988E-02     -0.33274964E-13      0.18525419E-08     -0.21999747E-19
    0.495875763504         0.57920011E-06      0.28301159E-02     -0.32333808E-13      0.19309622E-08     -0.22061062E-19
    0.502152671902         0.60514088E-06      0.28433735E-02     -0.31500106E-13      0.20015591E-08     -0.22174127E-19
    0.508429580301         0.63199252E-06      0.28826996E-02     -0.30241297E-13      0.20931209E-08     -0.21958130E-19
    0.514706488700         0.65977612E-06      0.29387488E-02     -0.29403740E-13      0.22004587E-08     -0.22016756E-19
    0.520983397099         0.68851279E-06      0.29497796E-02     -0.28602898E-13      0.22771493E-08     -0.22080656E-19
    0.527260305498         0.71822366E-06      0.29094717E-02     -0.27723006E-13      0.23150617E-08     -0.22059149E-19
    0.533537213896         0.74892983E-06      0.29699944E-02     -0.26839058E-13      0.24352629E-08     -0.22006830E-19
    0.539814122295         0.78065236E-06      0.30232776E-02     -0.26238379E-13      0.25539081E-08     -0.22164822E-19
    0.546091030694         0.81341227E-06      0.30778052E-02     -0.25475754E-13      0.26779386E-08     -0.22165959E-19
    0.552367939093         0.84723047E-06      0.30838330E-02     -0.24648595E-13      0.27629801E-08     -0.22084068E-19
    0.558644847491         0.88212778E-06      0.31733750E-02     -0.23900131E-13      0.29270551E-08     -0.22044984E-19
    0.564921755890         0.91812490E-06      0.32054114E-02     -0.23383694E-13      0.30430637E-08     -0.22199356E-19
    0.571198664289         0.95524236E-06      0.33007803E-02     -0.22782492E-13      0.32244586E-08     -0.22255708E-19
    0.577475572688         0.99350052E-06      0.33214804E-02     -0.22230772E-13      0.33379512E-08     -0.22341011E-19
    0.583752481087         0.10329195E-05      0.34657811E-02     -0.21289784E-13      0.35822235E-08     -0.22005072E-19
    0.590029389485         0.10735193E-05      0.34569061E-02     -0.20758391E-13      0.36739869E-08     -0.22061941E-19
    0.596306297884         0.11153196E-05      0.36461160E-02     -0.20253150E-13      0.39835860E-08     -0.22127702E-19
    0.602583206283         0.11583396E-05      0.35569302E-02     -0.19612677E-13      0.39939997E-08     -0.22022650E-19
    0.608860114682         0.12025986E-05      0.38213552E-02     -0.19226922E-13      0.44089420E-08     -0.22183330E-19
    0.615137023081         0.12481153E-05      0.34038165E-02     -0.18581339E-13      0.40342498E-08     -0.22022857E-19
    0.621413931479         0.12949080E-05      0.38772057E-02     -0.18197801E-13      0.47194412E-08     -0.22150863E-19
    0.627690839878         0.13429948E-05      0.14659885E-02     -0.17651807E-13      0.18322000E-08     -0.22061321E-19
    0.633967748277         0.13923932E-05      0.35925027E-02     -0.17387959E-13      0.46089886E-08     -0.22307820E-19
    0.640244656676         0.14431204E-05      0.15633290E-01     -0.17339598E-13      0.20583574E-07     -0.22830185E-19
    0.646521565074         0.14951931E-05      0.15557536E-01     -0.16581391E-13      0.21016910E-07     -0.22400051E-19
    0.652798473473         0.15486273E-05      0.12564101E-01     -0.16562242E-13      0.17410571E-07     -0.22950953E-19
    0.659075381872         0.16034389E-05      0.14874409E-01     -0.15944424E-13      0.21138337E-07     -0.22658959E-19
    0.665352290271         0.16596427E-05      0.15905206E-01     -0.16183599E-13      0.23174803E-07     -0.23580438E-19
    0.671629198670         0.17172535E-05      0.24698433E-01     -0.14500552E-13      0.36888249E-07     -0.21657243E-19
    0.677906107068         0.17762849E-05      0.46345629E-01     -0.15823936E-13      0.70935833E-07     -0.24219848E-19
    0.684183015467         0.18367504E-05      0.12348773E+00     -0.15444710E-13      0.19364910E-06     -0.24219848E-19
    0.690459923866         0.18986625E-05      0.36367662E+00     -0.10678303E-13      0.58416897E-06     -0.17152417E-19
    0.696736832265         0.19620330E-05      0.44400564E+00     -0.25666087E-13      0.73036480E-06     -0.42219298E-19
    0.703013740663         0.20268732E-05      0.21989252E+00     -0.14554079E-13      0.37032841E-06     -0.24511016E-19
    0.709290649062         0.20931935E-05      0.14187961E+00     -0.18832975E-13      0.24457886E-06     -0.32465185E-19
    0.715567557461         0.21610035E-05      0.20325588E+00     -0.16880458E-13      0.35855991E-06     -0.29778502E-19
    0.721844465860         0.22303120E-05      0.24340461E+00     -0.26369641E-13      0.43930342E-06     -0.47592664E-19
    0.728121374259         0.23011271E-05      0.25051334E+00     -0.21278137E-13      0.46246779E-06     -0.39281153E-19
    0.734398282657         0.23734559E-05      0.23947379E+00     -0.29374538E-13      0.45208625E-06     -0.55454188E-19
    0.740675191056         0.24473047E-05      0.25452498E+00     -0.24836748E-13      0.49125213E-06     -0.47936771E-19
    0.746952099455         0.25226788E-05      0.27615016E+00     -0.20032130E-13      0.54478898E-06     -0.39519381E-19
    0.753229007854         0.25995828E-05      0.31292969E+00     -0.32194403E-13      0.63086609E-06     -0.64903900E-19
    0.759505916252         0.26780200E-05      0.34578588E+00     -0.73767618E-14      0.71220285E-06     -0.15193653E-19
    0.765782824651         0.27579930E-05      0.29199931E+00     -0.18281617E-13      0.61430374E-06     -0.38460590E-19
    0.772059733050         0.28395032E-05      0.25813047E+00     -0.11741889E-13      0.55455489E-06     -0.25225700E-19
    0.778336641449         0.29225512E-05      0.30674643E+00     -0.23158842E-13      0.67280309E-06     -0.50795507E-19
    0.784613549848         0.30071363E-05      0.32879864E+00     -0.16907338E-13      0.73610732E-06     -0.37851785E-19
    0.790890458246         0.30932570E-05      0.34868513E+00     -0.29776249E-13      0.79661210E-06     -0.68027334E-19
    0.797167366645         0.31809104E-05      0.36286365E+00     -0.22939607E-13      0.84578345E-06     -0.53468955E-19
    0.803444275044         0.32700927E-05      0.37628206E+00     -0.15319714E-13      0.89460562E-06     -0.36422417E-19
    0.809721183443         0.33607990E-05      0.38486940E+00     -0.29281159E-13      0.93311298E-06     -0.70991949E-19
    0.815998091842         0.34530231E-05      0.39154501E+00     -0.21288377E-13      0.96784506E-06     -0.52621922E-19
    0.822275000240         0.35467578E-05      0.39428665E+00     -0.35635095E-13      0.99343698E-06     -0.89785492E-19
    0.828551908639         0.36419946E-05      0.39508992E+00     -0.27174549E-13      0.10144469E-05     -0.69774339E-19
    0.834828817038         0.37387238E-05      0.39310407E+00     -0.40979400E-13      0.10283650E-05     -0.10720261E-18
    0.841105725437         0.38369346E-05      0.38927194E+00     -0.32502443E-13      0.10372912E-05     -0.86609119E-19
    0.847382633835         0.39366149E-05      0.38322220E+00     -0.45649813E-13      0.10399389E-05     -0.12387857E-18
    0.853659542234         0.40377513E-05      0.37516164E+00     -0.15750105E-13      0.10365425E-05     -0.43516318E-19
    0.859936450633         0.41403294E-05      0.36523149E+00     -0.77928860E-14      0.10271895E-05     -0.21916978E-19
    0.866213359032         0.42443332E-05      0.35333797E+00     -0.20586243E-13      0.10113202E-05     -0.58921729E-19
    0.872490267431         0.43497456E-05      0.34012053E+00     -0.12779639E-13      0.99048960E-06     -0.37216510E-19
    0.878767175829         0.44565484E-05      0.32533977E+00     -0.24107583E-13      0.96377524E-06     -0.71415465E-19
    0.885044084228         0.45647219E-05      0.30980043E+00     -0.16728386E-13      0.93335152E-06     -0.50398460E-19
    0.891320992627         0.46742450E-05      0.29317036E+00     -0.26631266E-13      0.89807209E-06     -0.81579861E-19
    0.897597901026         0.47850957E-05      0.27589219E+00     -0.19720400E-13      0.85913616E-06     -0.61409889E-19
    0.903874809424         0.48972503E-05      0.25780337E+00     -0.13415191E-13      0.81591782E-06     -0.42457526E-19
    0.910151717823         0.50106841E-05      0.23804285E+00     -0.21532330E-13      0.76551229E-06     -0.69244943E-19
    0.916428626222         0.51253709E-05      0.21799895E+00     -0.15588881E-13      0.71218834E-06     -0.50927856E-19
    0.922705534621         0.52412834E-05      0.19239161E+00     -0.21347554E-13      0.63837292E-06     -0.70833130E-19
    0.928982443020         0.53583927E-05      0.21179747E+00     -0.18304818E-13      0.71361111E-06     -0.61674586E-19
    0.935259351418         0.54766690E-05      0.39862879E+00     -0.42932734E-13      0.13635369E-05     -0.14685434E-18
    0.941536259817         0.55960809E-05      0.44776150E+00     -0.12686532E-13      0.15545600E-05     -0.44045713E-19
    0.947813168216         0.57165958E-05      0.31298704E+00     -0.21998489E-13      0.11026937E-05     -0.77503515E-19
    0.954090076615         0.58381799E-05      0.25609096E+00     -0.13833284E-13      0.91536888E-06     -0.49445548E-19
    0.960366985013         0.59607981E-05      0.22692158E+00     -0.80892655E-14      0.82272899E-06     -0.29328516E-19
    0.966643893412         0.60844141E-05      0.20506913E+00     -0.15233508E-13      0.75399130E-06     -0.56010054E-19
    0.972920801811         0.62089900E-05      0.18873927E+00     -0.10466236E-13      0.70358984E-06     -0.39016455E-19
    0.979197710210         0.63344872E-05      0.17338417E+00     -0.16223106E-13      0.65518558E-06     -0.61304010E-19
    0.985474618609         0.64608656E-05      0.16063115E+00     -0.12109476E-13      0.61516105E-06     -0.46375054E-19
    0.991751527007         0.65880838E-05      0.14459941E+00     -0.16624011E-13      0.56109519E-06     -0.64506853E-19
    0.998028435406         0.67160994E-05      0.14272985E+00     -0.13508068E-13      0.56105160E-06     -0.53098378E-19
    1.004305343805         0.68448687E-05      0.15737285E+00     -0.19906228E-13      0.62653156E-06     -0.79250520E-19
    1.010582252204         0.69743470E-05      0.15763964E+00     -0.16572728E-13      0.63549351E-06     -0.66809724E-19
    1.016859160602         0.71044882E-05      0.14408015E+00     -0.12569509E-13      0.58801707E-06     -0.51298433E-19
