 
 # Omega; pulse ft; proj flux t=    500.250000000000     
    0.000000000000         0.19000442E-09      0.00000000E+00      0.00000000E+00     -0.52133853E-10     -0.20625851E-18     -0.32723942E-12     -0.12946657E-20
    0.006276908399         0.22160172E-09     -0.23916474E-01     -0.94248431E-10     -0.52331978E-10     -0.20622634E-18     -0.65572245E-12     -0.25891296E-20
    0.012553816798         0.31649624E-09     -0.28900609E-01     -0.13197994E-09     -0.45158804E-10     -0.20622598E-18     -0.93918013E-12     -0.38835911E-20
    0.018830725196         0.47499603E-09     -0.28047187E-01     -0.13180684E-09     -0.43848519E-10     -0.20606468E-18     -0.12144133E-11     -0.51770403E-20
    0.025107633595         0.69761494E-09     -0.25629254E-01     -0.11965510E-09     -0.44135559E-10     -0.20605534E-18     -0.14914481E-11     -0.64704307E-20
    0.031384541994         0.98507334E-09     -0.22856209E-01     -0.10600204E-09     -0.44463091E-10     -0.20620998E-18     -0.17705389E-11     -0.77647919E-20
    0.037661450393         0.13382991E-08     -0.20495520E-01     -0.93654610E-10     -0.45139604E-10     -0.20626615E-18     -0.20538760E-11     -0.90595056E-20
    0.043938358791         0.17584287E-08     -0.18484710E-01     -0.83105277E-10     -0.45849675E-10     -0.20613523E-18     -0.23416702E-11     -0.10353398E-19
    0.050215267190         0.22468091E-08     -0.16817919E-01     -0.74348885E-10     -0.46638581E-10     -0.20618047E-18     -0.26344163E-11     -0.11647573E-19
    0.056492175589         0.28049990E-08     -0.15419984E-01     -0.67007908E-10     -0.47453802E-10     -0.20621162E-18     -0.29322795E-11     -0.12941945E-19
    0.062769083988         0.34347712E-08     -0.14313409E-01     -0.60773444E-10     -0.48544249E-10     -0.20611450E-18     -0.32369873E-11     -0.14235707E-19
    0.069045992387         0.41381150E-08     -0.13364646E-01     -0.55500373E-10     -0.49643710E-10     -0.20615917E-18     -0.35485963E-11     -0.15529749E-19
    0.075322900785         0.49172381E-08     -0.12503975E-01     -0.50948797E-10     -0.50592366E-10     -0.20614406E-18     -0.38661600E-11     -0.16823696E-19
    0.081599809184         0.57745703E-08     -0.11751822E-01     -0.47009996E-10     -0.51544033E-10     -0.20618801E-18     -0.41896972E-11     -0.18117920E-19
    0.087876717583         0.67127654E-08     -0.11130562E-01     -0.43542915E-10     -0.52697186E-10     -0.20615213E-18     -0.45204726E-11     -0.19411918E-19
    0.094153625982         0.77347054E-08     -0.10574503E-01     -0.40512278E-10     -0.53840537E-10     -0.20627000E-18     -0.48584247E-11     -0.20706656E-19
    0.100430534380         0.88435030E-08     -0.10104213E-01     -0.37773005E-10     -0.55144693E-10     -0.20614973E-18     -0.52045629E-11     -0.22000639E-19
    0.106707442779         0.10042506E-07     -0.96731005E-02     -0.35328598E-10     -0.56422947E-10     -0.20607081E-18     -0.55587245E-11     -0.23294126E-19
    0.112984351178         0.11335300E-07     -0.92985536E-02     -0.33132687E-10     -0.57819298E-10     -0.20602222E-18     -0.59216510E-11     -0.24587309E-19
    0.119261259577         0.12725715E-07     -0.89490864E-02     -0.31176708E-10     -0.59183979E-10     -0.20618436E-18     -0.62931434E-11     -0.25881509E-19
    0.125538167976         0.14217824E-07     -0.86582950E-02     -0.29371282E-10     -0.60776038E-10     -0.20616878E-18     -0.66746290E-11     -0.27175612E-19
    0.131815076374         0.15815953E-07     -0.83805939E-02     -0.27743181E-10     -0.62322913E-10     -0.20631424E-18     -0.70658242E-11     -0.28470627E-19
    0.138091984773         0.17524683E-07     -0.81332106E-02     -0.26223609E-10     -0.63971480E-10     -0.20626087E-18     -0.74673673E-11     -0.29765308E-19
    0.144368893172         0.19348855E-07     -0.78947897E-02     -0.24830004E-10     -0.65579012E-10     -0.20625339E-18     -0.78790008E-11     -0.31059941E-19
    0.150645801571         0.21293571E-07     -0.76936957E-02     -0.23537085E-10     -0.67401436E-10     -0.20619912E-18     -0.83020734E-11     -0.32354234E-19
    0.156922709970         0.23364205E-07     -0.74957969E-02     -0.22352501E-10     -0.69171262E-10     -0.20626902E-18     -0.87362551E-11     -0.33648966E-19
    0.163199618368         0.25566403E-07     -0.73306472E-02     -0.21246117E-10     -0.71176313E-10     -0.20628741E-18     -0.91830223E-11     -0.34943813E-19
    0.169476526767         0.27906088E-07     -0.71667378E-02     -0.20194917E-10     -0.73139771E-10     -0.20609818E-18     -0.96421140E-11     -0.36237473E-19
    0.175753435166         0.30389467E-07     -0.70245251E-02     -0.19252059E-10     -0.75279878E-10     -0.20631895E-18     -0.10114639E-10     -0.37532518E-19
    0.182030343565         0.33023034E-07     -0.68830420E-02     -0.18351141E-10     -0.77392037E-10     -0.20633787E-18     -0.10600422E-10     -0.38827682E-19
    0.188307251963         0.35813574E-07     -0.67630739E-02     -0.17509452E-10     -0.79720026E-10     -0.20639342E-18     -0.11100817E-10     -0.40123194E-19
    0.194584160362         0.38768170E-07     -0.66435166E-02     -0.16713916E-10     -0.82036763E-10     -0.20639003E-18     -0.11615754E-10     -0.41418686E-19
    0.200861068761         0.41894206E-07     -0.65412119E-02     -0.15959645E-10     -0.84558854E-10     -0.20631181E-18     -0.12146522E-10     -0.42713686E-19
    0.207137977160         0.45199371E-07     -0.64399353E-02     -0.15269401E-10     -0.87095726E-10     -0.20650822E-18     -0.12693214E-10     -0.44009919E-19
    0.213414885559         0.48691666E-07     -0.63454680E-02     -0.14575179E-10     -0.89729709E-10     -0.20610403E-18     -0.13256439E-10     -0.45303615E-19
    0.219691793957         0.52379403E-07     -0.62540543E-02     -0.13949853E-10     -0.92416823E-10     -0.20613845E-18     -0.13836531E-10     -0.46597528E-19
    0.225968702356         0.56271216E-07     -0.61700146E-02     -0.13358313E-10     -0.95228485E-10     -0.20617324E-18     -0.14434272E-10     -0.47891658E-19
    0.232245610755         0.60376060E-07     -0.60905662E-02     -0.12797474E-10     -0.98133571E-10     -0.20619787E-18     -0.15050247E-10     -0.49185943E-19
    0.238522519154         0.64703218E-07     -0.60199834E-02     -0.12249372E-10     -0.10121257E-09     -0.20594583E-18     -0.15685549E-10     -0.50478646E-19
    0.244799427552         0.69262300E-07     -0.59562119E-02     -0.11745104E-10     -0.10444781E-09     -0.20596150E-18     -0.16341159E-10     -0.51771448E-19
    0.251076335951         0.74063251E-07     -0.58995556E-02     -0.11282089E-10     -0.10785964E-09     -0.20626674E-18     -0.17018184E-10     -0.53066165E-19
    0.257353244350         0.79116352E-07     -0.58466826E-02     -0.10807142E-10     -0.11140093E-09     -0.20591603E-18     -0.17717437E-10     -0.54358681E-19
    0.263630152749         0.84432224E-07     -0.57993688E-02     -0.10380871E-10     -0.11511623E-09     -0.20605806E-18     -0.18440011E-10     -0.55652089E-19
    0.269907061148         0.90021830E-07     -0.57617483E-02     -0.99629652E-11     -0.11910515E-09     -0.20595146E-18     -0.19187623E-10     -0.56944827E-19
    0.276183969546         0.95896474E-07     -0.57287563E-02     -0.95789534E-11     -0.12328414E-09     -0.20614125E-18     -0.19961466E-10     -0.58238757E-19
    0.282460877945         0.10206781E-06     -0.57037490E-02     -0.91902433E-11     -0.12774196E-09     -0.20582597E-18     -0.20763291E-10     -0.59530708E-19
    0.288737786344         0.10854784E-06     -0.56776773E-02     -0.88372920E-11     -0.13229119E-09     -0.20591094E-18     -0.21593671E-10     -0.60823192E-19
    0.295014694743         0.11534890E-06     -0.56609662E-02     -0.85098625E-11     -0.13718387E-09     -0.20622201E-18     -0.22454761E-10     -0.62117629E-19
    0.301291603141         0.12248370E-06     -0.56500209E-02     -0.81598908E-11     -0.14235869E-09     -0.20559772E-18     -0.23348334E-10     -0.63408147E-19
    0.307568511540         0.12996528E-06     -0.56478292E-02     -0.78870590E-11     -0.14791414E-09     -0.20655858E-18     -0.24276777E-10     -0.64704696E-19
    0.313845419939         0.13780704E-06     -0.56364515E-02     -0.75885189E-11     -0.15339248E-09     -0.20651676E-18     -0.25239608E-10     -0.66000983E-19
    0.320122328338         0.14602273E-06     -0.56373866E-02     -0.73004462E-11     -0.15937675E-09     -0.20639376E-18     -0.26240001E-10     -0.67296497E-19
    0.326399236737         0.15462643E-06     -0.56417402E-02     -0.70401002E-11     -0.16564958E-09     -0.20670744E-18     -0.27279768E-10     -0.68593981E-19
    0.332676145135         0.16363259E-06     -0.56549910E-02     -0.67586748E-11     -0.17239423E-09     -0.20604039E-18     -0.28361871E-10     -0.69887278E-19
    0.338953053534         0.17305599E-06     -0.56699173E-02     -0.65291915E-11     -0.17941820E-09     -0.20660897E-18     -0.29488063E-10     -0.71184143E-19
    0.345229961933         0.18291177E-06     -0.56969320E-02     -0.62714907E-11     -0.18707548E-09     -0.20594280E-18     -0.30662318E-10     -0.72476827E-19
    0.351506870332         0.19321538E-06     -0.57237060E-02     -0.60465293E-11     -0.19499697E-09     -0.20599501E-18     -0.31886297E-10     -0.73769839E-19
    0.357783778731         0.20398262E-06     -0.57626287E-02     -0.58321010E-11     -0.20362722E-09     -0.20608209E-18     -0.33164446E-10     -0.75063398E-19
    0.364060687129         0.21522964E-06     -0.58101492E-02     -0.56270772E-11     -0.21289147E-09     -0.20618347E-18     -0.34500746E-10     -0.76357592E-19
    0.370337595528         0.22697289E-06     -0.58686653E-02     -0.54301083E-11     -0.22292471E-09     -0.20626586E-18     -0.35900024E-10     -0.77652304E-19
    0.376614503927         0.23922915E-06     -0.59156418E-02     -0.52262792E-11     -0.23289577E-09     -0.20575592E-18     -0.37361890E-10     -0.78943815E-19
    0.382891412326         0.25201552E-06     -0.59771422E-02     -0.50503429E-11     -0.24383044E-09     -0.20602276E-18     -0.38892391E-10     -0.80237001E-19
    0.389168320724         0.26534940E-06     -0.60445345E-02     -0.48734275E-11     -0.25543839E-09     -0.20594812E-18     -0.40495754E-10     -0.81529719E-19
    0.395445229123         0.27924851E-06     -0.61265130E-02     -0.47095005E-11     -0.26813935E-09     -0.20612091E-18     -0.42178841E-10     -0.82823521E-19
    0.401722137522         0.29373083E-06     -0.62131670E-02     -0.45479962E-11     -0.28156552E-09     -0.20610406E-18     -0.43946202E-10     -0.84117217E-19
    0.407999045921         0.30881467E-06     -0.63151474E-02     -0.43930805E-11     -0.29625449E-09     -0.20608701E-18     -0.45805764E-10     -0.85410806E-19
    0.414275954320         0.32451858E-06     -0.64196001E-02     -0.42562417E-11     -0.31167394E-09     -0.20664209E-18     -0.47762113E-10     -0.86707880E-19
    0.420552862718         0.34086139E-06     -0.65406237E-02     -0.40957806E-11     -0.32856330E-09     -0.20574845E-18     -0.49824474E-10     -0.87999344E-19
    0.426829771117         0.35786219E-06     -0.66649622E-02     -0.39632725E-11     -0.34633906E-09     -0.20594807E-18     -0.51998413E-10     -0.89292061E-19
    0.433106679516         0.37554031E-06     -0.68055238E-02     -0.38335860E-11     -0.36573449E-09     -0.20602009E-18     -0.54294095E-10     -0.90585231E-19
    0.439383587915         0.39391532E-06     -0.69443308E-02     -0.37122588E-11     -0.38586209E-09     -0.20627185E-18     -0.56716116E-10     -0.91879980E-19
    0.445660496313         0.41300701E-06     -0.70909865E-02     -0.35890929E-11     -0.40728894E-09     -0.20614873E-18     -0.59272631E-10     -0.93173957E-19
    0.451937404712         0.43283537E-06     -0.71816722E-02     -0.34720026E-11     -0.42629742E-09     -0.20609486E-18     -0.61948461E-10     -0.94467595E-19
    0.458214313111         0.45342059E-06     -0.70324450E-02     -0.33679425E-11     -0.43130214E-09     -0.20655700E-18     -0.64655705E-10     -0.95764135E-19
    0.464491221510         0.47478305E-06     -0.75439535E-02     -0.32494360E-11     -0.47792458E-09     -0.20585829E-18     -0.67655594E-10     -0.97056288E-19
    0.470768129909         0.49694328E-06     -0.87640078E-02     -0.31477674E-11     -0.57338351E-09     -0.20594207E-18     -0.71254669E-10     -0.98348968E-19
    0.477045038307         0.51992196E-06     -0.92169206E-02     -0.30490182E-11     -0.62259740E-09     -0.20595933E-18     -0.75162656E-10     -0.99641756E-19
    0.483321946706         0.54373993E-06     -0.92642854E-02     -0.29579001E-11     -0.64596547E-09     -0.20624379E-18     -0.79217322E-10     -0.10093633E-18
    0.489598855105         0.56841810E-06     -0.95870007E-02     -0.28646068E-11     -0.68984726E-09     -0.20612715E-18     -0.83547430E-10     -0.10223017E-18
    0.495875763504         0.59397753E-06     -0.99780095E-02     -0.27746882E-11     -0.74077057E-09     -0.20599372E-18     -0.88197180E-10     -0.10352317E-18
    0.502152671902         0.62043932E-06     -0.10452585E-01     -0.26943968E-11     -0.80044209E-09     -0.20633256E-18     -0.93221481E-10     -0.10481830E-18
    0.508429580301         0.64782466E-06     -0.10950440E-01     -0.26068483E-11     -0.86477059E-09     -0.20586622E-18     -0.98649567E-10     -0.10611051E-18
    0.514706488700         0.67615476E-06     -0.11795741E-01     -0.25304319E-11     -0.96040489E-09     -0.20602683E-18     -0.10467794E-09     -0.10740372E-18
    0.520983397099         0.70545086E-06     -0.12741343E-01     -0.24553148E-11     -0.10693029E-08     -0.20605955E-18     -0.11138986E-09     -0.10869714E-18
    0.527260305498         0.73573422E-06     -0.13567325E-01     -0.23870788E-11     -0.11733640E-08     -0.20644545E-18     -0.11875496E-09     -0.10999298E-18
    0.533537213896         0.76702604E-06     -0.14290544E-01     -0.23180539E-11     -0.12733179E-08     -0.20654353E-18     -0.12674746E-09     -0.11128943E-18
    0.539814122295         0.79934752E-06     -0.15426234E-01     -0.22490886E-11     -0.14157742E-08     -0.20641471E-18     -0.13563414E-09     -0.11258508E-18
    0.546091030694         0.83271978E-06     -0.16624298E-01     -0.21855546E-11     -0.15711578E-08     -0.20655617E-18     -0.14549615E-09     -0.11388161E-18
    0.552367939093         0.86716384E-06     -0.18367967E-01     -0.21188790E-11     -0.17872136E-08     -0.20616813E-18     -0.15671433E-09     -0.11517571E-18
    0.558644847491         0.90270064E-06     -0.20116221E-01     -0.20581506E-11     -0.20146380E-08     -0.20612363E-18     -0.16936003E-09     -0.11646953E-18
    0.564921755890         0.93935095E-06     -0.22713767E-01     -0.19993543E-11     -0.23408383E-08     -0.20604971E-18     -0.18405326E-09     -0.11776288E-18
    0.571198664289         0.97713540E-06     -0.25170166E-01     -0.19476372E-11     -0.26686789E-08     -0.20649916E-18     -0.20080431E-09     -0.11905906E-18
    0.577475572688         0.10160745E-05     -0.29421882E-01     -0.18917018E-11     -0.32085221E-08     -0.20629431E-18     -0.22094391E-09     -0.12035395E-18
    0.583752481087         0.10561883E-05     -0.33141896E-01     -0.18435116E-11     -0.37164873E-08     -0.20672889E-18     -0.24427196E-09     -0.12165157E-18
    0.590029389485         0.10974971E-05     -0.40727224E-01     -0.17910613E-11     -0.46952337E-08     -0.20648231E-18     -0.27374351E-09     -0.12294764E-18
    0.596306297884         0.11400204E-05     -0.46836570E-01     -0.17406948E-11     -0.55497188E-08     -0.20625693E-18     -0.30857859E-09     -0.12424230E-18
    0.602583206283         0.11837778E-05     -0.62950206E-01     -0.16960819E-11     -0.76646616E-08     -0.20651075E-18     -0.35668897E-09     -0.12553854E-18
    0.608860114682         0.12287883E-05     -0.73616159E-01     -0.16469458E-11     -0.92082135E-08     -0.20600679E-18     -0.41448808E-09     -0.12683163E-18
    0.615137023081         0.12750709E-05     -0.12229492E+00     -0.16013468E-11     -0.15711352E-07     -0.20572664E-18     -0.51310680E-09     -0.12812296E-18
    0.621413931479         0.13226439E-05     -0.13099276E+00     -0.15582085E-11     -0.17280326E-07     -0.20555602E-18     -0.62157382E-09     -0.12941321E-18
    0.627690839878         0.13715254E-05     -0.74338836E+00     -0.15031925E-11     -0.10067381E-06     -0.20357074E-18     -0.12534941E-08     -0.13069101E-18
    0.633967748277         0.14217330E-05     -0.14289475E+01     -0.13895027E-11     -0.19861399E-06     -0.19313143E-18     -0.25001759E-08     -0.13190328E-18
    0.640244656676         0.14732840E-05     -0.46147221E+00     -0.14249334E-11     -0.65815583E-07     -0.20322529E-18     -0.29132943E-08     -0.13317890E-18
    0.646521565074         0.15261949E-05      0.47374820E+00     -0.14185613E-11      0.69313406E-07     -0.20754762E-18     -0.24782204E-08     -0.13448166E-18
    0.652798473473         0.15804821E-05      0.35093224E+00     -0.13923719E-11      0.52659458E-07     -0.20893363E-18     -0.21476818E-08     -0.13579312E-18
    0.659075381872         0.16361611E-05      0.25952070E+00     -0.13474076E-11      0.39930582E-07     -0.20731592E-18     -0.18970412E-08     -0.13709442E-18
    0.665352290271         0.16932470E-05      0.29314294E+00     -0.13302329E-11      0.46237121E-07     -0.20981621E-18     -0.16068150E-08     -0.13841142E-18
    0.671629198670         0.17517545E-05      0.33144411E+00     -0.12749228E-11      0.53579253E-07     -0.20609631E-18     -0.12705029E-08     -0.13970507E-18
    0.677906107068         0.18116973E-05      0.48544499E+00     -0.12578807E-11      0.80407914E-07     -0.20835226E-18     -0.76578983E-09     -0.14101287E-18
    0.684183015467         0.18730887E-05      0.17950228E+01     -0.12357392E-11      0.30457812E-06     -0.20967930E-18      0.11460191E-08     -0.14232901E-18
    0.690459923866         0.19359414E-05      0.54424112E+01     -0.11430735E-11      0.94577484E-06     -0.19864177E-18      0.70825612E-08     -0.14357587E-18
    0.696736832265         0.20002671E-05      0.92118475E+01     -0.14141209E-11      0.16391120E-05     -0.25162190E-18      0.17371117E-07     -0.14515528E-18
    0.703013740663         0.20660771E-05      0.97711463E+01     -0.11967545E-11      0.17797987E-05     -0.21798693E-18      0.28542751E-07     -0.14652356E-18
    0.709290649062         0.21333816E-05      0.10622871E+02     -0.15627453E-11      0.19802905E-05     -0.29132329E-18      0.40972853E-07     -0.14835217E-18
    0.715567557461         0.22021904E-05      0.16188783E+02     -0.14347280E-11      0.30878850E-05     -0.27366325E-18      0.60355225E-07     -0.15006993E-18
    0.721844465860         0.22725123E-05      0.22370769E+02     -0.23573506E-11      0.43650195E-05     -0.45996995E-18      0.87754052E-07     -0.15295712E-18
    0.728121374259         0.23443551E-05      0.23313911E+02     -0.19091072E-11      0.46524040E-05     -0.38097159E-18      0.11695677E-06     -0.15534844E-18
    0.734398282657         0.24177260E-05      0.21397858E+02     -0.25952178E-11      0.43660469E-05     -0.52953164E-18      0.14436204E-06     -0.15867226E-18
    0.740675191056         0.24926312E-05      0.20566870E+02     -0.20785648E-11      0.42898401E-05     -0.43354729E-18      0.17128898E-06     -0.16139360E-18
    0.746952099455         0.25690760E-05      0.20699007E+02     -0.16315984E-11      0.44124153E-05     -0.34780846E-18      0.19898530E-06     -0.16357676E-18
    0.753229007854         0.26470648E-05      0.22163473E+02     -0.24583826E-11      0.48274526E-05     -0.53546326E-18      0.22928678E-06     -0.16693781E-18
    0.759505916252         0.27266009E-05      0.22312016E+02     -0.71009256E-12      0.49644588E-05     -0.15799671E-18      0.26044823E-06     -0.16792955E-18
    0.765782824651         0.28076868E-05      0.19036004E+02     -0.14142982E-11      0.43257507E-05     -0.32138580E-18      0.28760057E-06     -0.16994686E-18
