 
 # Omega; pulse ft; projected flux at t=    500.250000000000     
    0.000000000000         0.61823026E-09      0.00000000E+00      0.00000000E+00      0.19585167E-08     -0.21175824E-21
    0.006276908399         0.61747610E-09      0.34354639E-01     -0.21912899E-14      0.19741200E-08     -0.12591805E-21
    0.012553816798         0.61521579E-09      0.69538318E-01     -0.16785812E-13      0.19906260E-08     -0.48051600E-21
    0.018830725196         0.61145675E-09      0.10580122E+00     -0.21293691E-13      0.20067958E-08     -0.40389032E-21
    0.025107633595         0.60621417E-09      0.14348799E+00     -0.85346857E-14      0.20237164E-08     -0.12037093E-21
    0.031384541994         0.59951527E-09      0.18286924E+00     -0.16871839E-13      0.20405109E-08     -0.18826114E-21
    0.037661450393         0.59140524E-09      0.22434107E+00     -0.46540069E-14      0.20578358E-08     -0.42690274E-22
    0.043938358791         0.58195487E-09      0.26823902E+00     -0.51296099E-13      0.20753016E-08     -0.39686575E-21
    0.050215267190         0.57126980E-09      0.31496022E+00     -0.31491125E-13      0.20930277E-08     -0.20927023E-21
    0.056492175589         0.55950140E-09      0.36492158E+00     -0.87894391E-13      0.21111847E-08     -0.50849636E-21
    0.062769083988         0.54685933E-09      0.41841506E+00     -0.75882703E-13      0.21293691E-08     -0.38617702E-21
    0.069045992387         0.53362554E-09      0.47586237E+00      0.91012065E-14      0.21482919E-08      0.41087612E-22
    0.075322900785         0.52016993E-09      0.53717529E+00     -0.17615424E-13      0.21669457E-08     -0.71059984E-22
    0.081599809184         0.50696746E-09      0.60252201E+00     -0.21450059E-13      0.21866419E-08     -0.77845450E-22
    0.087876717583         0.49461670E-09      0.67088978E+00     -0.13593273E-12      0.22057685E-08     -0.44692310E-21
    0.094153625982         0.48385983E-09      0.74157154E+00     -0.22379582E-12      0.22261242E-08     -0.67181283E-21
    0.100430534380         0.47560399E-09      0.81186242E+00     -0.25478760E-12      0.22458252E-08     -0.70480958E-21
    0.106707442779         0.47094388E-09      0.87934308E+00     -0.24713041E-12      0.22669743E-08     -0.63711002E-21
    0.112984351178         0.47118573E-09      0.93893505E+00     -0.22627231E-12      0.22873003E-08     -0.55121248E-21
    0.119261259577         0.47787234E-09      0.98657684E+00     -0.23789753E-12      0.23091770E-08     -0.55682180E-21
    0.125538167976         0.49280933E-09      0.10161881E+01     -0.20439918E-12      0.23301883E-08     -0.46870121E-21
    0.131815076374         0.51809239E-09      0.10247787E+01     -0.12235004E-12      0.23528054E-08     -0.28090537E-21
    0.138091984773         0.55613556E-09      0.10094121E+01     -0.15930612E-12      0.23746220E-08     -0.37476452E-21
    0.144368893172         0.60970041E-09      0.97206805E+00     -0.41595983E-12      0.23980229E-08     -0.10261434E-20
    0.150645801571         0.68192607E-09      0.91545726E+00     -0.11065330E-12      0.24206508E-08     -0.29258929E-21
    0.156922709970         0.77635999E-09      0.84597511E+00     -0.81717545E-13      0.24448304E-08     -0.23616006E-21
    0.163199618368         0.89698941E-09      0.76881490E+00     -0.31859169E-13      0.24683331E-08     -0.10228605E-21
    0.169476526767         0.10482735E-08      0.69008042E+00      0.33117589E-13      0.24933230E-08      0.11965685E-21
    0.175753435166         0.12351757E-08      0.61329857E+00     -0.13239401E-12      0.25177387E-08     -0.54350936E-21
    0.182030343565         0.14631970E-08      0.54171705E+00     -0.56951879E-13      0.25435795E-08     -0.26741198E-21
    0.188307251963         0.17384091E-08      0.47638603E+00     -0.23082562E-12      0.25689624E-08     -0.12447517E-20
    0.194584160362         0.20674879E-08      0.41821792E+00     -0.10797000E-12      0.25956847E-08     -0.67011969E-21
    0.200861068761         0.24577476E-08      0.36685325E+00     -0.66378248E-13      0.26220905E-08     -0.47443978E-21
    0.207137977160         0.29171738E-08      0.32209697E+00     -0.10525117E-12      0.26497385E-08     -0.86585131E-21
    0.213414885559         0.34544578E-08      0.28314987E+00     -0.93028884E-13      0.26772279E-08     -0.87960318E-21
    0.219691793957         0.40790298E-08      0.24948443E+00     -0.21531466E-13      0.27058287E-08     -0.23352343E-21
    0.225968702356         0.48010926E-08      0.22032738E+00      0.19374081E-13      0.27344757E-08      0.24045106E-21
    0.232245610755         0.56316541E-08      0.19514057E+00     -0.18559619E-13      0.27640751E-08     -0.26288834E-21
    0.238522519154         0.65825603E-08      0.17331668E+00     -0.13668301E-13      0.27939564E-08     -0.22034024E-21
    0.244799427552         0.76665268E-08      0.15440124E+00      0.32753803E-14      0.28245733E-08      0.59918896E-22
    0.251076335951         0.88971707E-08      0.13796301E+00      0.61590466E-14      0.28557659E-08      0.12748921E-21
    0.257353244350         0.10289041E-07      0.12364031E+00      0.91160703E-14      0.28874810E-08      0.21289561E-21
    0.263630152749         0.11857647E-07      0.11114056E+00     -0.16942062E-14      0.29200470E-08     -0.44512657E-22
    0.269907061148         0.13619491E-07      0.10018161E+00     -0.63896799E-14      0.29528980E-08     -0.18833869E-21
    0.276183969546         0.15592091E-07      0.90573129E-01     -0.21072912E-13      0.29868889E-08     -0.69493511E-21
    0.282460877945         0.17794010E-07      0.82095472E-01     -0.39056725E-15      0.30209848E-08     -0.14372263E-22
    0.288737786344         0.20244883E-07      0.74626658E-01     -0.14152658E-13      0.30564651E-08     -0.57964681E-21
    0.295014694743         0.22965437E-07      0.67996573E-01     -0.36393278E-14      0.30919459E-08     -0.16548782E-21
    0.301291603141         0.25977515E-07      0.62125074E-01     -0.47834573E-14      0.31288973E-08     -0.24091635E-21
    0.307568511540         0.29304101E-07      0.56882899E-01     -0.36488122E-14      0.31657897E-08     -0.20307284E-21
    0.313845419939         0.32969333E-07      0.52218424E-01     -0.91293781E-14      0.32042908E-08     -0.56020807E-21
    0.320122328338         0.36998524E-07      0.48033184E-01     -0.95307686E-14      0.32428257E-08     -0.64344312E-21
    0.326399236737         0.41418179E-07      0.44289954E-01     -0.83110365E-14      0.32829245E-08     -0.61604276E-21
    0.332676145135         0.46256007E-07      0.40916537E-01     -0.46148554E-14      0.33232204E-08     -0.37481622E-21
    0.338953053534         0.51540931E-07      0.37884055E-01     -0.12409122E-14      0.33649838E-08     -0.11022182E-21
    0.345229961933         0.57303105E-07      0.35140088E-01     -0.99496666E-15      0.34071113E-08     -0.96469939E-22
    0.351506870332         0.63573913E-07      0.32661597E-01     -0.52938108E-14      0.34506137E-08     -0.55927749E-21
    0.357783778731         0.70385980E-07      0.30411124E-01     -0.77515102E-14      0.34947152E-08     -0.89077012E-21
    0.364060687129         0.77773174E-07      0.28368832E-01     -0.39192382E-14      0.35400654E-08     -0.48907054E-21
    0.370337595528         0.85770606E-07      0.26508838E-01     -0.52865660E-14      0.35862880E-08     -0.71520104E-21
    0.376614503927         0.94414629E-07      0.24813428E-01     -0.59310774E-15      0.36336477E-08     -0.86853964E-22
    0.382891412326         0.10374284E-06      0.23264592E-01     -0.26047156E-14      0.36820674E-08     -0.41224614E-21
    0.389168320724         0.11379405E-06      0.21847074E-01     -0.17482828E-14      0.37315490E-08     -0.29861220E-21
    0.395445229123         0.12460831E-06      0.20548514E-01     -0.28440932E-14      0.37822906E-08     -0.52350193E-21
    0.401722137522         0.13622687E-06      0.19355398E-01     -0.59454298E-15      0.38340073E-08     -0.11776984E-21
    0.407999045921         0.14869219E-06      0.18259892E-01     -0.37170573E-14      0.38872370E-08     -0.79130165E-21
    0.414275954320         0.16204789E-06      0.17249701E-01     -0.12399194E-14      0.39413865E-08     -0.28330936E-21
    0.420552862718         0.17633876E-06      0.16319959E-01     -0.12259309E-14      0.39972384E-08     -0.30026656E-21
    0.426829771117         0.19161071E-06      0.15459760E-01     -0.25546973E-14      0.40539803E-08     -0.66991290E-21
    0.433106679516         0.20791078E-06      0.14666382E-01     -0.87537703E-15      0.41126231E-08     -0.24546585E-21
    0.439383587915         0.22528707E-06      0.13930086E-01     -0.20585856E-14      0.41721511E-08     -0.61655975E-21
    0.445660496313         0.24378875E-06      0.13249645E-01     -0.11386921E-14      0.42337729E-08     -0.36385607E-21
    0.451937404712         0.26346597E-06      0.12616406E-01     -0.16839538E-14      0.42963110E-08     -0.57344296E-21
    0.458214313111         0.28436989E-06      0.12029979E-01     -0.36451252E-15      0.43610757E-08     -0.13214210E-21
    0.464491221510         0.30655259E-06      0.11484223E-01      0.48759917E-15      0.44273402E-08      0.18797679E-21
    0.470768129909         0.33006704E-06      0.10977142E-01     -0.15223649E-14      0.44957089E-08     -0.62348739E-21
    0.477045038307         0.35496707E-06      0.10501642E-01     -0.58900437E-15      0.45645682E-08     -0.25601240E-21
    0.483321946706         0.38130728E-06      0.10060258E-01     -0.67713804E-15      0.46361931E-08     -0.31205389E-21
    0.489598855105         0.40914305E-06      0.96470819E-02     -0.91420420E-15      0.47091720E-08     -0.44626394E-21
    0.495875763504         0.43853041E-06      0.92616338E-02     -0.12910095E-14      0.47844084E-08     -0.66691437E-21
    0.502152671902         0.46952606E-06      0.89008523E-02     -0.78714930E-15      0.48614892E-08     -0.42992712E-21
    0.508429580301         0.50218725E-06      0.85603082E-02      0.40859828E-15      0.49389892E-08      0.23574647E-21
    0.514706488700         0.53657174E-06      0.82476122E-02     -0.10700567E-14      0.50223871E-08     -0.65161153E-21
    0.520983397099         0.57273772E-06      0.79791039E-02     -0.52039846E-15      0.51238903E-08     -0.33418097E-21
    0.527260305498         0.61074378E-06      0.77003642E-02     -0.25489342E-15      0.52102559E-08     -0.17246716E-21
    0.533537213896         0.65064880E-06      0.74306302E-02      0.54285800E-16      0.52932373E-08      0.38670694E-22
    0.539814122295         0.69251188E-06      0.71808212E-02     -0.63856766E-15      0.53810980E-08     -0.47852398E-21
    0.546091030694         0.73639228E-06      0.69472319E-02     -0.21737656E-15      0.54722985E-08     -0.17122639E-21
    0.552367939093         0.78234932E-06      0.67378778E-02      0.75485103E-15      0.55745418E-08      0.62452136E-21
    0.558644847491         0.83044233E-06      0.65357835E-02     -0.32340940E-15      0.56752519E-08     -0.28082782E-21
    0.564921755890         0.88073054E-06      0.63489912E-02     -0.80089809E-15      0.57819360E-08     -0.72936651E-21
    0.571198664289         0.93327299E-06      0.61664062E-02     -0.24895742E-15      0.58852843E-08     -0.23760763E-21
    0.577475572688         0.98812849E-06      0.60024164E-02     -0.70985144E-15      0.59995645E-08     -0.70951417E-21
    0.583752481087         0.10453555E-05      0.58437591E-02     -0.46260163E-16      0.61128166E-08     -0.48390066E-22
    0.590029389485         0.11050119E-05      0.56988209E-02      0.27598539E-15      0.62343635E-08      0.30192092E-21
    0.596306297884         0.11671553E-05      0.55602605E-02      0.56612411E-15      0.63572337E-08      0.64726883E-21
    0.602583206283         0.12318424E-05      0.54338295E-02     -0.37406079E-16      0.64887033E-08     -0.44667753E-22
    0.608860114682         0.12991293E-05      0.53146302E-02      0.36534992E-15      0.66240211E-08      0.45536293E-21
    0.615137023081         0.13690713E-05      0.52095376E-02     -0.40529548E-15      0.67727834E-08     -0.52691405E-21
    0.621413931479         0.14417228E-05      0.51117335E-02     -0.25543548E-15      0.69275999E-08     -0.34617509E-21
    0.627690839878         0.15171371E-05      0.50813634E-02     -0.66087088E-15      0.71741936E-08     -0.93305973E-21
    0.633967748277         0.15953663E-05      0.50573889E-02     -0.14968385E-15      0.74341857E-08     -0.22003004E-21
    0.640244656676         0.16764615E-05      0.48665471E-02      0.20577547E-15      0.74435883E-08      0.31474222E-21
    0.646521565074         0.17604722E-05      0.47142002E-02     -0.30942639E-15      0.74983893E-08     -0.49217246E-21
    0.652798473473         0.18474468E-05      0.46266072E-02     -0.62046234E-16      0.76483761E-08     -0.10257040E-21
    0.659075381872         0.19374318E-05      0.45657851E-02     -0.68597012E-15      0.78400821E-08     -0.11779052E-20
    0.665352290271         0.20304724E-05      0.44935091E-02     -0.80299476E-15      0.80102277E-08     -0.14314361E-20
    0.671629198670         0.21266118E-05      0.44563615E-02     -0.40675283E-15      0.82423847E-08     -0.75232077E-21
    0.677906107068         0.22258916E-05      0.43760964E-02     -0.58847175E-15      0.83933465E-08     -0.11286879E-20
    0.684183015467         0.23283513E-05      0.43787602E-02     -0.64497374E-17      0.87044469E-08     -0.12821299E-22
    0.690459923866         0.24340282E-05      0.39730265E-02     -0.35489997E-15      0.81813016E-08     -0.73081407E-21
    0.696736832265         0.25429579E-05      0.36187080E-02     -0.17051988E-15      0.77150322E-08     -0.36354588E-21
    0.703013740663         0.26551734E-05      0.40532827E-02     -0.18015689E-15      0.89423109E-08     -0.39746028E-21
    0.709290649062         0.27707053E-05      0.44632942E-02     -0.15986707E-15      0.10184400E-07     -0.36478665E-21
    0.715567557461         0.28895822E-05      0.48519334E-02     -0.43834106E-16      0.11444927E-07     -0.10339758E-21
    0.721844465860         0.30118296E-05      0.48084956E-02     -0.46598327E-15      0.11719519E-07     -0.11357190E-20
    0.728121374259         0.31374707E-05      0.47882134E-02     -0.92017129E-17      0.12052113E-07     -0.23161057E-22
    0.734398282657         0.32665259E-05      0.46871344E-02     -0.49824899E-15      0.12177991E-07     -0.12945377E-20
    0.740675191056         0.33990128E-05      0.48205548E-02     -0.30302121E-15      0.12922181E-07     -0.81229136E-21
    0.746952099455         0.35349461E-05      0.49145652E-02     -0.33543016E-15      0.13585917E-07     -0.92726947E-21
    0.753229007854         0.36743374E-05      0.48266335E-02     -0.40176365E-15      0.13753401E-07     -0.11448180E-20
    0.759505916252         0.38171952E-05      0.49664097E-02     -0.17919688E-15      0.14580404E-07     -0.52608687E-21
    0.765782824651         0.39635250E-05      0.47057968E-02     -0.13105273E-15      0.14227316E-07     -0.39621951E-21
    0.772059733050         0.41133290E-05      0.47334812E-02      0.17249984E-15      0.14731162E-07      0.53684022E-21
    0.778336641449         0.42666060E-05      0.47315381E-02     -0.16481326E-15      0.15150648E-07     -0.52774123E-21
    0.784613549848         0.44233513E-05      0.48988243E-02     -0.13614140E-15      0.16132486E-07     -0.44833189E-21
    0.790890458246         0.45835571E-05      0.48408076E-02     -0.45838782E-15      0.16387697E-07     -0.15517908E-20
    0.797167366645         0.47472116E-05      0.49265779E-02     -0.46012776E-15      0.17137530E-07     -0.16005945E-20
    0.803444275044         0.49142998E-05      0.49246273E-02     -0.25605649E-15      0.17595153E-07     -0.91486176E-21
    0.809721183443         0.50848028E-05      0.49552134E-02     -0.68462019E-15      0.18176689E-07     -0.25113203E-20
    0.815998091842         0.52586980E-05      0.50208119E-02     -0.35157456E-15      0.18900654E-07     -0.13234890E-20
    0.822275000240         0.54359592E-05      0.49964310E-02     -0.68652361E-15      0.19294467E-07     -0.26511139E-20
    0.828551908639         0.56165561E-05      0.51161039E-02     -0.44996824E-15      0.20258325E-07     -0.17817470E-20
    0.834828817038         0.58004548E-05      0.50569968E-02     -0.52582549E-15      0.20524430E-07     -0.21341260E-20
    0.841105725437         0.59876175E-05      0.52076169E-02     -0.46667130E-15      0.21654905E-07     -0.19405657E-20
    0.847382633835         0.61780022E-05      0.51507842E-02     -0.62192695E-15      0.21935910E-07     -0.26486323E-20
    0.853659542234         0.63715632E-05      0.53107666E-02     -0.31228785E-15      0.23154335E-07     -0.13615393E-20
    0.859936450633         0.65682506E-05      0.52879496E-02      0.19281310E-16      0.23593071E-07      0.86026784E-22
    0.866213359032         0.67680107E-05      0.54410498E-02     -0.28708173E-15      0.24833199E-07     -0.13102541E-20
    0.872490267431         0.69707857E-05      0.54764385E-02     -0.83657985E-16      0.25558370E-07     -0.39042925E-21
    0.878767175829         0.71765137E-05      0.56165352E-02     -0.21778928E-15      0.26793039E-07     -0.10389388E-20
    0.885044084228         0.73851287E-05      0.57274832E-02     -0.15680697E-15      0.27917132E-07     -0.76431489E-21
    0.891320992627         0.75965609E-05      0.58604507E-02     -0.38414173E-15      0.29176131E-07     -0.19124416E-20
    0.897597901026         0.78107362E-05      0.60607477E-02     -0.27339193E-15      0.30807053E-07     -0.13896634E-20
    0.903874809424         0.80275766E-05      0.61994835E-02     -0.10204467E-16      0.32162181E-07     -0.52939559E-22
    0.910151717823         0.82470002E-05      0.65126526E-02     -0.28755581E-15      0.34471004E-07     -0.15220123E-20
    0.916428626222         0.84689209E-05      0.66648902E-02      0.29421062E-16      0.35977935E-07      0.15881868E-21
    0.922705534621         0.86932488E-05      0.71906916E-02     -0.64630277E-15      0.39573408E-07     -0.35568766E-20
    0.928982443020         0.89198899E-05      0.72672812E-02     -0.46603833E-15      0.40760336E-07     -0.26138907E-20
    0.935259351418         0.91487464E-05      0.65916766E-02     -0.69428245E-15      0.37665109E-07     -0.39671582E-20
    0.941536259817         0.93797169E-05      0.75492194E-02     -0.24221635E-15      0.43930741E-07     -0.14095158E-20
    0.947813168216         0.96126957E-05      0.88191132E-02     -0.35464823E-15      0.52246979E-07     -0.21010388E-20
    0.954090076615         0.98475739E-05      0.93117837E-02     -0.37811673E-15      0.56141828E-07     -0.22797098E-20
    0.960366985013         0.10084238E-04      0.10316885E-01     -0.58259185E-16      0.63280265E-07     -0.35734202E-21
    0.966643893412         0.10322573E-04      0.11318809E-01     -0.67523273E-15      0.70605087E-07     -0.42120037E-20
    0.972920801811         0.10562458E-04      0.12746438E-01     -0.48522368E-15      0.80833271E-07     -0.30771119E-20
    0.979197710210         0.10803769E-04      0.14681708E-01     -0.10688638E-14      0.94622688E-07     -0.68887601E-20
    0.985474618609         0.11046380E-04      0.17122734E-01     -0.76203223E-15      0.11211441E-06     -0.49895535E-20
    0.991751527007         0.11290161E-04      0.22647922E-01     -0.17474461E-14      0.15060501E-06     -0.11620233E-19
    0.998028435406         0.11534978E-04      0.32743583E-01     -0.18917336E-14      0.22106188E-06     -0.12771669E-19
    1.004305343805         0.11780695E-04      0.30939564E-01     -0.28258279E-14      0.21199867E-06     -0.19362644E-19
    1.010582252204         0.12027173E-04      0.40163100E-01     -0.29184805E-14      0.27921125E-06     -0.20289086E-19
    1.016859160602         0.12274269E-04      0.92613018E-01     -0.47301207E-14      0.65301128E-06     -0.33351922E-19
