 
 # eight columns.
 # Omega (column 1); |pulse ft|^2 (2); cross section (Mb) (3); flux (5); flux in
 tegral domega (7)
 
  0.0000      0.761303E-13      0.000000E+00      0.000000E+00      0.000000E+00      0.000000E+00      0.000000E+00      0.000000E+00
  0.0063      0.348741E-10     -0.731753E-01      0.599108E-10     -0.251853E-10      0.206200E-19     -0.158165E-12      0.129494E-21
  0.0126      0.139374E-09     -0.285634E-01      0.783204E-10     -0.196446E-10      0.538650E-19     -0.281534E-12      0.467769E-21
  0.0188      0.313895E-09     -0.269234E-01      0.426231E-10     -0.278018E-10      0.440137E-19     -0.456130E-12      0.744177E-21
  0.0251      0.558968E-09     -0.187704E-01      0.199637E-10     -0.258869E-10      0.275326E-19     -0.618701E-12      0.917083E-21
  0.0314      0.875338E-09     -0.138890E-01     -0.548496E-11     -0.239970E-10     -0.947674E-20     -0.769403E-12      0.857569E-21
  0.0377      0.126396E-08     -0.140264E-01     -0.680243E-11     -0.291615E-10     -0.141426E-19     -0.952539E-12      0.768753E-21
  0.0440      0.172602E-08     -0.141040E-01      0.162155E-11     -0.343219E-10      0.394601E-20     -0.116808E-11      0.793534E-21
  0.0502      0.226291E-08     -0.111859E-01      0.358960E-11     -0.312269E-10      0.100208E-19     -0.136419E-11      0.856465E-21
  0.0565      0.287622E-08     -0.893516E-02      0.216656E-11     -0.281814E-10      0.683330E-20     -0.154117E-11      0.899378E-21
  0.0628      0.356781E-08     -0.799660E-02     -0.915745E-12     -0.281570E-10     -0.322445E-20     -0.171800E-11      0.879129E-21
  0.0691      0.433971E-08     -0.722952E-02     -0.712801E-12     -0.281486E-10     -0.277534E-20     -0.189477E-11      0.861699E-21
  0.0754      0.519422E-08     -0.649342E-02      0.156350E-11     -0.277391E-10      0.667909E-20     -0.206897E-11      0.903644E-21
  0.0816      0.613383E-08     -0.587887E-02      0.144776E-11     -0.273755E-10      0.674163E-20     -0.224089E-11      0.945982E-21
  0.0879      0.716128E-08     -0.543473E-02      0.145146E-11     -0.274360E-10      0.732737E-20     -0.241319E-11      0.991998E-21
  0.0942      0.827955E-08     -0.505673E-02     -0.792084E-12     -0.275464E-10     -0.431486E-20     -0.258618E-11      0.964901E-21
  0.1005      0.949185E-08     -0.484395E-02      0.299127E-12     -0.283603E-10      0.175132E-20     -0.276429E-11      0.975899E-21
  0.1068      0.108016E-07     -0.465937E-02      0.688223E-12     -0.292178E-10      0.431568E-20     -0.294778E-11      0.100300E-20
  0.1130      0.122125E-07     -0.451702E-02      0.139752E-11     -0.302458E-10      0.935774E-20     -0.313772E-11      0.106177E-20
  0.1193      0.137286E-07     -0.439353E-02      0.381743E-12     -0.313304E-10      0.272222E-20     -0.333448E-11      0.107886E-20
  0.1256      0.153539E-07     -0.431856E-02      0.300490E-11     -0.327195E-10      0.227666E-19     -0.353996E-11      0.122184E-20
  0.1319      0.170929E-07     -0.425284E-02      0.240689E-11     -0.341631E-10      0.193346E-19     -0.375450E-11      0.134326E-20
  0.1382      0.189504E-07     -0.421689E-02      0.294772E-11     -0.358484E-10      0.250590E-19     -0.397963E-11      0.150063E-20
  0.1444      0.209314E-07     -0.418517E-02      0.276206E-11     -0.375891E-10      0.248075E-19     -0.421570E-11      0.165643E-20
  0.1507      0.230409E-07     -0.406145E-02      0.258919E-11     -0.384813E-10      0.245320E-19     -0.445736E-11      0.181049E-20
  0.1570      0.252846E-07     -0.395299E-02      0.223657E-11     -0.394568E-10      0.223243E-19     -0.470515E-11      0.195068E-20
  0.1633      0.276682E-07     -0.389903E-02      0.181743E-11     -0.409491E-10      0.190873E-19     -0.496231E-11      0.207055E-20
  0.1696      0.301978E-07     -0.385237E-02      0.245116E-11     -0.425227E-10      0.270560E-19     -0.522936E-11      0.224047E-20
  0.1758      0.328798E-07     -0.381244E-02      0.186793E-11     -0.441829E-10      0.216476E-19     -0.550683E-11      0.237641E-20
  0.1821      0.357207E-07     -0.377819E-02      0.165831E-11     -0.459289E-10      0.201589E-19     -0.579526E-11      0.250301E-20
  0.1884      0.387275E-07     -0.364537E-02      0.146024E-11     -0.464430E-10      0.186038E-19     -0.608693E-11      0.261985E-20
  0.1947      0.419075E-07     -0.352921E-02      0.138114E-11     -0.470855E-10      0.184267E-19     -0.638263E-11      0.273557E-20
  0.2010      0.452681E-07     -0.357340E-02      0.169203E-11     -0.498888E-10      0.236228E-19     -0.669593E-11      0.288392E-20
  0.2072      0.488172E-07     -0.361668E-02      0.144292E-11     -0.528018E-10      0.210659E-19     -0.702753E-11      0.301621E-20
  0.2135      0.525629E-07     -0.359075E-02      0.137907E-11     -0.547855E-10      0.210411E-19     -0.737158E-11      0.314835E-20
  0.2198      0.565137E-07     -0.357156E-02      0.550897E-12     -0.569147E-10      0.877883E-20     -0.772901E-11      0.320348E-20
  0.2261      0.606784E-07     -0.356318E-02      0.641018E-12     -0.592720E-10      0.106631E-19     -0.810124E-11      0.327045E-20
  0.2324      0.650660E-07     -0.356076E-02      0.853974E-12     -0.617981E-10      0.148210E-19     -0.848934E-11      0.336353E-20
  0.2386      0.696860E-07     -0.354856E-02      0.728874E-12     -0.642234E-10      0.131915E-19     -0.889266E-11      0.344637E-20
  0.2449      0.745481E-07     -0.354376E-02      0.662705E-12     -0.668523E-10      0.125018E-19     -0.931250E-11      0.352488E-20
  0.2512      0.796623E-07     -0.355110E-02      0.488918E-12     -0.697969E-10      0.960969E-20     -0.975082E-11      0.358523E-20
  0.2575      0.850391E-07     -0.356544E-02      0.582496E-12     -0.729840E-10      0.119236E-19     -0.102092E-10      0.366011E-20
  0.2638      0.906893E-07     -0.358257E-02      0.634165E-12     -0.763450E-10      0.135142E-19     -0.106886E-10      0.374498E-20
  0.2700      0.966238E-07     -0.360881E-02      0.541561E-12     -0.800312E-10      0.120100E-19     -0.111912E-10      0.382040E-20
  0.2763      0.102854E-06     -0.364769E-02      0.614060E-12     -0.841525E-10      0.141664E-19     -0.117197E-10      0.390937E-20
  0.2826      0.109392E-06     -0.369838E-02      0.534084E-12     -0.887288E-10      0.128133E-19     -0.122769E-10      0.398984E-20
  0.2889      0.116249E-06     -0.377433E-02      0.541050E-12     -0.941354E-10      0.134943E-19     -0.128681E-10      0.407458E-20
  0.2952      0.123439E-06     -0.387358E-02      0.523258E-12     -0.100403E-09      0.135628E-19     -0.134986E-10      0.415976E-20
  0.3014      0.130973E-06     -0.407127E-02      0.496581E-12     -0.109635E-09      0.133725E-19     -0.141871E-10      0.424374E-20
  0.3077      0.138866E-06     -0.435033E-02      0.538917E-12     -0.121675E-09      0.150730E-19     -0.149513E-10      0.433840E-20
  0.3140      0.147129E-06     -0.518433E-02      0.502875E-12     -0.150557E-09      0.146039E-19     -0.158968E-10      0.443011E-20
  0.3203      0.155778E-06     -0.357466E-02      0.495432E-12     -0.107758E-09      0.149348E-19     -0.165735E-10      0.452390E-20
  0.3266      0.164826E-06      0.317779E-03      0.512623E-12      0.994094E-11      0.160362E-19     -0.165111E-10      0.462461E-20
  0.3328      0.174288E-06      0.109521E-03      0.453566E-12      0.355442E-11      0.147201E-19     -0.164888E-10      0.471705E-20
  0.3391      0.184178E-06     -0.211058E-02      0.476438E-12     -0.710439E-10      0.160373E-19     -0.169349E-10      0.481777E-20
  0.3454      0.194512E-06     -0.266508E-02      0.316767E-12     -0.930196E-10      0.110562E-19     -0.175191E-10      0.488720E-20
  0.3517      0.205305E-06     -0.278968E-02      0.330098E-12     -0.100936E-09      0.119436E-19     -0.181530E-10      0.496221E-20
  0.3580      0.216573E-06     -0.286055E-02      0.382207E-12     -0.107265E-09      0.143320E-19     -0.188266E-10      0.505221E-20
  0.3642      0.228332E-06     -0.279053E-02      0.334210E-12     -0.108419E-09      0.129849E-19     -0.195075E-10      0.513376E-20
  0.3705      0.240598E-06     -0.271302E-02      0.365300E-12     -0.109187E-09      0.147018E-19     -0.201932E-10      0.522609E-20
  0.3768      0.253388E-06     -0.290203E-02      0.324931E-12     -0.120953E-09      0.135427E-19     -0.209528E-10      0.531113E-20
  0.3831      0.266719E-06     -0.304731E-02      0.329396E-12     -0.131498E-09      0.142142E-19     -0.217786E-10      0.540040E-20
  0.3894      0.280608E-06     -0.308611E-02      0.345067E-12     -0.137848E-09      0.154131E-19     -0.226443E-10      0.549720E-20
  0.3956      0.295073E-06     -0.306569E-02      0.307833E-12     -0.141709E-09      0.142293E-19     -0.235342E-10      0.558656E-20
  0.4019      0.310131E-06     -0.312737E-02      0.320742E-12     -0.149563E-09      0.153392E-19     -0.244735E-10      0.568289E-20
  0.4082      0.325801E-06     -0.305467E-02      0.282958E-12     -0.151106E-09      0.139972E-19     -0.254224E-10      0.577079E-20
  0.4145      0.342101E-06     -0.309615E-02      0.260770E-12     -0.158384E-09      0.133398E-19     -0.264171E-10      0.585456E-20
  0.4208      0.359050E-06     -0.281800E-02      0.295745E-12     -0.149040E-09      0.156415E-19     -0.273531E-10      0.595279E-20
  0.4270      0.376666E-06     -0.286429E-02      0.262665E-12     -0.156583E-09      0.143592E-19     -0.283364E-10      0.604297E-20
  0.4333      0.394969E-06     -0.201431E-02      0.266613E-12     -0.113794E-09      0.150618E-19     -0.290510E-10      0.613756E-20
  0.4396      0.413977E-06     -0.217038E-02      0.215526E-12     -0.126676E-09      0.125793E-19     -0.298466E-10      0.621656E-20
  0.4459      0.433711E-06      0.124393E-02      0.214437E-12      0.749928E-10      0.129277E-19     -0.293756E-10      0.629774E-20
  0.4522      0.454189E-06     -0.121069E-02      0.227539E-12     -0.753731E-10      0.141657E-19     -0.298490E-10      0.638670E-20
  0.4584      0.475432E-06      0.662198E-01      0.201279E-12      0.425631E-08      0.129373E-19     -0.311912E-11      0.646795E-20
  0.4647      0.497460E-06      0.176924E+00      0.195187E-12      0.117380E-07      0.129496E-19      0.705958E-10      0.654928E-20
  0.4710      0.520292E-06      0.107245E+00      0.184792E-12      0.734250E-08      0.126517E-19      0.116707E-09      0.662873E-20
  0.4773      0.543949E-06     -0.141160E-01      0.166842E-12     -0.997097E-09      0.117850E-19      0.110445E-09      0.670274E-20
  0.4836      0.568452E-06     -0.266212E-01      0.201719E-12     -0.193959E-08      0.146970E-19      0.982645E-10      0.679504E-20
  0.4898      0.593819E-06     -0.215936E-01      0.180298E-12     -0.162243E-08      0.135466E-19      0.880756E-10      0.688011E-20
  0.4961      0.620073E-06     -0.256461E-01      0.167989E-12     -0.198663E-08      0.130130E-19      0.755995E-10      0.696183E-20
  0.5024      0.647234E-06     -0.266918E-01      0.174600E-12     -0.213122E-08      0.139411E-19      0.622153E-10      0.704938E-20
  0.5087      0.675322E-06      0.832400E-01      0.154515E-12      0.684916E-08      0.127138E-19      0.105228E-09      0.712923E-20
  0.5150      0.704357E-06      0.805785E+00      0.147246E-12      0.683090E-07      0.124825E-19      0.534212E-09      0.720762E-20
  0.5212      0.734361E-06      0.156720E+01      0.912086E-13      0.136847E-06      0.796429E-20      0.139362E-08      0.725763E-20
  0.5275      0.765353E-06      0.143753E+01      0.702747E-13      0.129264E-06      0.631919E-20      0.220540E-08      0.729732E-20
  0.5338      0.797355E-06      0.136315E+01      0.147686E-12      0.126199E-06      0.136726E-19      0.299794E-08      0.738318E-20
  0.5401      0.830387E-06      0.184109E+01      0.115075E-12      0.175444E-06      0.109659E-19      0.409973E-08      0.745205E-20
  0.5464      0.864469E-06      0.234907E+01      0.790887E-13      0.230360E-06      0.775576E-20      0.554640E-08      0.750076E-20
  0.5526      0.899621E-06      0.262529E+01      0.157418E-12      0.264870E-06      0.158822E-19      0.720980E-08      0.760050E-20
  0.5589      0.935863E-06      0.282540E+01     -0.510680E-13      0.293212E-06     -0.529970E-20      0.905118E-08      0.756722E-20
  0.5652      0.973215E-06      0.296241E+01      0.724370E-13      0.316148E-06      0.773048E-20      0.110366E-07      0.761576E-20
  0.5715      0.101170E-05      0.317842E+01      0.112883E-13      0.348739E-06      0.123856E-20      0.132267E-07      0.762354E-20
  0.5778      0.105133E-05      0.344825E+01     -0.368686E-13      0.388892E-06     -0.415803E-20      0.156690E-07      0.759743E-20
  0.5840      0.109213E-05      0.390373E+01      0.784424E-13      0.452429E-06      0.909121E-20      0.185102E-07      0.765452E-20
  0.5903      0.113412E-05      0.438275E+01      0.146474E-13      0.521863E-06      0.174410E-20      0.217876E-07      0.766547E-20
  0.5966      0.117731E-05      0.507119E+01     -0.781206E-13      0.620237E-06     -0.955462E-20      0.256827E-07      0.760547E-20
  0.6029      0.122173E-05      0.577677E+01     -0.177235E-12      0.725554E-06     -0.222604E-19      0.302392E-07      0.746567E-20
  0.6092      0.126739E-05      0.713255E+01      0.628574E-13      0.919739E-06      0.810542E-20      0.360152E-07      0.751658E-20
  0.6154      0.131432E-05      0.876953E+01     -0.850459E-13      0.116073E-05     -0.112566E-19      0.433046E-07      0.744589E-20
  0.6217      0.136252E-05      0.159358E+02     -0.470697E-12      0.216452E-05     -0.639334E-19      0.568979E-07      0.704438E-20
  0.6280      0.141201E-05      0.454076E+02     -0.220372E-11      0.632770E-05     -0.307096E-18      0.966361E-07      0.511580E-20
  0.6343      0.146282E-05      0.683755E+02     -0.434218E-11      0.977347E-05     -0.620663E-18      0.158014E-06      0.121801E-20
  0.6406      0.151495E-05      0.460929E+02     -0.353622E-11      0.675634E-05     -0.518342E-18      0.200444E-06     -0.203720E-20
  0.6468      0.156842E-05      0.135323E+02     -0.395821E-12      0.203365E-05     -0.594847E-19      0.213215E-06     -0.241077E-20
  0.6531      0.162326E-05      0.342211E+01     -0.784908E-13      0.527141E-06     -0.120907E-19      0.216526E-06     -0.248670E-20
  0.6594      0.167946E-05      0.364164E+01      0.182010E-13      0.574853E-06      0.287313E-20      0.220136E-06     -0.246865E-20
  0.6657      0.173705E-05      0.449350E+01     -0.443347E-13      0.726727E-06     -0.717018E-20      0.224700E-06     -0.251368E-20
  0.6720      0.179604E-05      0.539453E+01     -0.448496E-12      0.893646E-06     -0.742969E-19      0.230312E-06     -0.298027E-20
  0.6782      0.185644E-05      0.675193E+01     -0.295814E-12      0.114542E-05     -0.501828E-19      0.237505E-06     -0.329542E-20
  0.6845      0.191826E-05      0.162285E+02     -0.100068E-11      0.281864E-05     -0.173803E-18      0.255207E-06     -0.438691E-20
  0.6908      0.198152E-05      0.313578E+02     -0.624073E-12      0.557481E-05     -0.110948E-18      0.290217E-06     -0.508367E-20
  0.6971      0.204622E-05      0.326545E+02     -0.110333E-11      0.594089E-05     -0.200731E-18      0.327526E-06     -0.634427E-20
  0.7034      0.211237E-05      0.235712E+02      0.228501E-12      0.438747E-05      0.425324E-19      0.355079E-06     -0.607717E-20
  0.7096      0.217999E-05      0.239371E+02     -0.113996E-12      0.455752E-05     -0.217043E-19      0.383701E-06     -0.621347E-20
  0.7159      0.224908E-05      0.353852E+02     -0.270718E-11      0.688973E-05     -0.527105E-18      0.426968E-06     -0.952372E-20
  0.7222      0.231965E-05      0.457858E+02     -0.157110E-11      0.911456E-05     -0.312758E-18      0.484208E-06     -0.114879E-19
  0.7285      0.239171E-05      0.462688E+02     -0.223729E-11      0.941496E-05     -0.455252E-18      0.543335E-06     -0.143469E-19
  0.7348      0.246525E-05      0.427157E+02     -0.237920E-12      0.888265E-05     -0.494751E-19      0.599118E-06     -0.146576E-19
  0.7410      0.254029E-05      0.418139E+02     -0.821057E-12      0.888387E-05     -0.174443E-18      0.654909E-06     -0.157531E-19
  0.7473      0.261683E-05      0.428000E+02     -0.388853E-11      0.928865E-05     -0.843907E-18      0.713242E-06     -0.210528E-19
  0.7536      0.269488E-05      0.460732E+02     -0.221403E-11      0.102114E-04     -0.490707E-18      0.777371E-06     -0.241345E-19
  0.7599      0.277442E-05      0.458778E+02     -0.284761E-11      0.103817E-04     -0.644389E-18      0.842568E-06     -0.281813E-19
  0.7662      0.285548E-05      0.397702E+02     -0.759858E-12      0.918663E-05     -0.175522E-18      0.900261E-06     -0.292836E-19
  0.7724      0.293803E-05      0.389492E+02     -0.129126E-11      0.918186E-05     -0.304400E-18      0.957923E-06     -0.311952E-19
  0.7787      0.302210E-05      0.432295E+02     -0.205861E-11      0.103979E-04     -0.495155E-18      0.102322E-05     -0.343048E-19
  0.7850      0.310766E-05      0.446294E+02     -0.219774E-12      0.109503E-04     -0.539238E-19      0.109199E-05     -0.346435E-19
  0.7913      0.319472E-05      0.449992E+02     -0.340806E-11      0.112602E-04     -0.852805E-18      0.116271E-05     -0.399991E-19
  0.7976      0.328328E-05      0.454123E+02     -0.150268E-11      0.115867E-04     -0.383398E-18      0.123547E-05     -0.424069E-19
  0.8038      0.337333E-05      0.455795E+02     -0.215203E-11      0.118549E-04     -0.559729E-18      0.130992E-05     -0.459220E-19
  0.8101      0.346486E-05      0.455645E+02     -0.280320E-11      0.120782E-04     -0.743070E-18      0.138577E-05     -0.505885E-19
  0.8164      0.355786E-05      0.452446E+02     -0.889411E-12      0.122206E-04     -0.240230E-18      0.146252E-05     -0.520972E-19
  0.8227      0.365233E-05      0.447095E+02     -0.150411E-11      0.123021E-04     -0.413865E-18      0.153977E-05     -0.546963E-19
  0.8290      0.374826E-05      0.439330E+02      0.394456E-12      0.123119E-04      0.110544E-18      0.161709E-05     -0.540020E-19
  0.8352      0.384563E-05      0.430328E+02     -0.266348E-11      0.122799E-04     -0.760056E-18      0.169421E-05     -0.587752E-19
  0.8415      0.394444E-05      0.419835E+02     -0.319727E-11      0.121966E-04     -0.928837E-18      0.177081E-05     -0.646084E-19
  0.8478      0.404466E-05      0.408689E+02     -0.137142E-11      0.120843E-04     -0.405507E-18      0.184670E-05     -0.671550E-19
  0.8541      0.414629E-05      0.396512E+02     -0.188626E-11      0.119305E-04     -0.567548E-18      0.192162E-05     -0.707192E-19
  0.8604      0.424931E-05      0.383877E+02     -0.188489E-12      0.117509E-04     -0.576985E-19      0.199542E-05     -0.710816E-19
  0.8666      0.435370E-05      0.370541E+02     -0.280394E-11      0.115371E-04     -0.873026E-18      0.206787E-05     -0.765642E-19
  0.8729      0.445944E-05      0.356950E+02     -0.321030E-11      0.113019E-04     -0.101646E-17      0.213885E-05     -0.829476E-19
  0.8792      0.456652E-05      0.343078E+02     -0.161816E-11      0.110441E-04     -0.520904E-18      0.220821E-05     -0.862189E-19
  0.8855      0.467491E-05      0.329152E+02     -0.200969E-11      0.107704E-04     -0.657601E-18      0.227584E-05     -0.903487E-19
  0.8918      0.478459E-05      0.315295E+02     -0.576479E-12      0.104847E-04     -0.191699E-18      0.234169E-05     -0.915526E-19
  0.8980      0.489554E-05      0.301280E+02     -0.973567E-12      0.101792E-04     -0.328935E-18      0.240561E-05     -0.936183E-19
  0.9043      0.500773E-05      0.287322E+02     -0.297186E-11      0.986114E-05     -0.101997E-17      0.246754E-05     -0.100024E-18
  0.9106      0.512114E-05      0.272067E+02     -0.165843E-11      0.948318E-05     -0.578063E-18      0.252710E-05     -0.103654E-18
  0.9169      0.523574E-05      0.255481E+02     -0.191366E-11      0.904201E-05     -0.677283E-18      0.258388E-05     -0.107907E-18
