 
 # Omega; pulse ft; proj flux t=    500.250000000000     
    0.000000000000         0.23733438E-09      0.00000000E+00      0.00000000E+00      0.21238016E-28      0.59585453E-38      0.10608400E-31      0.29762963E-41
    0.006276908399         0.26847166E-09      0.67985540E-21      0.17882982E-30      0.22647577E-28      0.59572406E-38      0.21920876E-31      0.59519410E-41
    0.012553816798         0.36198451E-09      0.99906669E-21      0.26520432E-30      0.22436815E-28      0.59558991E-38      0.33128076E-31      0.89269155E-41
    0.018830725196         0.51817601E-09      0.10327016E-20      0.27790153E-30      0.22132866E-28      0.59559869E-38      0.44183454E-31      0.11901934E-40
    0.025107633595         0.73755180E-09      0.98400035E-21      0.26035463E-30      0.22513061E-28      0.59566844E-38      0.55428739E-31      0.14877301E-40
    0.031384541994         0.10208207E-08      0.89761548E-21      0.23521922E-30      0.22739272E-28      0.59588029E-38      0.66787016E-31      0.17853726E-40
    0.037661450393         0.13688958E-08      0.81017673E-21      0.21077626E-30      0.22935364E-28      0.59668837E-38      0.78243242E-31      0.20834187E-40
    0.043938358791         0.17828953E-08      0.73192694E-21      0.18850604E-30      0.23131420E-28      0.59574422E-38      0.89797398E-31      0.23809933E-40
    0.050215267190         0.22641447E-08      0.66310749E-21      0.16971904E-30      0.23286535E-28      0.59600721E-38      0.10142903E-30      0.26786992E-40
    0.056492175589         0.28141777E-08      0.60419195E-21      0.15358360E-30      0.23441786E-28      0.59588245E-38      0.11313822E-30      0.29763427E-40
    0.062769083988         0.34347388E-08      0.55425558E-21      0.13976545E-30      0.23621667E-28      0.59566256E-38      0.12493725E-30      0.32738765E-40
    0.069045992387         0.41277855E-08      0.51071192E-21      0.12804774E-30      0.23779744E-28      0.59621529E-38      0.13681525E-30      0.35716863E-40
    0.075322900785         0.48954902E-08      0.47478783E-21      0.11762796E-30      0.24033735E-28      0.59543211E-38      0.14882011E-30      0.38691050E-40
    0.081599809184         0.57402438E-08      0.44345300E-21      0.10887374E-30      0.24296367E-28      0.59650885E-38      0.16095616E-30      0.41670614E-40
    0.087876717583         0.66646579E-08      0.41435739E-21      0.10090452E-30      0.24475505E-28      0.59602874E-38      0.17318168E-30      0.44647781E-40
    0.094153625982         0.76715684E-08      0.38947223E-21      0.93889323E-31      0.24715884E-28      0.59582107E-38      0.18552728E-30      0.47623910E-40
    0.100430534380         0.87640384E-08      0.36583460E-21      0.87578873E-31      0.24864276E-28      0.59523764E-38      0.19794700E-30      0.50597125E-40
    0.106707442779         0.99453622E-08      0.34531757E-21      0.82088082E-31      0.25066696E-28      0.59587963E-38      0.21046783E-30      0.53573547E-40
    0.112984351178         0.11219069E-07      0.32658711E-21      0.77045607E-31      0.25257484E-28      0.59585272E-38      0.22308395E-30      0.56549834E-40
    0.119261259577         0.12588925E-07      0.31018749E-21      0.72440323E-31      0.25501520E-28      0.59555542E-38      0.23582197E-30      0.59524636E-40
    0.125538167976         0.14058942E-07      0.29423752E-21      0.68375867E-31      0.25664183E-28      0.59639259E-38      0.24864125E-30      0.62503620E-40
    0.131815076374         0.15633376E-07      0.28001637E-21      0.64447252E-31      0.25865664E-28      0.59531198E-38      0.26156116E-30      0.65477207E-40
    0.138091984773         0.17316734E-07      0.26678689E-21      0.61054623E-31      0.26056407E-28      0.59630522E-38      0.27457635E-30      0.68455754E-40
    0.144368893172         0.19113780E-07      0.25515488E-21      0.57761358E-31      0.26310517E-28      0.59561126E-38      0.28771846E-30      0.71430835E-40
    0.150645801571         0.21029537E-07      0.24382134E-21      0.54846471E-31      0.26509220E-28      0.59631251E-38      0.30095983E-30      0.74409419E-40
    0.156922709970         0.23069292E-07      0.23363539E-21      0.52031433E-31      0.26750977E-28      0.59575377E-38      0.31432196E-30      0.77385212E-40
    0.163199618368         0.25238602E-07      0.22376663E-21      0.49451958E-31      0.26952188E-28      0.59563771E-38      0.32778459E-30      0.80360426E-40
    0.169476526767         0.27543295E-07      0.21492062E-21      0.47097057E-31      0.27204263E-28      0.59614603E-38      0.34137313E-30      0.83338178E-40
    0.175753435166         0.29989481E-07      0.20631712E-21      0.44801392E-31      0.27419083E-28      0.59540047E-38      0.35506898E-30      0.86312207E-40
    0.182030343565         0.32583550E-07      0.19858532E-21      0.42745285E-31      0.27685622E-28      0.59593016E-38      0.36889796E-30      0.89288881E-40
    0.188307251963         0.35332181E-07      0.19090358E-21      0.40667376E-31      0.27897803E-28      0.59429502E-38      0.38283293E-30      0.92257387E-40
    0.194584160362         0.38242343E-07      0.18393092E-21      0.38919149E-31      0.28154272E-28      0.59573468E-38      0.39689600E-30      0.95233085E-40
    0.200861068761         0.41321305E-07      0.17732000E-21      0.37161978E-31      0.28411131E-28      0.59542850E-38      0.41108737E-30      0.98207253E-40
    0.207137977160         0.44576634E-07      0.17105816E-21      0.35485806E-31      0.28671069E-28      0.59477781E-38      0.42540859E-30      0.10117817E-39
    0.213414885559         0.48016203E-07      0.16514058E-21      0.33950672E-31      0.28938062E-28      0.59492746E-38      0.43986316E-30      0.10414984E-39
    0.219691793957         0.51648196E-07      0.15848832E-21      0.32565350E-31      0.29019580E-28      0.59627912E-38      0.45435846E-30      0.10712825E-39
    0.225968702356         0.55481108E-07      0.15153241E-21      0.31205364E-31      0.28977098E-28      0.59673104E-38      0.46883253E-30      0.11010893E-39
    0.232245610755         0.59523755E-07      0.14834625E-21      0.29868579E-31      0.29612285E-28      0.59622461E-38      0.48362388E-30      0.11308707E-39
    0.238522519154         0.63785271E-07      0.14493099E-21      0.28648284E-31      0.30185948E-28      0.59668094E-38      0.49870178E-30      0.11606750E-39
    0.244799427552         0.68275117E-07      0.14010847E-21      0.27453384E-31      0.30434697E-28      0.59634898E-38      0.51390393E-30      0.11904626E-39
    0.251076335951         0.73003082E-07      0.13545578E-21      0.26273426E-31      0.30675064E-28      0.59498313E-38      0.52922614E-30      0.12201821E-39
    0.257353244350         0.77979284E-07      0.13126453E-21      0.25262381E-31      0.30977724E-28      0.59617865E-38      0.54469953E-30      0.12499612E-39
    0.263630152749         0.83214178E-07      0.12710221E-21      0.24245636E-31      0.31246968E-28      0.59605779E-38      0.56030740E-30      0.12797343E-39
    0.269907061148         0.88718553E-07      0.12315095E-21      0.23287278E-31      0.31527570E-28      0.59617185E-38      0.57605544E-30      0.13095132E-39
    0.276183969546         0.94503538E-07      0.11950387E-21      0.22339844E-31      0.31848142E-28      0.59536358E-38      0.59196360E-30      0.13392516E-39
    0.282460877945         0.10058060E-06      0.11594899E-21      0.21475387E-31      0.32156993E-28      0.59559284E-38      0.60802604E-30      0.13690015E-39
    0.288737786344         0.10696156E-06      0.11280593E-21      0.20631711E-31      0.32546820E-28      0.59526710E-38      0.62428319E-30      0.13987351E-39
    0.295014694743         0.11365856E-06      0.10963128E-21      0.19856610E-31      0.32896184E-28      0.59582146E-38      0.64071485E-30      0.14284964E-39
    0.301291603141         0.12068410E-06      0.10674880E-21      0.19122238E-31      0.33302632E-28      0.59656022E-38      0.65734953E-30      0.14582946E-39
    0.307568511540         0.12805103E-06      0.10387716E-21      0.18390277E-31      0.33683236E-28      0.59632361E-38      0.67417432E-30      0.14880810E-39
    0.313845419939         0.13577253E-06      0.10141782E-21      0.17696019E-31      0.34171411E-28      0.59624430E-38      0.69124296E-30      0.15178635E-39
    0.320122328338         0.14386214E-06      0.98630733E-22      0.17025345E-31      0.34521951E-28      0.59590771E-38      0.70848669E-30      0.15476291E-39
    0.326399236737         0.15233372E-06      0.93838109E-22      0.16397999E-31      0.34109762E-28      0.59606045E-38      0.72552453E-30      0.15774023E-39
    0.332676145135         0.16120149E-06      0.91092728E-22      0.15792192E-31      0.34378241E-28      0.59599466E-38      0.74269648E-30      0.16071723E-39
    0.338953053534         0.17048002E-06      0.89683532E-22      0.15205518E-31      0.35131700E-28      0.59564524E-38      0.76024479E-30      0.16369248E-39
    0.345229961933         0.18018417E-06      0.87405470E-22      0.14665390E-31      0.35530336E-28      0.59614831E-38      0.77799221E-30      0.16667024E-39
    0.351506870332         0.19032920E-06      0.85384970E-22      0.14133030E-31      0.36008544E-28      0.59601806E-38      0.79597849E-30      0.16964736E-39
    0.357783778731         0.20093064E-06      0.83229297E-22      0.13614656E-31      0.36404433E-28      0.59550406E-38      0.81416252E-30      0.17262190E-39
    0.364060687129         0.21200438E-06      0.81445995E-22      0.13139825E-31      0.36939696E-28      0.59595458E-38      0.83261392E-30      0.17559870E-39
    0.370337595528         0.22356662E-06      0.79705091E-22      0.12673084E-31      0.37475528E-28      0.59585971E-38      0.85133297E-30      0.17857502E-39
    0.376614503927         0.23563389E-06      0.77659083E-22      0.12226957E-31      0.37842996E-28      0.59581529E-38      0.87023556E-30      0.18155112E-39
    0.382891412326         0.24822301E-06      0.75671796E-22      0.11809410E-31      0.38207885E-28      0.59627576E-38      0.88932042E-30      0.18452952E-39
    0.389168320724         0.26135112E-06      0.73956322E-22      0.11397021E-31      0.38682518E-28      0.59611601E-38      0.90864235E-30      0.18750713E-39
    0.395445229123         0.27503566E-06      0.72238678E-22      0.11025127E-31      0.39131364E-28      0.59722612E-38      0.92818849E-30      0.19049027E-39
    0.401722137522         0.28929433E-06      0.70651182E-22      0.10636554E-31      0.39626538E-28      0.59657858E-38      0.94798197E-30      0.19347019E-39
    0.407999045921         0.30414516E-06      0.69102658E-22      0.10262874E-31      0.40120751E-28      0.59585873E-38      0.96802230E-30      0.19644650E-39
    0.414275954320         0.31960641E-06      0.67608841E-22      0.99141740E-32      0.40623916E-28      0.59570991E-38      0.98831397E-30      0.19942208E-39
    0.420552862718         0.33569662E-06      0.66118479E-22      0.95820666E-32      0.41105673E-28      0.59571440E-38      0.10088463E-29      0.20239767E-39
    0.426829771117         0.35243458E-06      0.64731159E-22      0.92616309E-32      0.41628401E-28      0.59561252E-38      0.10296397E-29      0.20537276E-39
    0.433106679516         0.36983933E-06      0.63346440E-22      0.89650859E-32      0.42130147E-28      0.59624563E-38      0.10506837E-29      0.20835101E-39
    0.439383587915         0.38793013E-06      0.62084967E-22      0.86617121E-32      0.42692214E-28      0.59561547E-38      0.10720085E-29      0.21132611E-39
    0.445660496313         0.40672647E-06      0.60768566E-22      0.83927123E-32      0.43194636E-28      0.59655868E-38      0.10935842E-29      0.21430593E-39
    0.451937404712         0.42624802E-06      0.59589462E-22      0.81073509E-32      0.43772977E-28      0.59554638E-38      0.11154489E-29      0.21728068E-39
    0.458214313111         0.44651466E-06      0.58219531E-22      0.78514494E-32      0.44186369E-28      0.59589460E-38      0.11375200E-29      0.22025718E-39
    0.464491221510         0.46754647E-06      0.56534005E-22      0.75972452E-32      0.44321001E-28      0.59560173E-38      0.11596583E-29      0.22323221E-39
    0.470768129909         0.48936365E-06      0.55870351E-22      0.73585452E-32      0.45233333E-28      0.59575700E-38      0.11822524E-29      0.22620802E-39
    0.477045038307         0.51198657E-06      0.55353854E-22      0.71240453E-32      0.46270009E-28      0.59549538E-38      0.12053643E-29      0.22918253E-39
    0.483321946706         0.53543573E-06      0.54239645E-22      0.69043809E-32      0.46799392E-28      0.59572813E-38      0.12287406E-29      0.23215819E-39
    0.489598855105         0.55973174E-06      0.53337575E-22      0.66952497E-32      0.47492535E-28      0.59615455E-38      0.12524632E-29      0.23513599E-39
    0.495875763504         0.58489532E-06      0.52437146E-22      0.64830725E-32      0.48172241E-28      0.59557805E-38      0.12765252E-29      0.23811090E-39
    0.502152671902         0.61094726E-06      0.51522467E-22      0.62858376E-32      0.48822177E-28      0.59563971E-38      0.13009119E-29      0.24108612E-39
    0.508429580301         0.63790841E-06      0.50576241E-22      0.61014191E-32      0.49422716E-28      0.59622601E-38      0.13255986E-29      0.24406428E-39
    0.514706488700         0.66579967E-06      0.49687684E-22      0.59098786E-32      0.50059352E-28      0.59540849E-38      0.13506033E-29      0.24703834E-39
    0.520983397099         0.69464194E-06      0.49648460E-22      0.57357553E-32      0.51557926E-28      0.59563508E-38      0.13763565E-29      0.25001354E-39
    0.527260305498         0.72445614E-06      0.49073412E-22      0.55697445E-32      0.52515296E-28      0.59603922E-38      0.14025879E-29      0.25299076E-39
    0.533537213896         0.75526319E-06      0.48205950E-22      0.54125685E-32      0.53147982E-28      0.59674603E-38      0.14291353E-29      0.25597151E-39
    0.539814122295         0.78708392E-06      0.47419400E-22      0.52400065E-32      0.53849961E-28      0.59506055E-38      0.14560334E-29      0.25894384E-39
    0.546091030694         0.81993914E-06      0.46740199E-22      0.50964281E-32      0.54658747E-28      0.59598457E-38      0.14833355E-29      0.26192079E-39
    0.552367939093         0.85384956E-06      0.46306050E-22      0.49505875E-32      0.55749782E-28      0.59602184E-38      0.15111825E-29      0.26489792E-39
    0.558644847491         0.88883579E-06      0.45609672E-22      0.48058981E-32      0.56519098E-28      0.59554260E-38      0.15394139E-29      0.26787266E-39
    0.564921755890         0.92491828E-06      0.45167717E-22      0.46720258E-32      0.57596454E-28      0.59576204E-38      0.15681833E-29      0.27084849E-39
    0.571198664289         0.96211735E-06      0.44575828E-22      0.45362866E-32      0.58478042E-28      0.59510539E-38      0.15973931E-29      0.27382105E-39
    0.577475572688         0.10004531E-05      0.44203848E-22      0.44158857E-32      0.59645235E-28      0.59584528E-38      0.16271859E-29      0.27679730E-39
    0.583752481087         0.10399456E-05      0.43679038E-22      0.42918717E-32      0.60604865E-28      0.59549916E-38      0.16574581E-29      0.27977182E-39
    0.590029389485         0.10806144E-05      0.43408827E-22      0.41779252E-32      0.61919536E-28      0.59595066E-38      0.16883869E-29      0.28274860E-39
    0.596306297884         0.11224790E-05      0.42974261E-22      0.40694123E-32      0.63004241E-28      0.59661347E-38      0.17198576E-29      0.28572868E-39
    0.602583206283         0.11655585E-05      0.42816138E-22      0.39540033E-32      0.64502582E-28      0.59567124E-38      0.17520767E-29      0.28870406E-39
    0.608860114682         0.12098719E-05      0.42523760E-22      0.38544438E-32      0.65812149E-28      0.59653528E-38      0.17849499E-29      0.29168376E-39
    0.615137023081         0.12554376E-05      0.42669058E-22      0.37508218E-32      0.67824855E-28      0.59621410E-38      0.18188284E-29      0.29466185E-39
    0.621413931479         0.13022739E-05      0.42911558E-22      0.36531402E-32      0.70040326E-28      0.59626623E-38      0.18538136E-29      0.29764021E-39
    0.627690839878         0.13503983E-05      0.46568970E-22      0.35505176E-32      0.78030660E-28      0.59492238E-38      0.18927899E-29      0.30061185E-39
    0.633967748277         0.13998285E-05      0.55032047E-22      0.34598347E-32      0.94640248E-28      0.59499805E-38      0.19400628E-29      0.30358386E-39
    0.640244656676         0.14505812E-05      0.53846800E-22      0.33813215E-32      0.95018574E-28      0.59667120E-38      0.19875246E-29      0.30656424E-39
    0.646521565074         0.15026729E-05      0.44537117E-22      0.32872623E-32      0.80622463E-28      0.59507036E-38      0.20277956E-29      0.30953662E-39
    0.652798473473         0.15561195E-05      0.41553841E-22      0.32098350E-32      0.77148508E-28      0.59593524E-38      0.20663313E-29      0.31251332E-39
    0.659075381872         0.16109365E-05      0.41113402E-22      0.31278228E-32      0.78267109E-28      0.59544002E-38      0.21054258E-29      0.31548755E-39
    0.665352290271         0.16671388E-05      0.40772477E-22      0.30531546E-32      0.79568238E-28      0.59582874E-38      0.21451701E-29      0.31846371E-39
    0.671629198670         0.17247407E-05      0.40856593E-22      0.29769520E-32      0.81716344E-28      0.59541340E-38      0.21859875E-29      0.32143781E-39
    0.677906107068         0.17837558E-05      0.40498371E-22      0.29070521E-32      0.82995765E-28      0.59575980E-38      0.22274439E-29      0.32441363E-39
    0.684183015467         0.18441971E-05      0.42239669E-22      0.28398170E-32      0.88676408E-28      0.59618075E-38      0.22717378E-29      0.32739155E-39
    0.690459923866         0.19060772E-05      0.43088473E-22      0.27685790E-32      0.92643648E-28      0.59526654E-38      0.23180134E-29      0.33036491E-39
    0.696736832265         0.19694076E-05      0.41618410E-22      0.27057550E-32      0.91623077E-28      0.59567292E-38      0.23637791E-29      0.33334030E-39
    0.703013740663         0.20341994E-05      0.41811535E-22      0.26437028E-32      0.94227651E-28      0.59579231E-38      0.24108459E-29      0.33631629E-39
    0.709290649062         0.21004628E-05      0.41605894E-22      0.25808724E-32      0.95961751E-28      0.59526430E-38      0.24587789E-29      0.33928964E-39
    0.715567557461         0.21682073E-05      0.41228860E-22      0.25241037E-32      0.97298026E-28      0.59567572E-38      0.25073793E-29      0.34226504E-39
    0.721844465860         0.22374415E-05      0.42014953E-22      0.24682099E-32      0.10142955E-27      0.59585789E-38      0.25580434E-29      0.34524135E-39
    0.728121374259         0.23081733E-05      0.41373138E-22      0.24149795E-32      0.10214936E-27      0.59625306E-38      0.26090670E-29      0.34821964E-39
    0.734398282657         0.23804097E-05      0.41489305E-22      0.23578112E-32      0.10473908E-27      0.59522563E-38      0.26613843E-29      0.35119280E-39
    0.740675191056         0.24541568E-05      0.41062070E-22      0.23087974E-32      0.10596633E-27      0.59581697E-38      0.27143145E-29      0.35416890E-39
    0.746952099455         0.25294198E-05      0.41690381E-22      0.22572658E-32      0.10995540E-27      0.59533773E-38      0.27692373E-29      0.35714262E-39
    0.753229007854         0.26062031E-05      0.41419179E-22      0.22068202E-32      0.11161826E-27      0.59470378E-38      0.28249906E-29      0.36011317E-39
    0.759505916252         0.26845099E-05      0.42192055E-22      0.21639560E-32      0.11614943E-27      0.59570991E-38      0.28830073E-29      0.36308874E-39
    0.765782824651         0.27643427E-05      0.42147137E-22      0.21182414E-32      0.11849687E-27      0.59554456E-38      0.29421966E-29      0.36606349E-39
