 
 # Omega; pulse ft; proj flux t=    500.250000000000     
    0.000000000000         0.23733438E-09      0.00000000E+00      0.00000000E+00      0.10130223E-11      0.19490443E-21      0.50600512E-15      0.97354861E-25
    0.006276908399         0.26847166E-09      0.27718804E-04      0.58459545E-14      0.92337835E-12      0.19474245E-21      0.96723307E-15      0.19462881E-24
    0.012553816798         0.36198451E-09      0.35725967E-04      0.86765309E-14      0.80232575E-12      0.19485558E-21      0.13679952E-14      0.29195927E-24
    0.018830725196         0.51817601E-09      0.36164595E-04      0.90936578E-14      0.77507976E-12      0.19489532E-21      0.17551479E-14      0.38930958E-24
    0.025107633595         0.73755180E-09      0.33983137E-04      0.85208493E-14      0.77750421E-12      0.19494952E-21      0.21435117E-14      0.48668697E-24
    0.031384541994         0.10208207E-08      0.30778362E-04      0.76897080E-14      0.77970753E-12      0.19480319E-21      0.25329760E-14      0.58399126E-24
    0.037661450393         0.13688958E-08      0.27787380E-04      0.68900173E-14      0.78663538E-12      0.19505011E-21      0.29259007E-14      0.68141888E-24
    0.043938358791         0.17828953E-08      0.25020348E-04      0.61691582E-14      0.79072945E-12      0.19496671E-21      0.33208705E-14      0.77880485E-24
    0.050215267190         0.22641447E-08      0.22917103E-04      0.55523667E-14      0.80478644E-12      0.19498405E-21      0.37228617E-14      0.87619948E-24
    0.056492175589         0.28141777E-08      0.21052417E-04      0.50232614E-14      0.81680373E-12      0.19489538E-21      0.41308556E-14      0.97354982E-24
    0.062769083988         0.34347388E-08      0.19412058E-04      0.45728305E-14      0.82731717E-12      0.19488821E-21      0.45441009E-14      0.10708966E-23
    0.069045992387         0.41277855E-08      0.18001303E-04      0.41883948E-14      0.83817582E-12      0.19501984E-21      0.49627701E-14      0.11683091E-23
    0.075322900785         0.48954902E-08      0.16769446E-04      0.38476184E-14      0.84886846E-12      0.19476624E-21      0.53867804E-14      0.12655949E-23
    0.081599809184         0.57402438E-08      0.15690269E-04      0.35588563E-14      0.85965489E-12      0.19498634E-21      0.58161784E-14      0.13629907E-23
    0.087876717583         0.66646579E-08      0.14759977E-04      0.33015861E-14      0.87185099E-12      0.19502002E-21      0.62516684E-14      0.14604033E-23
    0.094153625982         0.76715684E-08      0.13933330E-04      0.30705736E-14      0.88420826E-12      0.19485841E-21      0.66933309E-14      0.15577352E-23
    0.100430534380         0.87640384E-08      0.13187506E-04      0.28666744E-14      0.89630064E-12      0.19483609E-21      0.71410335E-14      0.16550559E-23
    0.106707442779         0.99453622E-08      0.12521173E-04      0.26845191E-14      0.90891539E-12      0.19486997E-21      0.75950372E-14      0.17523935E-23
    0.112984351178         0.11219069E-07      0.11920292E-04      0.25208470E-14      0.92188756E-12      0.19495642E-21      0.80555205E-14      0.18497744E-23
    0.119261259577         0.12588925E-07      0.11380052E-04      0.23696858E-14      0.93559107E-12      0.19481956E-21      0.85228487E-14      0.19470868E-23
    0.125538167976         0.14058942E-07      0.10877229E-04      0.22350839E-14      0.94874096E-12      0.19495000E-21      0.89967453E-14      0.20444645E-23
    0.131815076374         0.15633376E-07      0.10429600E-04      0.21088466E-14      0.96340272E-12      0.19479832E-21      0.94779654E-14      0.21417663E-23
    0.138091984773         0.17316734E-07      0.99756152E-05      0.19953196E-14      0.97429337E-12      0.19487788E-21      0.99646254E-14      0.22391079E-23
    0.144368893172         0.19113780E-07      0.95568386E-05      0.18888478E-14      0.98546172E-12      0.19477019E-21      0.10456864E-13      0.23363957E-23
    0.150645801571         0.21029537E-07      0.92238688E-05      0.17922992E-14      0.10028555E-11      0.19486585E-21      0.10957791E-13      0.24337313E-23
    0.156922709970         0.23069292E-07      0.89054666E-05      0.17026222E-14      0.10196654E-11      0.19494823E-21      0.11467114E-13      0.25311080E-23
    0.163199618368         0.25238602E-07      0.85900405E-05      0.16172850E-14      0.10346511E-11      0.19479835E-21      0.11983923E-13      0.26284099E-23
    0.169476526767         0.27543295E-07      0.82974936E-05      0.15406895E-14      0.10502817E-11      0.19501769E-21      0.12508539E-13      0.27258214E-23
    0.175753435166         0.29989481E-07      0.80287880E-05      0.14660133E-14      0.10670080E-11      0.19482989E-21      0.13041510E-13      0.28231390E-23
    0.182030343565         0.32583550E-07      0.77720983E-05      0.13972972E-14      0.10835412E-11      0.19480313E-21      0.13582740E-13      0.29204432E-23
    0.188307251963         0.35332181E-07      0.75646618E-05      0.13317638E-14      0.11054662E-11      0.19461807E-21      0.14134921E-13      0.30176551E-23
    0.194584160362         0.38242343E-07      0.73828293E-05      0.12718461E-14      0.11300883E-11      0.19468124E-21      0.14699400E-13      0.31148984E-23
    0.200861068761         0.41321305E-07      0.71175776E-05      0.12162769E-14      0.11404152E-11      0.19487820E-21      0.15269038E-13      0.32122402E-23
    0.207137977160         0.44576634E-07      0.68890185E-05      0.11613006E-14      0.11546688E-11      0.19464566E-21      0.15845796E-13      0.33094658E-23
    0.213414885559         0.48016203E-07      0.66957644E-05      0.11118436E-14      0.11733182E-11      0.19483158E-21      0.16431869E-13      0.34067843E-23
    0.219691793957         0.51648196E-07      0.65118354E-05      0.10645134E-14      0.11923322E-11      0.19491488E-21      0.17027439E-13      0.35041444E-23
    0.225968702356         0.55481108E-07      0.63381705E-05      0.10193754E-14      0.12120298E-11      0.19493217E-21      0.17632849E-13      0.36015131E-23
    0.232245610755         0.59523755E-07      0.61751816E-05      0.97638762E-15      0.12326650E-11      0.19490259E-21      0.18248566E-13      0.36988670E-23
    0.238522519154         0.63785271E-07      0.60146563E-05      0.93574536E-15      0.12527211E-11      0.19489524E-21      0.18874300E-13      0.37962173E-23
    0.244799427552         0.68275117E-07      0.58641604E-05      0.89789810E-15      0.12738270E-11      0.19504357E-21      0.19510578E-13      0.38936416E-23
    0.251076335951         0.73003082E-07      0.57237481E-05      0.85978017E-15      0.12961894E-11      0.19470423E-21      0.20158025E-13      0.39908965E-23
    0.257353244350         0.77979284E-07      0.55918424E-05      0.82669559E-15      0.13196448E-11      0.19509573E-21      0.20817188E-13      0.40883469E-23
    0.263630152749         0.83214178E-07      0.54648805E-05      0.79368075E-15      0.13434931E-11      0.19511948E-21      0.21488264E-13      0.41858092E-23
    0.269907061148         0.88718553E-07      0.53460905E-05      0.76178905E-15      0.13686394E-11      0.19502373E-21      0.22171900E-13      0.42832236E-23
    0.276183969546         0.94503538E-07      0.52327880E-05      0.73105303E-15      0.13945538E-11      0.19482784E-21      0.22868480E-13      0.43805403E-23
    0.282460877945         0.10058060E-06      0.51289582E-05      0.70267185E-15      0.14224520E-11      0.19487719E-21      0.23578996E-13      0.44778815E-23
    0.288737786344         0.10696156E-06      0.50287188E-05      0.67557067E-15      0.14508883E-11      0.19491597E-21      0.24303715E-13      0.45752421E-23
    0.295014694743         0.11365856E-06      0.49433161E-05      0.64893101E-15      0.14833014E-11      0.19471955E-21      0.25044625E-13      0.46725046E-23
    0.301291603141         0.12068410E-06      0.48590236E-05      0.62490236E-15      0.15158791E-11      0.19495202E-21      0.25801807E-13      0.47698833E-23
    0.307568511540         0.12805103E-06      0.48099979E-05      0.60122025E-15      0.15596912E-11      0.19495184E-21      0.26580874E-13      0.48672618E-23
    0.313845419939         0.13577253E-06      0.47882040E-05      0.57843941E-15      0.16133229E-11      0.19489762E-21      0.27386729E-13      0.49646133E-23
    0.320122328338         0.14386214E-06      0.51456520E-05      0.55700733E-15      0.18010405E-11      0.19495931E-21      0.28286350E-13      0.50619955E-23
    0.326399236737         0.15233372E-06      0.49196778E-05      0.53592813E-15      0.17882824E-11      0.19480765E-21      0.29179598E-13      0.51593021E-23
    0.332676145135         0.16120149E-06      0.42317942E-05      0.51616414E-15      0.15970719E-11      0.19479947E-21      0.29977336E-13      0.52566045E-23
    0.338953053534         0.17048002E-06      0.41753531E-05      0.49724440E-15      0.16356097E-11      0.19478538E-21      0.30794324E-13      0.53538999E-23
    0.345229961933         0.18018417E-06      0.41539072E-05      0.47969694E-15      0.16885639E-11      0.19499687E-21      0.31637763E-13      0.54513009E-23
    0.351506870332         0.19032920E-06      0.41030494E-05      0.46235603E-15      0.17303377E-11      0.19498476E-21      0.32502067E-13      0.55486959E-23
    0.357783778731         0.20093064E-06      0.40588222E-05      0.44519030E-15      0.17753259E-11      0.19472591E-21      0.33388843E-13      0.56459616E-23
    0.364060687129         0.21200438E-06      0.40129853E-05      0.42973077E-15      0.18200828E-11      0.19490367E-21      0.34297975E-13      0.57433161E-23
    0.370337595528         0.22356662E-06      0.39711298E-05      0.41441865E-15      0.18671353E-11      0.19485026E-21      0.35230610E-13      0.58406439E-23
    0.376614503927         0.23563389E-06      0.39218317E-05      0.40007167E-15      0.19110946E-11      0.19495351E-21      0.36185203E-13      0.59380233E-23
    0.382891412326         0.24822301E-06      0.38789391E-05      0.38598024E-15      0.19585376E-11      0.19488752E-21      0.37163494E-13      0.60353697E-23
    0.389168320724         0.26135112E-06      0.38393385E-05      0.37274783E-15      0.20081486E-11      0.19496406E-21      0.38166565E-13      0.61327543E-23
    0.395445229123         0.27503566E-06      0.38037487E-05      0.35969530E-15      0.20604734E-11      0.19484531E-21      0.39195772E-13      0.62300796E-23
    0.401722137522         0.28929433E-06      0.37683137E-05      0.34736991E-15      0.21135560E-11      0.19483138E-21      0.40251495E-13      0.63273980E-23
    0.407999045921         0.30414516E-06      0.37382351E-05      0.33564157E-15      0.21704056E-11      0.19487227E-21      0.41335613E-13      0.64247368E-23
    0.414275954320         0.31960641E-06      0.37089366E-05      0.32427651E-15      0.22285773E-11      0.19484703E-21      0.42448789E-13      0.65220630E-23
    0.420552862718         0.33569662E-06      0.36863154E-05      0.31368148E-15      0.22917720E-11      0.19501490E-21      0.43593530E-13      0.66194730E-23
    0.426829771117         0.35243458E-06      0.36629875E-05      0.30328396E-15      0.23556556E-11      0.19504095E-21      0.44770181E-13      0.67168961E-23
    0.433106679516         0.36983933E-06      0.36499209E-05      0.29319287E-15      0.24274719E-11      0.19499531E-21      0.45982705E-13      0.68142963E-23
    0.439383587915         0.38793013E-06      0.36336920E-05      0.28322468E-15      0.24986782E-11      0.19475711E-21      0.47230796E-13      0.69115776E-23
    0.445660496313         0.40672647E-06      0.36379155E-05      0.27385512E-15      0.25858507E-11      0.19465775E-21      0.48522429E-13      0.70088093E-23
    0.451937404712         0.42624802E-06      0.36318800E-05      0.26522173E-15      0.26678912E-11      0.19482547E-21      0.49855042E-13      0.71061247E-23
    0.458214313111         0.44651466E-06      0.37098964E-05      0.25660356E-15      0.28156677E-11      0.19475216E-21      0.51261470E-13      0.72034035E-23
    0.464491221510         0.46754647E-06      0.35972108E-05      0.24877599E-15      0.28201078E-11      0.19503307E-21      0.52670115E-13      0.73008226E-23
    0.470768129909         0.48936365E-06      0.33574526E-05      0.24082374E-15      0.27182355E-11      0.19497390E-21      0.54027875E-13      0.73982122E-23
    0.477045038307         0.51198657E-06      0.34211149E-05      0.23310466E-15      0.28596928E-11      0.19485102E-21      0.55456293E-13      0.74955403E-23
    0.483321946706         0.53543573E-06      0.34949827E-05      0.22584728E-15      0.30155629E-11      0.19486697E-21      0.56962568E-13      0.75928765E-23
    0.489598855105         0.55973174E-06      0.35103295E-05      0.21883653E-15      0.31256473E-11      0.19485516E-21      0.58523831E-13      0.76902067E-23
    0.495875763504         0.58489532E-06      0.35436141E-05      0.21209436E-15      0.32553990E-11      0.19484395E-21      0.60149904E-13      0.77875314E-23
    0.502152671902         0.61094726E-06      0.35613376E-05      0.20540239E-15      0.33746880E-11      0.19463725E-21      0.61835562E-13      0.78847528E-23
    0.508429580301         0.63790841E-06      0.36066747E-05      0.19960157E-15      0.35244149E-11      0.19504913E-21      0.63596009E-13      0.79821799E-23
    0.514706488700         0.66579967E-06      0.36719277E-05      0.19348582E-15      0.36993940E-11      0.19493311E-21      0.65443858E-13      0.80795491E-23
    0.520983397099         0.69464194E-06      0.37013616E-05      0.18753692E-15      0.38437150E-11      0.19474954E-21      0.67363796E-13      0.81768266E-23
    0.527260305498         0.72445614E-06      0.36633878E-05      0.18201667E-15      0.39203285E-11      0.19478286E-21      0.69322002E-13      0.82741207E-23
    0.533537213896         0.75526319E-06      0.37304075E-05      0.17669894E-15      0.41128457E-11      0.19481396E-21      0.71376371E-13      0.83714304E-23
    0.539814122295         0.78708392E-06      0.37974313E-05      0.17136862E-15      0.43124022E-11      0.19460797E-21      0.73530418E-13      0.84686372E-23
    0.546091030694         0.81993914E-06      0.38690745E-05      0.16651618E-15      0.45245586E-11      0.19472672E-21      0.75790437E-13      0.85659033E-23
    0.552367939093         0.85384956E-06      0.38812536E-05      0.16183627E-15      0.46728029E-11      0.19484142E-21      0.78124504E-13      0.86632267E-23
    0.558644847491         0.88883579E-06      0.39915834E-05      0.15713644E-15      0.49463345E-11      0.19472207E-21      0.80595201E-13      0.87604904E-23
    0.564921755890         0.92491828E-06      0.40360729E-05      0.15263269E-15      0.51466733E-11      0.19463241E-21      0.83165967E-13      0.88577094E-23
    0.571198664289         0.96211735E-06      0.41561831E-05      0.14837323E-15      0.54524046E-11      0.19464755E-21      0.85889445E-13      0.89549360E-23
    0.577475572688         0.10004531E-05      0.41871545E-05      0.14407635E-15      0.56498207E-11      0.19440542E-21      0.88711534E-13      0.90520416E-23
    0.583752481087         0.10399456E-05      0.43689266E-05      0.14036990E-15      0.60619056E-11      0.19476388E-21      0.91739459E-13      0.91493262E-23
    0.590029389485         0.10806144E-05      0.43655307E-05      0.13655635E-15      0.62271122E-11      0.19478771E-21      0.94849904E-13      0.92466228E-23
    0.596306297884         0.11224790E-05      0.46041956E-05      0.13284721E-15      0.67501765E-11      0.19476630E-21      0.98221621E-13      0.93439087E-23
    0.602583206283         0.11655585E-05      0.45046284E-05      0.12931091E-15      0.67862301E-11      0.19480709E-21      0.10161135E-12      0.94412149E-23
    0.608860114682         0.12098719E-05      0.48397239E-05      0.12576301E-15      0.74902273E-11      0.19463786E-21      0.10535272E-12      0.95384366E-23
    0.615137023081         0.12554376E-05      0.43485581E-05      0.12259202E-15      0.69122764E-11      0.19486687E-21      0.10880540E-12      0.96357727E-23
    0.621413931479         0.13022739E-05      0.49574856E-05      0.11925161E-15      0.80916173E-11      0.19464271E-21      0.11284717E-12      0.97329968E-23
    0.627690839878         0.13503983E-05      0.20828829E-05      0.11629036E-15      0.34900649E-11      0.19485536E-21      0.11459046E-12      0.98303272E-23
    0.633967748277         0.13998285E-05      0.45697017E-05      0.11309431E-15      0.78586519E-11      0.19449165E-21      0.11851586E-12      0.99274759E-23
    0.640244656676         0.14505812E-05      0.19282902E-04      0.10974690E-15      0.34026791E-10      0.19366043E-21      0.13551226E-12      0.10024209E-22
    0.646521565074         0.15026729E-05      0.19311848E-04      0.10726398E-15      0.34958904E-10      0.19417257E-21      0.15297425E-12      0.10121199E-22
    0.652798473473         0.15561195E-05      0.15700817E-04      0.10406514E-15      0.29150004E-10      0.19320645E-21      0.16753469E-12      0.10217705E-22
    0.659075381872         0.16109365E-05      0.18611556E-04      0.10176300E-15      0.35430605E-10      0.19372505E-21      0.18523230E-12      0.10314471E-22
    0.665352290271         0.16671388E-05      0.20011995E-04      0.98460891E-16      0.39053777E-10      0.19214824E-21      0.20473968E-12      0.10410449E-22
    0.671629198670         0.17247407E-05      0.30924321E-04      0.97734399E-16      0.61851031E-10      0.19547635E-21      0.23563430E-12      0.10508090E-22
    0.677906107068         0.17837558E-05      0.57837684E-04      0.93307588E-16      0.11853027E-09      0.19122089E-21      0.29484023E-12      0.10603605E-22
    0.684183015467         0.18441971E-05      0.15559990E-03      0.91023621E-16      0.32666071E-09      0.19109165E-21      0.45800741E-12      0.10699055E-22
    0.690459923866         0.19060772E-05      0.45787026E-03      0.94424940E-16      0.98445753E-09      0.20302114E-21      0.94974444E-12      0.10800464E-22
    0.696736832265         0.19694076E-05      0.55757965E-03      0.73127308E-16      0.12275136E-08      0.16099003E-21      0.15628881E-11      0.10880879E-22
    0.703013740663         0.20341994E-05      0.27552049E-03      0.84626575E-16      0.62092073E-09      0.19071683E-21      0.18730383E-11      0.10976142E-22
    0.709290649062         0.21004628E-05      0.17790422E-03      0.76849529E-16      0.41032650E-09      0.17724930E-21      0.20779966E-11      0.11064678E-22
    0.715567557461         0.21682073E-05      0.25521444E-03      0.77056942E-16      0.60229318E-09      0.18185049E-21      0.23788423E-11      0.11155513E-22
    0.721844465860         0.22374415E-05      0.30574967E-03      0.62960344E-16      0.73811936E-09      0.15199444E-21      0.27475333E-11      0.11231434E-22
    0.728121374259         0.23081733E-05      0.31443981E-03      0.67173433E-16      0.77634491E-09      0.16584971E-21      0.31353180E-11      0.11314276E-22
    0.734398282657         0.23804097E-05      0.30051545E-03      0.54904075E-16      0.75864642E-09      0.13860445E-21      0.35142623E-11      0.11383509E-22
    0.740675191056         0.24541568E-05      0.31934347E-03      0.58617546E-16      0.82410982E-09      0.15127065E-21      0.39259055E-11      0.11459069E-22
    0.746952099455         0.25294198E-05      0.34714940E-03      0.62765499E-16      0.91558176E-09      0.16553952E-21      0.43832391E-11      0.11541756E-22
    0.753229007854         0.26062031E-05      0.39254143E-03      0.45486043E-16      0.10578382E-08      0.12257783E-21      0.49116298E-11      0.11602983E-22
    0.759505916252         0.26845099E-05      0.44101309E-03      0.75007041E-16      0.12140536E-08      0.20648496E-21      0.55180502E-11      0.11706123E-22
    0.765782824651         0.27643427E-05      0.37472140E-03      0.59320653E-16      0.10535309E-08      0.16678029E-21      0.60442894E-11      0.11789430E-22
