 
 # Omega; pulse ft; proj flux t=    500.250000000000     
    0.000000000000         0.23733438E-09      0.00000000E+00      0.00000000E+00      0.18299508E-08      0.77085292E-18      0.91406132E-12      0.38504142E-21
    0.006276908399         0.26847166E-09      0.50723381E-01      0.23145591E-10      0.16897148E-08      0.77103392E-18      0.17580747E-11      0.77017325E-21
    0.012553816798         0.36198451E-09      0.68784006E-01      0.34320982E-10      0.15447358E-08      0.77077291E-18      0.25296710E-11      0.11551747E-20
    0.018830725196         0.51817601E-09      0.71032975E-01      0.35971870E-10      0.15223790E-08      0.77094928E-18      0.32901001E-11      0.15402643E-20
    0.025107633595         0.73755180E-09      0.66988352E-01      0.33696668E-10      0.15326344E-08      0.77095005E-18      0.40556517E-11      0.19253542E-20
    0.031384541994         0.10208207E-08      0.60959273E-01      0.30422618E-10      0.15442798E-08      0.77069548E-18      0.48270203E-11      0.23103170E-20
    0.037661450393         0.13688958E-08      0.55183345E-01      0.27225987E-10      0.15621902E-08      0.77074286E-18      0.56073351E-11      0.26953034E-20
    0.043938358791         0.17828953E-08      0.50002029E-01      0.24392757E-10      0.15802369E-08      0.77089539E-18      0.63966642E-11      0.30803660E-20
    0.050215267190         0.22641447E-08      0.45514502E-01      0.21958797E-10      0.15983458E-08      0.77113336E-18      0.71950387E-11      0.34655475E-20
    0.056492175589         0.28141777E-08      0.41678609E-01      0.19866434E-10      0.16170706E-08      0.77078931E-18      0.80027662E-11      0.38505572E-20
    0.062769083988         0.34347388E-08      0.38418314E-01      0.18088068E-10      0.16373396E-08      0.77089044E-18      0.88206182E-11      0.42356173E-20
    0.069045992387         0.41277855E-08      0.35614932E-01      0.16558791E-10      0.16583008E-08      0.77100963E-18      0.96489403E-11      0.46207370E-20
    0.075322900785         0.48954902E-08      0.33169447E-01      0.15228063E-10      0.16790356E-08      0.77084376E-18      0.10487619E-10      0.50057739E-20
    0.081599809184         0.57402438E-08      0.31044366E-01      0.14069699E-10      0.17008912E-08      0.77086537E-18      0.11337215E-10      0.53908215E-20
    0.087876717583         0.66646579E-08      0.29164190E-01      0.13051743E-10      0.17226875E-08      0.77094801E-18      0.12197699E-10      0.57759104E-20
    0.094153625982         0.76715684E-08      0.27508788E-01      0.12147870E-10      0.17457060E-08      0.77090307E-18      0.13069680E-10      0.61609769E-20
    0.100430534380         0.87640384E-08      0.26020568E-01      0.11340404E-10      0.17685112E-08      0.77076069E-18      0.13953052E-10      0.65459723E-20
    0.106707442779         0.99453622E-08      0.24695585E-01      0.10621254E-10      0.17926592E-08      0.77099969E-18      0.14848486E-10      0.69310870E-20
    0.112984351178         0.11219069E-07      0.23487613E-01      0.99685976E-11      0.18164771E-08      0.77094805E-18      0.15755817E-10      0.73161759E-20
    0.119261259577         0.12588925E-07      0.22401191E-01      0.93765453E-11      0.18416747E-08      0.77087624E-18      0.16675735E-10      0.77012290E-20
    0.125538167976         0.14058942E-07      0.21402405E-01      0.88355740E-11      0.18667749E-08      0.77066239E-18      0.17608190E-10      0.80861752E-20
    0.131815076374         0.15633376E-07      0.20497067E-01      0.83448007E-11      0.18933545E-08      0.77082570E-18      0.18553921E-10      0.84712031E-20
    0.138091984773         0.17316734E-07      0.19648846E-01      0.78928300E-11      0.19190536E-08      0.77087295E-18      0.19512490E-10      0.88562545E-20
    0.144368893172         0.19113780E-07      0.18871483E-01      0.74719226E-11      0.19459493E-08      0.77047379E-18      0.20484492E-10      0.92411065E-20
    0.150645801571         0.21029537E-07      0.18158498E-01      0.70885305E-11      0.19742636E-08      0.77069304E-18      0.21470638E-10      0.96260681E-20
    0.156922709970         0.23069292E-07      0.17497856E-01      0.67333256E-11      0.20034839E-08      0.77095784E-18      0.22471379E-10      0.10011162E-19
    0.163199618368         0.25238602E-07      0.16877514E-01      0.63998778E-11      0.20328586E-08      0.77085088E-18      0.23486793E-10      0.10396202E-19
    0.169476526767         0.27543295E-07      0.16301180E-01      0.60899119E-11      0.20633739E-08      0.77085003E-18      0.24517449E-10      0.10781242E-19
    0.175753435166         0.29989481E-07      0.15757941E-01      0.57981939E-11      0.20941951E-08      0.77056700E-18      0.25563501E-10      0.11166141E-19
    0.182030343565         0.32583550E-07      0.15248861E-01      0.55269699E-11      0.21259085E-08      0.77053833E-18      0.26625393E-10      0.11551025E-19
    0.188307251963         0.35332181E-07      0.14778627E-01      0.52722651E-11      0.21596831E-08      0.77046546E-18      0.27704156E-10      0.11935873E-19
    0.194584160362         0.38242343E-07      0.14338248E-01      0.50335284E-11      0.21947529E-08      0.77048126E-18      0.28800436E-10      0.12320729E-19
    0.200861068761         0.41321305E-07      0.13904683E-01      0.48102868E-11      0.22278805E-08      0.77072913E-18      0.29913263E-10      0.12705708E-19
    0.207137977160         0.44576634E-07      0.13498737E-01      0.45980385E-11      0.22625240E-08      0.77067751E-18      0.31043395E-10      0.13090662E-19
    0.213414885559         0.48016203E-07      0.13120910E-01      0.43972333E-11      0.22992152E-08      0.77053994E-18      0.32191854E-10      0.13475547E-19
    0.219691793957         0.51648196E-07      0.12761456E-01      0.42086777E-11      0.23366523E-08      0.77061867E-18      0.33359013E-10      0.13860472E-19
    0.225968702356         0.55481108E-07      0.12422227E-01      0.40317962E-11      0.23754660E-08      0.77098858E-18      0.34545560E-10      0.14245581E-19
    0.232245610755         0.59523755E-07      0.12098789E-01      0.38627811E-11      0.24151119E-08      0.77107290E-18      0.35751909E-10      0.14630732E-19
    0.238522519154         0.63785271E-07      0.11793920E-01      0.37020244E-11      0.24564151E-08      0.77105051E-18      0.36978890E-10      0.15015872E-19
    0.244799427552         0.68275117E-07      0.11502247E-01      0.35511438E-11      0.24985457E-08      0.77138795E-18      0.38226915E-10      0.15401181E-19
    0.251076335951         0.73003082E-07      0.11226731E-01      0.34036716E-11      0.25423848E-08      0.77078918E-18      0.39496837E-10      0.15786191E-19
    0.257353244350         0.77979284E-07      0.10963875E-01      0.32673251E-11      0.25874156E-08      0.77107119E-18      0.40789253E-10      0.16171341E-19
    0.263630152749         0.83214178E-07      0.10716494E-01      0.31343381E-11      0.26345565E-08      0.77054966E-18      0.42105215E-10      0.16556231E-19
    0.269907061148         0.88718553E-07      0.10478959E-01      0.30113267E-11      0.26826923E-08      0.77092230E-18      0.43445221E-10      0.16941307E-19
    0.276183969546         0.94503538E-07      0.10254705E-01      0.28923332E-11      0.27329099E-08      0.77081554E-18      0.44810311E-10      0.17326330E-19
    0.282460877945         0.10058060E-06      0.10041003E-01      0.27802374E-11      0.27847459E-08      0.77106385E-18      0.46201293E-10      0.17711477E-19
    0.288737786344         0.10696156E-06      0.98383687E-02      0.26726182E-11      0.28385708E-08      0.77110506E-18      0.47619161E-10      0.18096644E-19
    0.295014694743         0.11365856E-06      0.96486899E-02      0.25685052E-11      0.28952054E-08      0.77071085E-18      0.49065317E-10      0.18481614E-19
    0.301291603141         0.12068410E-06      0.94674311E-02      0.24712868E-11      0.29535730E-08      0.77097219E-18      0.50540628E-10      0.18866715E-19
    0.307568511540         0.12805103E-06      0.93085972E-02      0.23767762E-11      0.30184082E-08      0.77069410E-18      0.52048325E-10      0.19251677E-19
    0.313845419939         0.13577253E-06      0.91670324E-02      0.22880242E-11      0.30887120E-08      0.77091992E-18      0.53591138E-10      0.19636752E-19
    0.320122328338         0.14386214E-06      0.92162340E-02      0.22027099E-11      0.32257936E-08      0.77097514E-18      0.55202423E-10      0.20021855E-19
    0.326399236737         0.15233372E-06      0.90053366E-02      0.21203925E-11      0.32734024E-08      0.77075387E-18      0.56837490E-10      0.20406847E-19
    0.332676145135         0.16120149E-06      0.85673094E-02      0.20426596E-11      0.32332880E-08      0.77089625E-18      0.58452519E-10      0.20791910E-19
    0.338953053534         0.17048002E-06      0.84299460E-02      0.19669351E-11      0.33022599E-08      0.77050685E-18      0.60101999E-10      0.21176778E-19
    0.345229961933         0.18018417E-06      0.83199550E-02      0.18966248E-11      0.33820629E-08      0.77097824E-18      0.61791341E-10      0.21561882E-19
    0.351506870332         0.19032920E-06      0.82006954E-02      0.18277895E-11      0.34583968E-08      0.77081528E-18      0.63518812E-10      0.21946905E-19
    0.357783778731         0.20093064E-06      0.80910552E-02      0.17623156E-11      0.35390216E-08      0.77083555E-18      0.65286555E-10      0.22331938E-19
    0.364060687129         0.21200438E-06      0.79834046E-02      0.16995745E-11      0.36208599E-08      0.77083917E-18      0.67095176E-10      0.22716972E-19
    0.370337595528         0.22356662E-06      0.78842217E-02      0.16390920E-11      0.37069824E-08      0.77066391E-18      0.68946816E-10      0.23101919E-19
    0.376614503927         0.23563389E-06      0.77874818E-02      0.15826524E-11      0.37948122E-08      0.77122091E-18      0.70842327E-10      0.23487145E-19
    0.382891412326         0.24822301E-06      0.76995643E-02      0.15261054E-11      0.38876316E-08      0.77055472E-18      0.72784200E-10      0.23872037E-19
    0.389168320724         0.26135112E-06      0.76153184E-02      0.14738866E-11      0.39831576E-08      0.77090969E-18      0.74773790E-10      0.24257107E-19
    0.395445229123         0.27503566E-06      0.75406711E-02      0.14229260E-11      0.40847473E-08      0.77079254E-18      0.76814123E-10      0.24642118E-19
    0.401722137522         0.28929433E-06      0.74678455E-02      0.13748220E-11      0.41885338E-08      0.77110438E-18      0.78906298E-10      0.25027285E-19
    0.407999045921         0.30414516E-06      0.74067438E-02      0.13278190E-11      0.43003284E-08      0.77092685E-18      0.81054314E-10      0.25412363E-19
    0.414275954320         0.31960641E-06      0.73458495E-02      0.12827713E-11      0.44138779E-08      0.77077486E-18      0.83259048E-10      0.25797366E-19
    0.420552862718         0.33569662E-06      0.73002546E-02      0.12403783E-11      0.45385479E-08      0.77113975E-18      0.85526055E-10      0.26182551E-19
    0.426829771117         0.35243458E-06      0.72516788E-02      0.11984728E-11      0.46635315E-08      0.77073401E-18      0.87855491E-10      0.26567533E-19
    0.433106679516         0.36983933E-06      0.72259026E-02      0.11595839E-11      0.48057687E-08      0.77121047E-18      0.90255975E-10      0.26952753E-19
    0.439383587915         0.38793013E-06      0.71914556E-02      0.11206366E-11      0.49451450E-08      0.77059650E-18      0.92726078E-10      0.27337666E-19
    0.445660496313         0.40672647E-06      0.72006753E-02      0.10844275E-11      0.51182803E-08      0.77081715E-18      0.95282661E-10      0.27722689E-19
    0.451937404712         0.42624802E-06      0.71872329E-02      0.10492953E-11      0.52795674E-08      0.77078695E-18      0.97919808E-10      0.28107698E-19
    0.458214313111         0.44651466E-06      0.73477872E-02      0.10152228E-11      0.55766859E-08      0.77051481E-18      0.10070537E-09      0.28492570E-19
    0.464491221510         0.46754647E-06      0.71007010E-02      0.98331953E-12      0.55667412E-08      0.77089366E-18      0.10348596E-09      0.28877632E-19
    0.470768129909         0.48936365E-06      0.65997651E-02      0.95225020E-12      0.53432521E-08      0.77095363E-18      0.10615491E-09      0.29262724E-19
    0.477045038307         0.51198657E-06      0.67404054E-02      0.92219613E-12      0.56342711E-08      0.77085913E-18      0.10896923E-09      0.29647768E-19
    0.483321946706         0.53543573E-06      0.68979272E-02      0.89315432E-12      0.59517129E-08      0.77063703E-18      0.11194212E-09      0.30032702E-19
    0.489598855105         0.55973174E-06      0.69273245E-02      0.86580665E-12      0.61681881E-08      0.77092654E-18      0.11502313E-09      0.30417780E-19
    0.495875763504         0.58489532E-06      0.69966415E-02      0.83907320E-12      0.64275791E-08      0.77082831E-18      0.11823371E-09      0.30802809E-19
    0.502152671902         0.61094726E-06      0.70293912E-02      0.81294330E-12      0.66609811E-08      0.77033697E-18      0.12156087E-09      0.31187593E-19
    0.508429580301         0.63790841E-06      0.71241464E-02      0.78909898E-12      0.69616614E-08      0.77110149E-18      0.12503823E-09      0.31572759E-19
    0.514706488700         0.66579967E-06      0.72474538E-02      0.76518388E-12      0.73016653E-08      0.77090752E-18      0.12868541E-09      0.31957827E-19
    0.520983397099         0.69464194E-06      0.72953776E-02      0.74191540E-12      0.75759558E-08      0.77044926E-18      0.13246961E-09      0.32342667E-19
    0.527260305498         0.72445614E-06      0.72185870E-02      0.72018853E-12      0.77248803E-08      0.77070072E-18      0.13632819E-09      0.32727632E-19
    0.533537213896         0.75526319E-06      0.73544631E-02      0.69922258E-12      0.81084364E-08      0.77090627E-18      0.14037835E-09      0.33112701E-19
    0.539814122295         0.78708392E-06      0.74871130E-02      0.67842834E-12      0.85024430E-08      0.77043023E-18      0.14462533E-09      0.33497531E-19
    0.546091030694         0.81993914E-06      0.76314756E-02      0.65883519E-12      0.89243714E-08      0.77045257E-18      0.14908306E-09      0.33882372E-19
    0.552367939093         0.85384956E-06      0.76527955E-02      0.64013622E-12      0.92135192E-08      0.77068666E-18      0.15368521E-09      0.34267331E-19
    0.558644847491         0.88883579E-06      0.78711128E-02      0.62201700E-12      0.97538127E-08      0.77079791E-18      0.15855725E-09      0.34652345E-19
    0.564921755890         0.92491828E-06      0.79564735E-02      0.60405328E-12      0.10145845E-07      0.77026976E-18      0.16362510E-09      0.35037095E-19
    0.571198664289         0.96211735E-06      0.81952606E-02      0.58711867E-12      0.10751181E-07      0.77022799E-18      0.16899532E-09      0.35421824E-19
    0.577475572688         0.10004531E-05      0.82528371E-02      0.57054322E-12      0.11135737E-07      0.76984666E-18      0.17455763E-09      0.35806363E-19
    0.583752481087         0.10399456E-05      0.86132804E-02      0.55558037E-12      0.11950966E-07      0.77087029E-18      0.18052714E-09      0.36191413E-19
    0.590029389485         0.10806144E-05      0.86014112E-02      0.54027534E-12      0.12269288E-07      0.77066350E-18      0.18665566E-09      0.36576360E-19
    0.596306297884         0.11224790E-05      0.90741380E-02      0.52569936E-12      0.13303525E-07      0.77072388E-18      0.19330078E-09      0.36961337E-19
    0.602583206283         0.11655585E-05      0.88689659E-02      0.51152047E-12      0.13361112E-07      0.77060642E-18      0.19997466E-09      0.37346255E-19
    0.608860114682         0.12098719E-05      0.95309145E-02      0.49766029E-12      0.14750576E-07      0.77020689E-18      0.20734258E-09      0.37730974E-19
    0.615137023081         0.12554376E-05      0.85267125E-02      0.48491113E-12      0.13553687E-07      0.77079336E-18      0.21411265E-09      0.38115985E-19
    0.621413931479         0.13022739E-05      0.97087317E-02      0.47193128E-12      0.15846610E-07      0.77028713E-18      0.22202804E-09      0.38500744E-19
    0.627690839878         0.13503983E-05      0.38010945E-02      0.45993121E-12      0.63690889E-08      0.77065771E-18      0.22520940E-09      0.38885688E-19
    0.633967748277         0.13998285E-05      0.83774912E-02      0.44770395E-12      0.14407021E-07      0.76992979E-18      0.23240572E-09      0.39270268E-19
    0.640244656676         0.14505812E-05      0.37681890E-01      0.43537236E-12      0.66493820E-07      0.76826219E-18      0.26561941E-09      0.39654016E-19
    0.646521565074         0.15026729E-05      0.38120741E-01      0.42509468E-12      0.69007341E-07      0.76951951E-18      0.30008862E-09      0.40038391E-19
    0.652798473473         0.15561195E-05      0.31045739E-01      0.41338904E-12      0.57639255E-07      0.76749457E-18      0.32887945E-09      0.40421755E-19
    0.659075381872         0.16109365E-05      0.36829953E-01      0.40369891E-12      0.70112758E-07      0.76851696E-18      0.36390081E-09      0.40805630E-19
    0.665352290271         0.16671388E-05      0.39560386E-01      0.39240587E-12      0.77202821E-07      0.76578727E-18      0.40246366E-09      0.41188141E-19
    0.671629198670         0.17247407E-05      0.61140654E-01      0.38597072E-12      0.12228603E-06      0.77197127E-18      0.46354559E-09      0.41573741E-19
    0.677906107068         0.17837558E-05      0.11448752E+00      0.37253954E-12      0.23462621E-06      0.76346785E-18      0.58074150E-09      0.41955093E-19
    0.684183015467         0.18441971E-05      0.30806509E+00      0.36367900E-12      0.64674054E-06      0.76349432E-18      0.90378872E-09      0.42336459E-19
    0.690459923866         0.19060772E-05      0.90565995E+00      0.36593423E-12      0.19472410E-05      0.78678773E-18      0.18764366E-08      0.42729460E-19
    0.696736832265         0.19694076E-05      0.11021142E+01      0.31968084E-12      0.24263084E-05      0.70377850E-18      0.30883788E-08      0.43080998E-19
    0.703013740663         0.20341994E-05      0.54434967E+00      0.33833819E-12      0.12267617E-05      0.76248847E-18      0.37011469E-08      0.43461861E-19
    0.709290649062         0.21004628E-05      0.35145965E+00      0.31938920E-12      0.81062275E-06      0.73665397E-18      0.41060534E-08      0.43829820E-19
    0.715567557461         0.21682073E-05      0.50413450E+00      0.31578226E-12      0.11897319E-05      0.74523017E-18      0.47003251E-08      0.44202063E-19
    0.721844465860         0.22374415E-05      0.60392382E+00      0.28428814E-12      0.14579505E-05      0.68630845E-18      0.54285721E-08      0.44544874E-19
    0.728121374259         0.23081733E-05      0.62103994E+00      0.28907961E-12      0.15333338E-05      0.71373114E-18      0.61944731E-08      0.44901383E-19
    0.734398282657         0.23804097E-05      0.59348968E+00      0.26137567E-12      0.14982551E-05      0.65983867E-18      0.69428523E-08      0.45230973E-19
    0.740675191056         0.24541568E-05      0.63065492E+00      0.26541192E-12      0.16274919E-05      0.68493202E-18      0.77557853E-08      0.45573097E-19
    0.746952099455         0.25294198E-05      0.68555445E+00      0.27041557E-12      0.18081009E-05      0.71320174E-18      0.86589326E-08      0.45929342E-19
    0.753229007854         0.26062031E-05      0.77520308E+00      0.23345824E-12      0.20890520E-05      0.62913372E-18      0.97024151E-08      0.46243594E-19
    0.759505916252         0.26845099E-05      0.87095068E+00      0.28830588E-12      0.23976178E-05      0.79366987E-18      0.10900026E-07      0.46640033E-19
    0.765782824651         0.27643427E-05      0.74002534E+00      0.25457644E-12      0.20805847E-05      0.71574284E-18      0.11939279E-07      0.46997547E-19
