 
 # Omega; pulse ft; proj flux t=    500.250000000000     
    0.000000000000         0.23733438E-09      0.00000000E+00      0.00000000E+00      0.11299053E-08      0.57386482E-19      0.56438828E-12      0.28664577E-22
    0.006276908399         0.26847166E-09      0.31223878E-01      0.17205724E-11      0.10401406E-08      0.57316302E-19      0.10839390E-11      0.57294098E-22
    0.012553816798         0.36198451E-09      0.41942833E-01      0.25525895E-11      0.94194273E-09      0.57325482E-19      0.15544399E-11      0.85928205E-22
    0.018830725196         0.51817601E-09      0.43159538E-01      0.26782252E-11      0.92499541E-09      0.57399735E-19      0.20164756E-11      0.11459940E-21
    0.025107633595         0.73755180E-09      0.40677151E-01      0.25082157E-11      0.93065734E-09      0.57385763E-19      0.24813394E-11      0.14326362E-21
    0.031384541994         0.10208207E-08      0.36985604E-01      0.22637567E-11      0.93695545E-09      0.57347695E-19      0.29493491E-11      0.17190882E-21
    0.037661450393         0.13688958E-08      0.33464519E-01      0.20220791E-11      0.94735002E-09      0.57243215E-19      0.34225509E-11      0.20050184E-21
    0.043938358791         0.17828953E-08      0.30286832E-01      0.18161817E-11      0.95716851E-09      0.57397617E-19      0.39006570E-11      0.22917197E-21
    0.050215267190         0.22641447E-08      0.27602347E-01      0.16377358E-11      0.96931950E-09      0.57512834E-19      0.43848326E-11      0.25789966E-21
    0.056492175589         0.28141777E-08      0.25292726E-01      0.14786498E-11      0.98132168E-09      0.57369502E-19      0.48750033E-11      0.28655576E-21
    0.062769083988         0.34347388E-08      0.23315051E-01      0.13463900E-11      0.99365779E-09      0.57381429E-19      0.53713359E-11      0.31521781E-21
    0.069045992387         0.41277855E-08      0.21614989E-01      0.12341379E-11      0.10064361E-08      0.57463869E-19      0.58740512E-11      0.34392104E-21
    0.075322900785         0.48954902E-08      0.20131624E-01      0.11329648E-11      0.10190618E-08      0.57350616E-19      0.63830731E-11      0.37256770E-21
    0.081599809184         0.57402438E-08      0.18840740E-01      0.10448625E-11      0.10322662E-08      0.57247018E-19      0.68986905E-11      0.40116262E-21
    0.087876717583         0.66646579E-08      0.17704174E-01      0.96929003E-12      0.10457605E-08      0.57254592E-19      0.74210484E-11      0.42976131E-21
    0.094153625982         0.76715684E-08      0.16701799E-01      0.90494453E-12      0.10598951E-08      0.57427725E-19      0.79504666E-11      0.45844649E-21
    0.100430534380         0.87640384E-08      0.15799991E-01      0.84390800E-12      0.10738605E-08      0.57356962E-19      0.84868604E-11      0.48709632E-21
    0.106707442779         0.99453622E-08      0.14996607E-01      0.79054710E-12      0.10886078E-08      0.57386030E-19      0.90306206E-11      0.51576067E-21
    0.112984351178         0.11219069E-07      0.14265629E-01      0.74253090E-12      0.11032704E-08      0.57425605E-19      0.95817047E-11      0.54444479E-21
    0.119261259577         0.12588925E-07      0.13608352E-01      0.69687635E-12      0.11187868E-08      0.57292468E-19      0.10140539E-10      0.57306241E-21
    0.125538167976         0.14058942E-07      0.13002511E-01      0.65727627E-12      0.11341138E-08      0.57329394E-19      0.10707030E-10      0.60169847E-21
    0.131815076374         0.15633376E-07      0.12455284E-01      0.61948763E-12      0.11505192E-08      0.57223295E-19      0.11281715E-10      0.63028153E-21
    0.138091984773         0.17316734E-07      0.11934488E-01      0.58982553E-12      0.11656116E-08      0.57606784E-19      0.11863938E-10      0.65905615E-21
    0.144368893172         0.19113780E-07      0.11456554E-01      0.55701071E-12      0.11813525E-08      0.57436643E-19      0.12454024E-10      0.68774578E-21
    0.150645801571         0.21029537E-07      0.11030233E-01      0.52754231E-12      0.11992505E-08      0.57356484E-19      0.13053051E-10      0.71639538E-21
    0.156922709970         0.23069292E-07      0.10632902E-01      0.50171335E-12      0.12174548E-08      0.57445587E-19      0.13661170E-10      0.74508947E-21
    0.163199618368         0.25238602E-07      0.10255884E-01      0.47542452E-12      0.12352981E-08      0.57263814E-19      0.14278202E-10      0.77369278E-21
    0.169476526767         0.27543295E-07      0.99058215E-02      0.45343453E-12      0.12538610E-08      0.57394922E-19      0.14904506E-10      0.80236157E-21
    0.175753435166         0.29989481E-07      0.95776193E-02      0.42861691E-12      0.12728442E-08      0.56962229E-19      0.15540292E-10      0.83081423E-21
    0.182030343565         0.32583550E-07      0.92688251E-02      0.41008840E-12      0.12922063E-08      0.57172165E-19      0.16185750E-10      0.85937176E-21
    0.188307251963         0.35332181E-07      0.89904473E-02      0.38971239E-12      0.13138241E-08      0.56950842E-19      0.16842006E-10      0.88781873E-21
    0.194584160362         0.38242343E-07      0.87326586E-02      0.37273092E-12      0.13367064E-08      0.57053852E-19      0.17509691E-10      0.91631716E-21
    0.200861068761         0.41321305E-07      0.84587652E-02      0.35752771E-12      0.13553073E-08      0.57284946E-19      0.18186668E-10      0.94493102E-21
    0.207137977160         0.44576634E-07      0.82070411E-02      0.34106152E-12      0.13755826E-08      0.57165341E-19      0.18873772E-10      0.97348513E-21
    0.213414885559         0.48016203E-07      0.79772947E-02      0.32677914E-12      0.13978845E-08      0.57262457E-19      0.19572016E-10      0.10020878E-20
    0.219691793957         0.51648196E-07      0.77585958E-02      0.31312847E-12      0.14206169E-08      0.57334551E-19      0.20281615E-10      0.10307264E-20
    0.225968702356         0.55481108E-07      0.75522339E-02      0.30052763E-12      0.14441916E-08      0.57469019E-19      0.21002989E-10      0.10594322E-20
    0.232245610755         0.59523755E-07      0.73561060E-02      0.28782664E-12      0.14683964E-08      0.57454802E-19      0.21736454E-10      0.10881309E-20
    0.238522519154         0.63785271E-07      0.71696297E-02      0.27578076E-12      0.14932767E-08      0.57439086E-19      0.22482347E-10      0.11168218E-20
    0.244799427552         0.68275117E-07      0.69919380E-02      0.26512271E-12      0.15188055E-08      0.57590589E-19      0.23240991E-10      0.11455883E-20
    0.251076335951         0.73003082E-07      0.68244150E-02      0.25278999E-12      0.15454444E-08      0.57246353E-19      0.24012941E-10      0.11741829E-20
    0.257353244350         0.77979284E-07      0.66650927E-02      0.24400466E-12      0.15729261E-08      0.57583791E-19      0.24798618E-10      0.12029460E-20
    0.263630152749         0.83214178E-07      0.65144772E-02      0.23315173E-12      0.16015273E-08      0.57318317E-19      0.25598582E-10      0.12315765E-20
    0.269907061148         0.88718553E-07      0.63706127E-02      0.22468723E-12      0.16309248E-08      0.57521623E-19      0.26413230E-10      0.12603086E-20
    0.276183969546         0.94503538E-07      0.62345096E-02      0.21493484E-12      0.16615157E-08      0.57280784E-19      0.27243158E-10      0.12889204E-20
    0.282460877945         0.10058060E-06      0.61057995E-02      0.20633273E-12      0.16933667E-08      0.57223786E-19      0.28088995E-10      0.13175037E-20
    0.288737786344         0.10696156E-06      0.59833134E-02      0.19852611E-12      0.17263084E-08      0.57278845E-19      0.28951287E-10      0.13461145E-20
    0.295014694743         0.11365856E-06      0.58706357E-02      0.19107334E-12      0.17615548E-08      0.57333853E-19      0.29831185E-10      0.13747528E-20
    0.301291603141         0.12068410E-06      0.57622059E-02      0.18434661E-12      0.17976467E-08      0.57510973E-19      0.30729110E-10      0.14034796E-20
    0.307568511540         0.12805103E-06      0.56727900E-02      0.17699303E-12      0.18394604E-08      0.57391807E-19      0.31647921E-10      0.14321468E-20
    0.313845419939         0.13577253E-06      0.55987546E-02      0.17022824E-12      0.18864274E-08      0.57356187E-19      0.32590193E-10      0.14607962E-20
    0.320122328338         0.14386214E-06      0.57085185E-02      0.16380741E-12      0.19980506E-08      0.57334577E-19      0.33588220E-10      0.14894349E-20
    0.326399236737         0.15233372E-06      0.55521748E-02      0.15791593E-12      0.20181924E-08      0.57401785E-19      0.34596308E-10      0.15181071E-20
    0.332676145135         0.16120149E-06      0.51749441E-02      0.15222307E-12      0.19530151E-08      0.57448728E-19      0.35571840E-10      0.15468028E-20
    0.338953053534         0.17048002E-06      0.50946660E-02      0.14624951E-12      0.19957318E-08      0.57290271E-19      0.36568709E-10      0.15754193E-20
    0.345229961933         0.18018417E-06      0.50360287E-02      0.14134431E-12      0.20471464E-08      0.57456482E-19      0.37591260E-10      0.16041188E-20
    0.351506870332         0.19032920E-06      0.49659175E-02      0.13649036E-12      0.20942264E-08      0.57560707E-19      0.38637327E-10      0.16328704E-20
    0.357783778731         0.20093064E-06      0.49020498E-02      0.13079744E-12      0.21441530E-08      0.57210706E-19      0.39708333E-10      0.16614472E-20
    0.364060687129         0.21200438E-06      0.48386468E-02      0.12616990E-12      0.21945602E-08      0.57224148E-19      0.40804517E-10      0.16900307E-20
    0.370337595528         0.22356662E-06      0.47804716E-02      0.12157234E-12      0.22476694E-08      0.57160558E-19      0.41927229E-10      0.17185824E-20
    0.376614503927         0.23563389E-06      0.47217610E-02      0.11774689E-12      0.23008973E-08      0.57377642E-19      0.43076528E-10      0.17472426E-20
    0.382891412326         0.24822301E-06      0.46687719E-02      0.11324793E-12      0.23573366E-08      0.57180669E-19      0.44254019E-10      0.17758044E-20
    0.389168320724         0.26135112E-06      0.46183455E-02      0.10983881E-12      0.24156046E-08      0.57450692E-19      0.45460614E-10      0.18045010E-20
    0.395445229123         0.27503566E-06      0.45735588E-02      0.10569508E-12      0.24774760E-08      0.57254547E-19      0.46698115E-10      0.18330997E-20
    0.401722137522         0.28929433E-06      0.45297011E-02      0.10225446E-12      0.25405997E-08      0.57352051E-19      0.47967146E-10      0.18617471E-20
    0.407999045921         0.30414516E-06      0.44928209E-02      0.98550656E-13      0.26085154E-08      0.57218151E-19      0.49270101E-10      0.18903276E-20
    0.414275954320         0.31960641E-06      0.44562239E-02      0.95313930E-13      0.26775975E-08      0.57270987E-19      0.50607562E-10      0.19189344E-20
    0.420552862718         0.33569662E-06      0.44286713E-02      0.92395805E-13      0.27532926E-08      0.57442213E-19      0.51982833E-10      0.19476269E-20
    0.426829771117         0.35243458E-06      0.43994971E-02      0.89087319E-13      0.28293025E-08      0.57291770E-19      0.53396071E-10      0.19762441E-20
    0.433106679516         0.36983933E-06      0.43838512E-02      0.86417696E-13      0.29155907E-08      0.57474267E-19      0.54852410E-10      0.20049526E-20
    0.439383587915         0.38793013E-06      0.43632643E-02      0.83149402E-13      0.30003626E-08      0.57176999E-19      0.56351093E-10      0.20335125E-20
    0.445660496313         0.40672647E-06      0.43687578E-02      0.80522776E-13      0.31053375E-08      0.57236039E-19      0.57902210E-10      0.20621019E-20
    0.451937404712         0.42624802E-06      0.43607589E-02      0.77656446E-13      0.32033080E-08      0.57044546E-19      0.59502264E-10      0.20905957E-20
    0.458214313111         0.44651466E-06      0.44574405E-02      0.75091860E-13      0.33830247E-08      0.56991814E-19      0.61192087E-10      0.21190631E-20
    0.464491221510         0.46754647E-06      0.43104421E-02      0.73120913E-13      0.33792601E-08      0.57324650E-19      0.62880029E-10      0.21476968E-20
    0.470768129909         0.48936365E-06      0.40096738E-02      0.70779123E-13      0.32462819E-08      0.57303661E-19      0.64501548E-10      0.21763200E-20
    0.477045038307         0.51198657E-06      0.40932304E-02      0.68649772E-13      0.34215108E-08      0.57384001E-19      0.66210595E-10      0.22049834E-20
    0.483321946706         0.53543573E-06      0.41874348E-02      0.66252843E-13      0.36130289E-08      0.57164694E-19      0.68015304E-10      0.22335372E-20
    0.489598855105         0.55973174E-06      0.42053964E-02      0.64342365E-13      0.37445447E-08      0.57291356E-19      0.69885706E-10      0.22621542E-20
    0.495875763504         0.58489532E-06      0.42470394E-02      0.62267048E-13      0.39016122E-08      0.57202641E-19      0.71834563E-10      0.22907270E-20
    0.502152671902         0.61094726E-06      0.42672052E-02      0.60131626E-13      0.40435611E-08      0.56980130E-19      0.73854324E-10      0.23191886E-20
    0.508429580301         0.63790841E-06      0.43240867E-02      0.58835925E-13      0.42254644E-08      0.57494016E-19      0.75964946E-10      0.23479069E-20
    0.514706488700         0.66579967E-06      0.43996380E-02      0.56854705E-13      0.44325476E-08      0.57279983E-19      0.78179006E-10      0.23765183E-20
    0.520983397099         0.69464194E-06      0.44300117E-02      0.55077351E-13      0.46003887E-08      0.57195610E-19      0.80476902E-10      0.24050875E-20
    0.527260305498         0.72445614E-06      0.43836564E-02      0.53398279E-13      0.46911149E-08      0.57143498E-19      0.82820116E-10      0.24336307E-20
    0.533537213896         0.75526319E-06      0.44657277E-02      0.51966860E-13      0.49235503E-08      0.57294458E-19      0.85279432E-10      0.24622493E-20
    0.539814122295         0.78708392E-06      0.45462648E-02      0.50104574E-13      0.51627853E-08      0.56899273E-19      0.87858246E-10      0.24906705E-20
    0.546091030694         0.81993914E-06      0.46335756E-02      0.48791944E-13      0.54185785E-08      0.57058091E-19      0.90564829E-10      0.25191711E-20
    0.552367939093         0.85384956E-06      0.46468840E-02      0.47553682E-13      0.55945772E-08      0.57251859E-19      0.93359323E-10      0.25477684E-20
    0.558644847491         0.88883579E-06      0.47793899E-02      0.46144088E-13      0.59225773E-08      0.57181341E-19      0.96317653E-10      0.25763305E-20
    0.564921755890         0.92491828E-06      0.48315664E-02      0.44704337E-13      0.61610617E-08      0.57005566E-19      0.99395106E-10      0.26048048E-20
    0.571198664289         0.96211735E-06      0.49763634E-02      0.43418415E-13      0.65283809E-08      0.56959657E-19      0.10265604E-09      0.26332562E-20
    0.577475572688         0.10004531E-05      0.50118445E-02      0.42088013E-13      0.67625932E-08      0.56790292E-19      0.10603395E-09      0.26616230E-20
    0.583752481087         0.10399456E-05      0.52305540E-02      0.41141593E-13      0.72574176E-08      0.57084148E-19      0.10965904E-09      0.26901365E-20
    0.590029389485         0.10806144E-05      0.52241403E-02      0.40116390E-13      0.74518564E-08      0.57223114E-19      0.11338124E-09      0.27187195E-20
    0.596306297884         0.11224790E-05      0.55111136E-02      0.39087179E-13      0.80798022E-08      0.57305418E-19      0.11741711E-09      0.27473436E-20
    0.602583206283         0.11655585E-05      0.53879386E-02      0.37925627E-13      0.81169383E-08      0.57135019E-19      0.12147152E-09      0.27758826E-20
    0.608860114682         0.12098719E-05      0.57899902E-02      0.36824135E-13      0.89609126E-08      0.56991090E-19      0.12594750E-09      0.28043496E-20
    0.615137023081         0.12554376E-05      0.51850711E-02      0.36023892E-13      0.82419606E-08      0.57261991E-19      0.13006437E-09      0.28329520E-20
    0.621413931479         0.13022739E-05      0.59058848E-02      0.35027932E-13      0.96395964E-08      0.57172656E-19      0.13487935E-09      0.28615098E-20
    0.627690839878         0.13503983E-05      0.23531903E-02      0.34078262E-13      0.39429902E-08      0.57101312E-19      0.13684888E-09      0.28900319E-20
    0.633967748277         0.13998285E-05      0.51825418E-02      0.33070058E-13      0.89125712E-08      0.56871562E-19      0.14130071E-09      0.29184393E-20
    0.640244656676         0.14505812E-05      0.22940907E-01      0.31665762E-13      0.40481743E-07      0.55877705E-19      0.16152136E-09      0.29463503E-20
    0.646521565074         0.15026729E-05      0.23150593E-01      0.31151944E-13      0.41907919E-07      0.56392211E-19      0.18245439E-09      0.29745182E-20
    0.652798473473         0.15561195E-05      0.18845040E-01      0.29875053E-13      0.34987542E-07      0.55465769E-19      0.19993068E-09      0.30022234E-20
    0.659075381872         0.16109365E-05      0.22351981E-01      0.29379276E-13      0.42551210E-07      0.55928990E-19      0.22118503E-09      0.30301599E-20
    0.665352290271         0.16671388E-05      0.24013665E-01      0.27644484E-13      0.46863109E-07      0.53948720E-19      0.24459318E-09      0.30571073E-20
    0.671629198670         0.17247407E-05      0.37111849E-01      0.28922080E-13      0.74226566E-07      0.57846395E-19      0.28166939E-09      0.30860016E-20
    0.677906107068         0.17837558E-05      0.69478242E-01      0.25732133E-13      0.14238597E-06      0.52734418E-19      0.35279125E-09      0.31123425E-20
    0.684183015467         0.18441971E-05      0.18694787E+00      0.25141309E-13      0.39247150E-06      0.52780741E-19      0.54883096E-09      0.31387065E-20
    0.690459923866         0.19060772E-05      0.54970440E+00      0.31196250E-13      0.11819083E-05      0.67074422E-19      0.11391947E-08      0.31722102E-20
    0.696736832265         0.19694076E-05      0.66904512E+00      0.75507585E-14      0.14729052E-05      0.16623022E-19      0.18749116E-08      0.31805134E-20
    0.703013740663         0.20341994E-05      0.33048358E+00      0.23138452E-13      0.74478708E-06      0.52145466E-19      0.22469331E-08      0.32065601E-20
    0.709290649062         0.21004628E-05      0.21338266E+00      0.15676811E-13      0.49215561E-06      0.36157719E-19      0.24927651E-08      0.32246209E-20
    0.715567557461         0.21682073E-05      0.30608470E+00      0.17575861E-13      0.72234443E-06      0.41478145E-19      0.28535765E-08      0.32453393E-20
    0.721844465860         0.22374415E-05      0.36667634E+00      0.24560530E-14      0.88520425E-06      0.59292306E-20      0.32957365E-08      0.32483009E-20
    0.728121374259         0.23081733E-05      0.37707511E+00      0.91128049E-14      0.93099007E-06      0.22499313E-19      0.37607665E-08      0.32595393E-20
    0.734398282657         0.23804097E-05      0.36035417E+00     -0.39634148E-14      0.90970829E-06     -0.10005577E-19      0.42151662E-08      0.32545415E-20
    0.740675191056         0.24541568E-05      0.38292306E+00      0.20308996E-14      0.98818573E-06      0.52410164E-20      0.47087655E-08      0.32571594E-20
    0.746952099455         0.25294198E-05      0.41625952E+00      0.84304140E-14      0.10978548E-05      0.22234615E-19      0.52571445E-08      0.32682656E-20
    0.753229007854         0.26062031E-05      0.47069252E+00     -0.10706390E-13      0.12684433E-05     -0.28852060E-19      0.58907325E-08      0.32538540E-20
    0.759505916252         0.26845099E-05      0.52882681E+00      0.25884453E-13      0.14557938E-05      0.71256647E-19      0.66179023E-08      0.32894468E-20
    0.765782824651         0.27643427E-05      0.44933227E+00      0.83980097E-14      0.12632998E-05      0.23611043E-19      0.72489211E-08      0.33012405E-20
