 
 # eight columns.
 # Omega (column 1); |pulse ft|^2 (2); cross section (Mb) (3); flux (5); flux in
 tegral domega (7)
 
  0.0000      0.190004E-09      0.000000E+00      0.000000E+00     -0.874181E-10     -0.399710E-18     -0.548715E-12     -0.250894E-20
  0.0063      0.221602E-09     -0.244466E-01     -0.182642E-09     -0.534920E-10     -0.399642E-18     -0.884480E-12     -0.501746E-20
  0.0126      0.316496E-09     -0.707276E-03     -0.256287E-09     -0.110516E-11     -0.400462E-18     -0.891417E-12     -0.753112E-20
  0.0188      0.474996E-09      0.259294E-02     -0.255342E-09      0.405376E-11     -0.399198E-18     -0.865972E-12     -0.100369E-19
  0.0251      0.697615E-09      0.278121E-02     -0.231782E-09      0.478946E-11     -0.399146E-18     -0.835909E-12     -0.125423E-19
  0.0314      0.985073E-09      0.285095E-02     -0.205286E-09      0.554606E-11     -0.399350E-18     -0.801097E-12     -0.150489E-19
  0.0377      0.133830E-08      0.280032E-02     -0.180897E-09      0.616746E-11     -0.398411E-18     -0.762384E-12     -0.175497E-19
  0.0439      0.175843E-08      0.274511E-02     -0.161325E-09      0.680900E-11     -0.400153E-18     -0.719645E-12     -0.200615E-19
  0.0502      0.224681E-08      0.262698E-02     -0.144127E-09      0.728500E-11     -0.399686E-18     -0.673917E-12     -0.225702E-19
  0.0565      0.280500E-08      0.251097E-02     -0.129921E-09      0.772733E-11     -0.399823E-18     -0.625414E-12     -0.250799E-19
  0.0628      0.343477E-08      0.221181E-02     -0.117632E-09      0.750142E-11     -0.398952E-18     -0.578328E-12     -0.275841E-19
  0.0690      0.413811E-08      0.196395E-02     -0.107417E-09      0.729521E-11     -0.399008E-18     -0.532537E-12     -0.300886E-19
  0.0753      0.491724E-08      0.211620E-02     -0.986831E-10      0.856238E-11     -0.399282E-18     -0.478791E-12     -0.325949E-19
  0.0816      0.577457E-08      0.223052E-02     -0.909164E-10      0.978317E-11     -0.398764E-18     -0.417383E-12     -0.350979E-19
  0.0879      0.671277E-08      0.207282E-02     -0.844626E-10      0.981367E-11     -0.399885E-18     -0.355784E-12     -0.376079E-19
  0.0942      0.773471E-08      0.193108E-02     -0.785224E-10      0.983216E-11     -0.399800E-18     -0.294068E-12     -0.401174E-19
  0.1004      0.884350E-08      0.181286E-02     -0.733503E-10      0.989383E-11     -0.400316E-18     -0.231965E-12     -0.426302E-19
  0.1067      0.100425E-07      0.170374E-02     -0.683910E-10      0.993788E-11     -0.398923E-18     -0.169586E-12     -0.451342E-19
  0.1130      0.113353E-07      0.162092E-02     -0.641454E-10      0.100790E-10     -0.398862E-18     -0.106321E-12     -0.476378E-19
  0.1193      0.127257E-07      0.154243E-02     -0.605032E-10      0.102007E-10     -0.400132E-18     -0.422921E-13     -0.501494E-19
  0.1255      0.142178E-07      0.151304E-02     -0.569012E-10      0.106207E-10     -0.399412E-18      0.243728E-13     -0.526565E-19
  0.1318      0.158160E-07      0.148224E-02     -0.537032E-10      0.110228E-10     -0.399368E-18      0.935617E-13     -0.551633E-19
  0.1381      0.175247E-07      0.144922E-02     -0.508557E-10      0.113988E-10     -0.400004E-18      0.165111E-12     -0.576741E-19
  0.1444      0.193489E-07      0.141439E-02     -0.481005E-10      0.117488E-10     -0.399552E-18      0.238857E-12     -0.601820E-19
  0.1506      0.212936E-07      0.134567E-02     -0.456032E-10      0.117889E-10     -0.399511E-18      0.312855E-12     -0.626897E-19
  0.1569      0.233642E-07      0.128181E-02     -0.431842E-10      0.118285E-10     -0.398504E-18      0.387102E-12     -0.651911E-19
  0.1632      0.255664E-07      0.125097E-02     -0.411861E-10      0.121462E-10     -0.399893E-18      0.463342E-12     -0.677012E-19
  0.1695      0.279061E-07      0.121992E-02     -0.390351E-10      0.124498E-10     -0.398371E-18      0.541489E-12     -0.702017E-19
  0.1758      0.303895E-07      0.117738E-02     -0.373713E-10      0.126176E-10     -0.400498E-18      0.620689E-12     -0.727156E-19
  0.1820      0.330230E-07      0.113809E-02     -0.355570E-10      0.127966E-10     -0.399798E-18      0.701011E-12     -0.752251E-19
  0.1883      0.358136E-07      0.113134E-02     -0.340025E-10      0.133357E-10     -0.400806E-18      0.784719E-12     -0.777409E-19
  0.1946      0.387682E-07      0.112224E-02     -0.324476E-10      0.138578E-10     -0.400675E-18      0.871703E-12     -0.802559E-19
  0.2009      0.418942E-07      0.109865E-02     -0.309251E-10      0.142024E-10     -0.399772E-18      0.960850E-12     -0.827652E-19
  0.2071      0.451994E-07      0.107940E-02     -0.296563E-10      0.145982E-10     -0.401081E-18      0.105248E-11     -0.852828E-19
  0.2134      0.486917E-07      0.106485E-02     -0.282568E-10      0.150577E-10     -0.399572E-18      0.114700E-11     -0.877909E-19
  0.2197      0.523794E-07      0.104994E-02     -0.269717E-10      0.155151E-10     -0.398564E-18      0.124438E-11     -0.902926E-19
  0.2260      0.562712E-07      0.104365E-02     -0.258673E-10      0.161078E-10     -0.399238E-18      0.134549E-11     -0.927986E-19
  0.2322      0.603761E-07      0.103822E-02     -0.247746E-10      0.167283E-10     -0.399179E-18      0.145049E-11     -0.953042E-19
  0.2385      0.647032E-07      0.103127E-02     -0.237598E-10      0.173385E-10     -0.399468E-18      0.155932E-11     -0.978116E-19
  0.2448      0.692623E-07      0.102603E-02     -0.227083E-10      0.179924E-10     -0.398211E-18      0.167226E-11     -0.100311E-18
  0.2511      0.740633E-07      0.102243E-02     -0.218524E-10      0.186928E-10     -0.399520E-18      0.178959E-11     -0.102819E-18
  0.2574      0.791164E-07      0.102078E-02     -0.209052E-10      0.194497E-10     -0.398322E-18      0.191168E-11     -0.105319E-18
  0.2636      0.844322E-07      0.101922E-02     -0.201070E-10      0.202313E-10     -0.399119E-18      0.203867E-11     -0.107824E-18
  0.2699      0.900218E-07      0.102024E-02     -0.193045E-10      0.210901E-10     -0.399057E-18      0.217105E-11     -0.110329E-18
  0.2762      0.958965E-07      0.101642E-02     -0.186122E-10      0.218735E-10     -0.400539E-18      0.230835E-11     -0.112843E-18
  0.2825      0.102068E-06      0.101725E-02     -0.178581E-10      0.227824E-10     -0.399952E-18      0.245135E-11     -0.115354E-18
  0.2887      0.108548E-06      0.102849E-02     -0.170777E-10      0.239640E-10     -0.397915E-18      0.260177E-11     -0.117852E-18
  0.2950      0.115349E-06      0.104359E-02     -0.165184E-10      0.252896E-10     -0.400294E-18      0.276051E-11     -0.120364E-18
  0.3013      0.122484E-06      0.105061E-02     -0.157928E-10      0.264712E-10     -0.397917E-18      0.292667E-11     -0.122862E-18
  0.3076      0.129965E-06      0.106533E-02     -0.152338E-10      0.279004E-10     -0.398967E-18      0.310180E-11     -0.125366E-18
  0.3138      0.137807E-06      0.108585E-02     -0.146760E-10      0.295508E-10     -0.399397E-18      0.328728E-11     -0.127873E-18
  0.3201      0.146023E-06      0.111591E-02     -0.141406E-10      0.315484E-10     -0.399775E-18      0.348531E-11     -0.130382E-18
  0.3264      0.154626E-06      0.113596E-02     -0.136228E-10      0.333535E-10     -0.399983E-18      0.369467E-11     -0.132893E-18
  0.3327      0.163633E-06      0.117379E-02     -0.130827E-10      0.357833E-10     -0.398830E-18      0.391928E-11     -0.135396E-18
  0.3390      0.173056E-06      0.121462E-02     -0.126415E-10      0.384352E-10     -0.400026E-18      0.416053E-11     -0.137907E-18
  0.3452      0.182912E-06      0.128547E-02     -0.121295E-10      0.422123E-10     -0.398308E-18      0.442549E-11     -0.140408E-18
  0.3515      0.193215E-06      0.133879E-02     -0.117423E-10      0.456103E-10     -0.400039E-18      0.471178E-11     -0.142919E-18
  0.3578      0.203983E-06      0.146758E-02     -0.112848E-10      0.518582E-10     -0.398759E-18      0.503729E-11     -0.145422E-18
  0.3641      0.215230E-06      0.159914E-02     -0.109207E-10      0.585946E-10     -0.400147E-18      0.540509E-11     -0.147933E-18
  0.3703      0.226973E-06      0.202997E-02     -0.105481E-10      0.771095E-10     -0.400675E-18      0.588909E-11     -0.150448E-18
  0.3766      0.239229E-06      0.248038E-02     -0.101234E-10      0.976513E-10     -0.398555E-18      0.650204E-11     -0.152950E-18
  0.3829      0.252016E-06     -0.237434E-02     -0.979839E-11     -0.968582E-10     -0.399714E-18      0.589407E-11     -0.155459E-18
  0.3892      0.265349E-06     -0.710542E-02     -0.943849E-11     -0.300271E-09     -0.398865E-18      0.400930E-11     -0.157963E-18
  0.3954      0.279249E-06     -0.356269E-02     -0.912314E-11     -0.155928E-09     -0.399293E-18      0.303055E-11     -0.160469E-18
  0.4017      0.293731E-06     -0.135565E-03     -0.881730E-11     -0.614349E-11     -0.399579E-18      0.299199E-11     -0.162977E-18
  0.4080      0.308815E-06      0.160055E-03     -0.854013E-11      0.750847E-11     -0.400632E-18      0.303912E-11     -0.165492E-18
  0.4143      0.324519E-06      0.367886E-03     -0.824991E-11      0.178610E-10     -0.400536E-18      0.315123E-11     -0.168006E-18
  0.4206      0.340861E-06      0.483753E-03     -0.793861E-11      0.243010E-10     -0.398790E-18      0.330377E-11     -0.170509E-18
  0.4268      0.357862E-06      0.466894E-03     -0.771132E-11      0.242617E-10     -0.400712E-18      0.345606E-11     -0.173024E-18
  0.4331      0.375540E-06      0.511690E-03     -0.740546E-11      0.274987E-10     -0.397975E-18      0.362866E-11     -0.175522E-18
  0.4394      0.393915E-06      0.254441E-03     -0.719060E-11      0.141381E-10     -0.399546E-18      0.371741E-11     -0.178030E-18
  0.4457      0.413007E-06      0.206269E-03     -0.696175E-11      0.118476E-10     -0.399866E-18      0.379177E-11     -0.180540E-18
  0.4519      0.432835E-06     -0.746384E-03     -0.674808E-11     -0.443047E-10     -0.400560E-18      0.351367E-11     -0.183054E-18
  0.4582      0.453421E-06     -0.104177E-02     -0.652730E-11     -0.638921E-10     -0.400321E-18      0.311263E-11     -0.185567E-18
  0.4645      0.474783E-06     -0.581042E-02     -0.628780E-11     -0.368102E-09     -0.398345E-18      0.802088E-12     -0.188068E-18
  0.4708      0.496943E-06     -0.609654E-02     -0.610467E-11     -0.398865E-09     -0.399397E-18     -0.170155E-11     -0.190575E-18
  0.4770      0.519922E-06      0.131030E+00     -0.590019E-11      0.885097E-08     -0.398554E-18      0.538552E-10     -0.193076E-18
  0.4833      0.543740E-06      0.242410E+00     -0.573460E-11      0.169024E-07     -0.399853E-18      0.159950E-09     -0.195586E-18
  0.4896      0.568418E-06      0.129219E+00     -0.555306E-11      0.929816E-08     -0.399579E-18      0.218314E-09     -0.198094E-18
  0.4959      0.593978E-06      0.390440E-01     -0.538158E-11      0.289864E-08     -0.399530E-18      0.236508E-09     -0.200602E-18
  0.5022      0.620439E-06      0.561386E-01     -0.522265E-11      0.429900E-08     -0.399942E-18      0.263493E-09     -0.203112E-18
  0.5084      0.647825E-06      0.113866E+00     -0.505232E-11      0.899215E-08     -0.398988E-18      0.319936E-09     -0.205617E-18
  0.5147      0.676155E-06      0.108842E+01     -0.490191E-11      0.886184E-07     -0.399112E-18      0.876185E-09     -0.208122E-18
  0.5210      0.705451E-06      0.330893E+01     -0.488023E-11      0.277698E-06     -0.409568E-18      0.261927E-08     -0.210693E-18
  0.5273      0.735734E-06      0.416511E+01     -0.470261E-11      0.360218E-06     -0.406703E-18      0.488032E-08     -0.213246E-18
  0.5335      0.767026E-06      0.324708E+01     -0.447709E-11      0.289321E-06     -0.398918E-18      0.669637E-08     -0.215750E-18
  0.5398      0.799348E-06      0.327232E+01     -0.446264E-11      0.300324E-06     -0.409568E-18      0.858147E-08     -0.218320E-18
  0.5461      0.832720E-06      0.440575E+01     -0.429456E-11      0.416386E-06     -0.405878E-18      0.111951E-07     -0.220868E-18
  0.5524      0.867164E-06      0.560438E+01     -0.438232E-11      0.545310E-06     -0.426402E-18      0.146179E-07     -0.223545E-18
  0.5586      0.902701E-06      0.648862E+01     -0.417688E-11      0.649835E-06     -0.418314E-18      0.186969E-07     -0.226170E-18
  0.5649      0.939351E-06      0.721945E+01     -0.434058E-11      0.744023E-06     -0.447332E-18      0.233671E-07     -0.228978E-18
  0.5712      0.977135E-06      0.875256E+01     -0.415107E-11      0.927994E-06     -0.440119E-18      0.291920E-07     -0.231741E-18
  0.5775      0.101607E-05      0.119035E+02     -0.462583E-11      0.129811E-05     -0.504457E-18      0.373401E-07     -0.234907E-18
  0.5838      0.105619E-05      0.219181E+02     -0.362934E-11      0.245787E-05     -0.406990E-18      0.527679E-07     -0.237462E-18
  0.5900      0.109750E-05      0.382080E+02     -0.279477E-11      0.440480E-05     -0.322195E-18      0.804164E-07     -0.239484E-18
  0.5963      0.114002E-05      0.396005E+02     -0.410489E-11      0.469231E-05     -0.486393E-18      0.109870E-06     -0.242537E-18
  0.6026      0.118378E-05      0.207152E+02     -0.324076E-11      0.252223E-05     -0.394587E-18      0.125701E-06     -0.245014E-18
  0.6089      0.122879E-05      0.528278E+01     -0.336959E-11      0.660792E-06     -0.421482E-18      0.129849E-06     -0.247660E-18
  0.6151      0.127507E-05      0.182989E+01     -0.312571E-11      0.235088E-06     -0.401564E-18      0.131325E-06     -0.250180E-18
  0.6214      0.132264E-05      0.174559E+01     -0.311123E-11      0.230275E-06     -0.410427E-18      0.132770E-06     -0.252756E-18
  0.6277      0.137153E-05      0.205700E+01     -0.300527E-11      0.278571E-06     -0.406990E-18      0.134519E-06     -0.255311E-18
  0.6340      0.142173E-05      0.299746E+01     -0.306901E-11      0.416627E-06     -0.426571E-18      0.137134E-06     -0.257989E-18
  0.6402      0.147328E-05      0.424371E+01     -0.297487E-11      0.605241E-06     -0.424279E-18      0.140933E-06     -0.260652E-18
  0.6465      0.152619E-05      0.509135E+01     -0.284415E-11      0.744908E-06     -0.416123E-18      0.145609E-06     -0.263264E-18
  0.6528      0.158048E-05      0.515925E+01     -0.295774E-11      0.774175E-06     -0.443827E-18      0.150468E-06     -0.266050E-18
  0.6591      0.163616E-05      0.886730E+01     -0.293253E-11      0.136435E-05     -0.451207E-18      0.159032E-06     -0.268882E-18
  0.6654      0.169325E-05      0.139783E+02     -0.356406E-11      0.220478E-05     -0.562156E-18      0.172871E-06     -0.272410E-18
  0.6716      0.175175E-05      0.112326E+02     -0.243343E-11      0.181580E-05     -0.393374E-18      0.184269E-06     -0.274880E-18
  0.6779      0.181170E-05      0.540558E+01     -0.259099E-11      0.895367E-06     -0.429166E-18      0.189889E-06     -0.277573E-18
  0.6842      0.187309E-05      0.575812E+01     -0.241566E-11      0.977033E-06     -0.409888E-18      0.196022E-06     -0.280146E-18
  0.6905      0.193594E-05      0.126755E+02     -0.219849E-11      0.220273E-05     -0.382050E-18      0.209848E-06     -0.282544E-18
  0.6967      0.200027E-05      0.199174E+02     -0.279036E-11      0.354401E-05     -0.496503E-18      0.232093E-06     -0.285661E-18
  0.7030      0.206608E-05      0.203141E+02     -0.232764E-11      0.370018E-05     -0.423976E-18      0.255319E-06     -0.288322E-18
  0.7093      0.213338E-05      0.172613E+02     -0.287889E-11      0.321782E-05     -0.536677E-18      0.275517E-06     -0.291691E-18
  0.7156      0.220219E-05      0.168595E+02     -0.246024E-11      0.321581E-05     -0.469272E-18      0.295702E-06     -0.294636E-18
  0.7218      0.227251E-05      0.183050E+02     -0.311734E-11      0.357169E-05     -0.608260E-18      0.318122E-06     -0.298454E-18
  0.7281      0.234436E-05      0.194503E+02     -0.272517E-11      0.388140E-05     -0.543821E-18      0.342485E-06     -0.301868E-18
  0.7344      0.241773E-05      0.196899E+02     -0.341316E-11      0.401756E-05     -0.696426E-18      0.367703E-06     -0.306239E-18
  0.7407      0.249263E-05      0.194765E+02     -0.293946E-11      0.406242E-05     -0.613114E-18      0.393202E-06     -0.310088E-18
  0.7470      0.256908E-05      0.192648E+02     -0.249040E-11      0.410669E-05     -0.530880E-18      0.418979E-06     -0.313420E-18
  0.7532      0.264706E-05      0.192210E+02     -0.314292E-11      0.418655E-05     -0.684563E-18      0.445258E-06     -0.317717E-18
  0.7595      0.272660E-05      0.193530E+02     -0.160922E-11      0.430608E-05     -0.358054E-18      0.472287E-06     -0.319964E-18
  0.7658      0.280769E-05      0.195527E+02     -0.228637E-11      0.444318E-05     -0.519556E-18      0.500176E-06     -0.323226E-18
  0.7721      0.289032E-05      0.197492E+02     -0.183250E-11      0.458234E-05     -0.425189E-18      0.528939E-06     -0.325894E-18
  0.7783      0.297451E-05      0.198833E+02     -0.253159E-11      0.470955E-05     -0.599633E-18      0.558501E-06     -0.329658E-18
  0.7846      0.306025E-05      0.199642E+02     -0.207676E-11      0.482611E-05     -0.502031E-18      0.588794E-06     -0.332810E-18
  0.7909      0.314754E-05      0.200095E+02     -0.277971E-11      0.493553E-05     -0.685641E-18      0.619774E-06     -0.337113E-18
  0.7972      0.323638E-05      0.200464E+02     -0.233590E-11      0.504415E-05     -0.587769E-18      0.651435E-06     -0.340803E-18
  0.8034      0.332675E-05      0.200941E+02     -0.188270E-11      0.515675E-05     -0.483157E-18      0.683804E-06     -0.343835E-18
  0.8097      0.341867E-05      0.201550E+02     -0.259237E-11      0.527407E-05     -0.678361E-18      0.716909E-06     -0.348093E-18
  0.8160      0.351211E-05      0.202289E+02     -0.213968E-11      0.539628E-05     -0.570783E-18      0.750781E-06     -0.351676E-18
  0.8223      0.360708E-05      0.203046E+02     -0.286098E-11      0.552047E-05     -0.777851E-18      0.785432E-06     -0.356559E-18
  0.8286      0.370356E-05      0.203782E+02     -0.240578E-11      0.564558E-05     -0.666498E-18      0.820869E-06     -0.360742E-18
  0.8348      0.380155E-05      0.204411E+02     -0.311049E-11      0.576914E-05     -0.877879E-18      0.857081E-06     -0.366253E-18
  0.8411      0.390103E-05      0.204956E+02     -0.266190E-11      0.589159E-05     -0.765179E-18      0.894062E-06     -0.371055E-18
  0.8474      0.400200E-05      0.205394E+02     -0.338231E-11      0.601213E-05     -0.990041E-18      0.931800E-06     -0.377270E-18
  0.8537      0.410443E-05      0.205785E+02     -0.176974E-11      0.613233E-05     -0.527375E-18      0.970292E-06     -0.380580E-18
  0.8599      0.420832E-05      0.206129E+02     -0.131294E-11      0.625206E-05     -0.398227E-18      0.100954E-05     -0.383080E-18
  0.8662      0.431364E-05      0.206470E+02     -0.204673E-11      0.637262E-05     -0.631717E-18      0.104954E-05     -0.387045E-18
  0.8725      0.442038E-05      0.206798E+02     -0.158847E-11      0.649363E-05     -0.498795E-18      0.109030E-05     -0.390176E-18
  0.8788      0.452853E-05      0.207130E+02     -0.230962E-11      0.661560E-05     -0.737677E-18      0.113182E-05     -0.394806E-18
  0.8850      0.463805E-05      0.207449E+02     -0.185779E-11      0.673789E-05     -0.603407E-18      0.117411E-05     -0.398594E-18
  0.8913      0.474894E-05      0.207753E+02     -0.258497E-11      0.686045E-05     -0.853614E-18      0.121718E-05     -0.403952E-18
  0.8976      0.486117E-05      0.208031E+02     -0.214628E-11      0.698279E-05     -0.720422E-18      0.126101E-05     -0.408474E-18
  0.9039      0.497470E-05      0.208273E+02     -0.168830E-11      0.710453E-05     -0.575906E-18      0.130560E-05     -0.412089E-18
  0.9102      0.508953E-05      0.208484E+02     -0.243649E-11      0.722571E-05     -0.844447E-18      0.135096E-05     -0.417389E-18
  0.9164      0.520562E-05      0.208663E+02     -0.198044E-11      0.734619E-05     -0.697235E-18      0.139707E-05     -0.421766E-18
