 
 # eight columns.
 # Omega (column 1); |pulse ft|^2 (2); cross section (Mb) (3); flux (5); flux in
 tegral domega (7)
 
  0.0000      0.761303E-13      0.000000E+00      0.000000E+00      0.000000E+00      0.000000E+00      0.000000E+00      0.000000E+00
  0.0063      0.348741E-10      0.521828E-01     -0.185025E-09      0.179602E-10     -0.636815E-19      0.112791E-12     -0.399923E-21
  0.0126      0.139374E-09      0.336296E-01      0.251480E-10      0.231288E-10      0.172956E-19      0.258041E-12     -0.291305E-21
  0.0188      0.313895E-09      0.111343E-01      0.385658E-10      0.114975E-10      0.398240E-19      0.330246E-12     -0.412086E-22
  0.0251      0.558968E-09      0.750988E-02      0.294526E-11      0.103571E-10      0.406191E-20      0.395289E-12     -0.156996E-22
  0.0314      0.875338E-09      0.534285E-02      0.759186E-11      0.923122E-11      0.131170E-19      0.453261E-12      0.666756E-22
  0.0377      0.126396E-08      0.442540E-02      0.290285E-11      0.920061E-11      0.603516E-20      0.511042E-12      0.104577E-21
  0.0440      0.172602E-08      0.377217E-02      0.987849E-11      0.917952E-11      0.240392E-19      0.568689E-12      0.255544E-21
  0.0502      0.226291E-08      0.335003E-02      0.212995E-11      0.935202E-11      0.594600E-20      0.627421E-12      0.292885E-21
  0.0565      0.287622E-08      0.302212E-02      0.143247E-11      0.953174E-11      0.451800E-20      0.687280E-12      0.321258E-21
  0.0628      0.356781E-08      0.259566E-02      0.252854E-11      0.913965E-11      0.890329E-20      0.744678E-12      0.377171E-21
  0.0691      0.433971E-08      0.225056E-02      0.265540E-11      0.876271E-11      0.103390E-19      0.799708E-12      0.442100E-21
  0.0754      0.519422E-08      0.232662E-02      0.112231E-11      0.993905E-11      0.479435E-20      0.862126E-12      0.472209E-21
  0.0816      0.613383E-08      0.238685E-02      0.311937E-11      0.111146E-10      0.145256E-19      0.931926E-12      0.563431E-21
  0.0879      0.716128E-08      0.220027E-02      0.288728E-11      0.111076E-10      0.145758E-19      0.100168E-11      0.654967E-21
  0.0942      0.827955E-08      0.204001E-02      0.142012E-11      0.111129E-10      0.773606E-20      0.107147E-11      0.703550E-21
  0.1005      0.949185E-08      0.190593E-02      0.760601E-12      0.111588E-10      0.445315E-20      0.114155E-11      0.731516E-21
  0.1068      0.108016E-07      0.178874E-02      0.124708E-11      0.112167E-10      0.782013E-20      0.121199E-11      0.780627E-21
  0.1130      0.122125E-07      0.169685E-02      0.130158E-11      0.113621E-10      0.871531E-20      0.128334E-11      0.835359E-21
  0.1193      0.137286E-07      0.161550E-02      0.124888E-11      0.115202E-10      0.890579E-20      0.135569E-11      0.891288E-21
  0.1256      0.153539E-07      0.157875E-02      0.370578E-11      0.119614E-10      0.280768E-19      0.143081E-11      0.106761E-20
  0.1319      0.170929E-07      0.154546E-02      0.271832E-11      0.124146E-10      0.218363E-19      0.150877E-11      0.120474E-20
  0.1382      0.189504E-07      0.150913E-02      0.249387E-11      0.128293E-10      0.212007E-19      0.158934E-11      0.133789E-20
  0.1444      0.209314E-07      0.147597E-02      0.249461E-11      0.132564E-10      0.224053E-19      0.167259E-11      0.147859E-20
  0.1507      0.230409E-07      0.141020E-02      0.237512E-11      0.133613E-10      0.225036E-19      0.175650E-11      0.161992E-20
  0.1570      0.252846E-07      0.135123E-02      0.291361E-11      0.134873E-10      0.290822E-19      0.184120E-11      0.180255E-20
  0.1633      0.276682E-07      0.132065E-02      0.240828E-11      0.138699E-10      0.252926E-19      0.192831E-11      0.196139E-20
  0.1696      0.301978E-07      0.129295E-02      0.208301E-11      0.142716E-10      0.229924E-19      0.201793E-11      0.210579E-20
  0.1758      0.328798E-07      0.125219E-02      0.220064E-11      0.145117E-10      0.255036E-19      0.210907E-11      0.226595E-20
  0.1821      0.357207E-07      0.121575E-02      0.207618E-11      0.147791E-10      0.252388E-19      0.220188E-11      0.242445E-20
  0.1884      0.387275E-07      0.120910E-02      0.189100E-11      0.154042E-10      0.240919E-19      0.229862E-11      0.257575E-20
  0.1947      0.419075E-07      0.120324E-02      0.182092E-11      0.160532E-10      0.242941E-19      0.239944E-11      0.272832E-20
  0.2010      0.452681E-07      0.118058E-02      0.170484E-11      0.164823E-10      0.238015E-19      0.250295E-11      0.287779E-20
  0.2072      0.488172E-07      0.116081E-02      0.139740E-11      0.169473E-10      0.204014E-19      0.260938E-11      0.300591E-20
  0.2135      0.525629E-07      0.114771E-02      0.157134E-11      0.175110E-10      0.239745E-19      0.271935E-11      0.315647E-20
  0.2198      0.565137E-07      0.113684E-02      0.850943E-12      0.181161E-10      0.135602E-19      0.283312E-11      0.324163E-20
  0.2261      0.606784E-07      0.113172E-02      0.931438E-12      0.188256E-10      0.154941E-19      0.295134E-11      0.333894E-20
  0.2324      0.650660E-07      0.112842E-02      0.796121E-12      0.195841E-10      0.138169E-19      0.307433E-11      0.342571E-20
  0.2386      0.696860E-07      0.112281E-02      0.817032E-12      0.203211E-10      0.147870E-19      0.320195E-11      0.351857E-20
  0.2449      0.745481E-07      0.111960E-02      0.872767E-12      0.211209E-10      0.164646E-19      0.333459E-11      0.362197E-20
  0.2512      0.796623E-07      0.111708E-02      0.661187E-12      0.219562E-10      0.129956E-19      0.347247E-11      0.370358E-20
  0.2575      0.850391E-07      0.111728E-02      0.684743E-12      0.228706E-10      0.140166E-19      0.361610E-11      0.379161E-20
  0.2638      0.906893E-07      0.111671E-02      0.736952E-12      0.237973E-10      0.157046E-19      0.376555E-11      0.389023E-20
  0.2700      0.966238E-07      0.111949E-02      0.681328E-12      0.248266E-10      0.151096E-19      0.392146E-11      0.398512E-20
  0.2763      0.102854E-06      0.111695E-02      0.633004E-12      0.257680E-10      0.146035E-19      0.408329E-11      0.407683E-20
  0.2826      0.109392E-06      0.111928E-02      0.625559E-12      0.268528E-10      0.150079E-19      0.425192E-11      0.417108E-20
  0.2889      0.116249E-06      0.113055E-02      0.663171E-12      0.281971E-10      0.165401E-19      0.442900E-11      0.427495E-20
  0.2952      0.123439E-06      0.114691E-02      0.609009E-12      0.297279E-10      0.157855E-19      0.461570E-11      0.437409E-20
  0.3014      0.130973E-06      0.115477E-02      0.594923E-12      0.310968E-10      0.160207E-19      0.481098E-11      0.447470E-20
  0.3077      0.138866E-06      0.117081E-02      0.529218E-12      0.327466E-10      0.148017E-19      0.501663E-11      0.456765E-20
  0.3140      0.147129E-06      0.119149E-02      0.543924E-12      0.346018E-10      0.157960E-19      0.523394E-11      0.466685E-20
  0.3203      0.155778E-06      0.122331E-02      0.575023E-12      0.368767E-10      0.173341E-19      0.546552E-11      0.477571E-20
  0.3266      0.164826E-06      0.124426E-02      0.543037E-12      0.389237E-10      0.169876E-19      0.570997E-11      0.488239E-20
  0.3328      0.174288E-06      0.128444E-02      0.433309E-12      0.416855E-10      0.140627E-19      0.597175E-11      0.497071E-20
  0.3391      0.184178E-06      0.132525E-02      0.497736E-12      0.446091E-10      0.167542E-19      0.625190E-11      0.507593E-20
  0.3454      0.194512E-06      0.140062E-02      0.533296E-12      0.488859E-10      0.186137E-19      0.655890E-11      0.519282E-20
  0.3517      0.205305E-06      0.145394E-02      0.509068E-12      0.526063E-10      0.184191E-19      0.688927E-11      0.530849E-20
  0.3580      0.216573E-06      0.159135E-02      0.494215E-12      0.596725E-10      0.185321E-19      0.726402E-11      0.542488E-20
  0.3642      0.228332E-06      0.172013E-02      0.413442E-12      0.668314E-10      0.160632E-19      0.768372E-11      0.552575E-20
  0.3705      0.240598E-06      0.219763E-02      0.466463E-12      0.884452E-10      0.187731E-19      0.823916E-11      0.564365E-20
  0.3768      0.253388E-06      0.258183E-02      0.419645E-12      0.107607E-09      0.174903E-19      0.891494E-11      0.575349E-20
  0.3831      0.266719E-06     -0.220138E-02      0.411824E-12     -0.949943E-10      0.177711E-19      0.831837E-11      0.586509E-20
  0.3894      0.280608E-06     -0.651897E-02      0.432718E-12     -0.291184E-09      0.193283E-19      0.648973E-11      0.598648E-20
  0.3956      0.295073E-06     -0.306463E-02      0.375425E-12     -0.141660E-09      0.173537E-19      0.560010E-11      0.609546E-20
  0.4019      0.310131E-06      0.472562E-05      0.396909E-12      0.225998E-12      0.189817E-19      0.560152E-11      0.621466E-20
  0.4082      0.325801E-06      0.279866E-03      0.380289E-12      0.138443E-10      0.188119E-19      0.568846E-11      0.633280E-20
  0.4145      0.342101E-06      0.488890E-03      0.381632E-12      0.250093E-10      0.195225E-19      0.584552E-11      0.645540E-20
  0.4208      0.359050E-06      0.619121E-03      0.362266E-12      0.327443E-10      0.191596E-19      0.605115E-11      0.657573E-20
  0.4270      0.376666E-06      0.597173E-03      0.328389E-12      0.326458E-10      0.179521E-19      0.625617E-11      0.668847E-20
  0.4333      0.394969E-06      0.679830E-03      0.344986E-12      0.384056E-10      0.194893E-19      0.649736E-11      0.681086E-20
  0.4396      0.413977E-06      0.404440E-03      0.269114E-12      0.236054E-10      0.157071E-19      0.664560E-11      0.690950E-20
  0.4459      0.433711E-06      0.452240E-03      0.294772E-12      0.272641E-10      0.177709E-19      0.681682E-11      0.702110E-20
  0.4522      0.454189E-06     -0.574499E-03      0.276940E-12     -0.357662E-10      0.172413E-19      0.659221E-11      0.712938E-20
  0.4584      0.475432E-06     -0.542317E-03      0.254484E-12     -0.348577E-10      0.163571E-19      0.637330E-11      0.723210E-20
  0.4647      0.497460E-06     -0.583337E-02      0.237532E-12     -0.387013E-09      0.157590E-19      0.394284E-11      0.733107E-20
  0.4710      0.520292E-06     -0.277898E-02      0.248900E-12     -0.190262E-09      0.170409E-19      0.274799E-11      0.743809E-20
  0.4773      0.543949E-06      0.133900E+00      0.233340E-12      0.945816E-08      0.164822E-19      0.621457E-10      0.754160E-20
  0.4836      0.568452E-06      0.231752E+00      0.252271E-12      0.168852E-07      0.183802E-19      0.168186E-09      0.765703E-20
  0.4898      0.593819E-06      0.117165E+00      0.211752E-12      0.880315E-08      0.159099E-19      0.223470E-09      0.775694E-20
  0.4961      0.620073E-06      0.366827E-01      0.225947E-12      0.284156E-08      0.175026E-19      0.241315E-09      0.786686E-20
  0.5024      0.647234E-06      0.537863E-01      0.228500E-12      0.429461E-08      0.182447E-19      0.268285E-09      0.798143E-20
  0.5087      0.675322E-06      0.121852E+00      0.221970E-12      0.100263E-07      0.182642E-19      0.331251E-09      0.809613E-20
  0.5150      0.704357E-06      0.112606E+01      0.200469E-12      0.954602E-07      0.169944E-19      0.930745E-09      0.820286E-20
  0.5212      0.734361E-06      0.327635E+01      0.684607E-13      0.286089E-06      0.597796E-20      0.272740E-08      0.824040E-20
  0.5275      0.765353E-06      0.400139E+01     -0.121341E-13      0.359810E-06     -0.109111E-20      0.498702E-08      0.823355E-20
  0.5338      0.797355E-06      0.310132E+01      0.146890E-12      0.287117E-06      0.135989E-19      0.679013E-08      0.831895E-20
  0.5401      0.830387E-06      0.319669E+01      0.113130E-12      0.304622E-06      0.107805E-19      0.870317E-08      0.838665E-20
  0.5464      0.864469E-06      0.431544E+01      0.331648E-13      0.423190E-06      0.325228E-20      0.113608E-07      0.840708E-20
  0.5526      0.899621E-06      0.547508E+01      0.190990E-12      0.552392E-06      0.192693E-19      0.148299E-07      0.852809E-20
  0.5589      0.935863E-06      0.632006E+01     -0.249738E-12      0.655878E-06     -0.259171E-19      0.189488E-07      0.836533E-20
  0.5652      0.973215E-06      0.705442E+01     -0.150006E-14      0.752848E-06     -0.160086E-21      0.236767E-07      0.836432E-20
  0.5715      0.101170E-05      0.860321E+01     -0.159418E-12      0.943952E-06     -0.174915E-19      0.296048E-07      0.825448E-20
  0.5778      0.105133E-05      0.118643E+02     -0.446458E-12      0.133805E-05     -0.503513E-19      0.380078E-07      0.793827E-20
  0.5840      0.109213E-05      0.222307E+02     -0.485630E-13      0.257647E-05     -0.562830E-20      0.541882E-07      0.790292E-20
  0.5903      0.113412E-05      0.380002E+02     -0.712133E-12      0.452476E-05     -0.847952E-19      0.826039E-07      0.737041E-20
  0.5966      0.117731E-05      0.379609E+02     -0.124497E-11      0.464284E-05     -0.152267E-18      0.111761E-06      0.641416E-20
  0.6029      0.122173E-05      0.190012E+02     -0.821371E-12      0.238652E-05     -0.103163E-18      0.126749E-06      0.576629E-20
  0.6092      0.126739E-05      0.468301E+01      0.116502E-12      0.603871E-06      0.150228E-19      0.130541E-06      0.586064E-20
  0.6154      0.131432E-05      0.175559E+01      0.897566E-13      0.232369E-06      0.118801E-19      0.132000E-06      0.593524E-20
  0.6217      0.136252E-05      0.170228E+01      0.643580E-13      0.231216E-06      0.874155E-20      0.133452E-06      0.599014E-20
  0.6280      0.141201E-05      0.204268E+01      0.217361E-13      0.284655E-06      0.302900E-20      0.135240E-06      0.600916E-20
  0.6343      0.146282E-05      0.297660E+01     -0.618341E-13      0.425469E-06     -0.883845E-20      0.137912E-06      0.595366E-20
  0.6406      0.151495E-05      0.419602E+01     -0.197619E-12      0.615057E-06     -0.289672E-19      0.141774E-06      0.577174E-20
  0.6468      0.156842E-05      0.496000E+01     -0.622325E-13      0.745397E-06     -0.935241E-20      0.146456E-06      0.571301E-20
  0.6531      0.162326E-05      0.509173E+01     -0.141448E-12      0.784330E-06     -0.217886E-19      0.151381E-06      0.557617E-20
  0.6594      0.167946E-05      0.899313E+01     -0.427002E-15      0.141962E-05     -0.674047E-22      0.160296E-06      0.557575E-20
  0.6657      0.173705E-05      0.137540E+02     -0.219225E-12      0.222441E-05     -0.354549E-19      0.174266E-06      0.535309E-20
  0.6720      0.179604E-05      0.106306E+02     -0.901469E-12      0.176104E-05     -0.149335E-18      0.185325E-06      0.441526E-20
  0.6782      0.185644E-05      0.509794E+01     -0.189230E-12      0.864830E-06     -0.321015E-19      0.190756E-06      0.421366E-20
  0.6845      0.191826E-05      0.585858E+01     -0.309403E-12      0.101754E-05     -0.537384E-19      0.197147E-06      0.387618E-20
  0.6908      0.198152E-05      0.128565E+02     -0.197535E-12      0.228564E-05     -0.351179E-19      0.211501E-06      0.365564E-20
  0.6971      0.204622E-05      0.197018E+02     -0.616873E-12      0.358438E-05     -0.112229E-18      0.234011E-06      0.295084E-20
  0.7034      0.211237E-05      0.197223E+02      0.220534E-12      0.367104E-05      0.410495E-19      0.257065E-06      0.320863E-20
  0.7096      0.217999E-05      0.167917E+02     -0.463773E-13      0.319706E-05     -0.883002E-20      0.277143E-06      0.315318E-20
  0.7159      0.224908E-05      0.165781E+02     -0.122412E-11      0.322786E-05     -0.238343E-18      0.297414E-06      0.165637E-20
  0.7222      0.231965E-05      0.180326E+02     -0.559704E-12      0.358974E-05     -0.111420E-18      0.319958E-06      0.956649E-21
  0.7285      0.239171E-05      0.191192E+02     -0.867222E-12      0.389045E-05     -0.176466E-18      0.344390E-06     -0.151563E-21
  0.7348      0.246525E-05      0.193203E+02     -0.505661E-13      0.401762E-05     -0.105151E-19      0.369621E-06     -0.217598E-21
  0.7410      0.254029E-05      0.191121E+02     -0.327407E-12      0.406060E-05     -0.695617E-19      0.395121E-06     -0.654449E-21
  0.7473      0.261683E-05      0.189202E+02     -0.166816E-11      0.410616E-05     -0.362031E-18      0.420908E-06     -0.292802E-20
  0.7536      0.269488E-05      0.188994E+02     -0.848206E-12      0.418876E-05     -0.187992E-18      0.447214E-06     -0.410862E-20
  0.7599      0.277442E-05      0.190449E+02     -0.111790E-11      0.430970E-05     -0.252970E-18      0.474279E-06     -0.569728E-20
  0.7662      0.285548E-05      0.192519E+02     -0.308145E-12      0.444706E-05     -0.711794E-19      0.502207E-06     -0.614429E-20
  0.7724      0.293803E-05      0.194526E+02     -0.599308E-12      0.458574E-05     -0.141280E-18      0.531005E-06     -0.703154E-20
  0.7787      0.302210E-05      0.195904E+02     -0.883304E-12      0.471205E-05     -0.212460E-18      0.560597E-06     -0.836579E-20
  0.7850      0.310766E-05      0.196773E+02     -0.370869E-13      0.482802E-05     -0.909964E-20      0.590917E-06     -0.842294E-20
  0.7913      0.319472E-05      0.197300E+02     -0.143385E-11      0.493707E-05     -0.358795E-18      0.621922E-06     -0.106762E-19
  0.7976      0.328328E-05      0.197764E+02     -0.594942E-12      0.504581E-05     -0.151795E-18      0.653610E-06     -0.116295E-19
  0.8038      0.337333E-05      0.198336E+02     -0.880095E-12      0.515857E-05     -0.228906E-18      0.686006E-06     -0.130670E-19
  0.8101      0.346486E-05      0.199041E+02     -0.116766E-11      0.527616E-05     -0.309523E-18      0.719141E-06     -0.150108E-19
  0.8164      0.355786E-05      0.199869E+02     -0.358360E-12      0.539847E-05     -0.967932E-19      0.753043E-06     -0.156187E-19
  0.8227      0.365233E-05      0.200711E+02     -0.637410E-12      0.552268E-05     -0.175387E-18      0.787726E-06     -0.167201E-19
  0.8290      0.374826E-05      0.201527E+02      0.221280E-12      0.564765E-05      0.620124E-19      0.823194E-06     -0.163307E-19
  0.8352      0.384563E-05      0.202235E+02     -0.121836E-11      0.577102E-05     -0.347674E-18      0.859436E-06     -0.185141E-19
  0.8415      0.394444E-05      0.202861E+02     -0.151093E-11      0.589329E-05     -0.438940E-18      0.896446E-06     -0.212707E-19
  0.8478      0.404466E-05      0.203381E+02     -0.646956E-12      0.601365E-05     -0.191295E-18      0.934212E-06     -0.224720E-19
  0.8541      0.414629E-05      0.203857E+02     -0.934170E-12      0.613376E-05     -0.281078E-18      0.972732E-06     -0.242372E-19
  0.8604      0.424931E-05      0.204285E+02     -0.629766E-13      0.625337E-05     -0.192778E-19      0.101200E-05     -0.243582E-19
  0.8666      0.435370E-05      0.204714E+02     -0.152017E-11      0.637391E-05     -0.473316E-18      0.105203E-05     -0.273307E-19
  0.8729      0.445944E-05      0.205126E+02     -0.181889E-11      0.649482E-05     -0.575906E-18      0.109282E-05     -0.309474E-19
  0.8792      0.456652E-05      0.205546E+02     -0.940155E-12      0.661677E-05     -0.302647E-18      0.113437E-05     -0.328481E-19
  0.8855      0.467491E-05      0.205947E+02     -0.123103E-11      0.673890E-05     -0.402811E-18      0.117669E-05     -0.353777E-19
  0.8918      0.478459E-05      0.206336E+02     -0.353509E-12      0.686138E-05     -0.117554E-18      0.121978E-05     -0.361160E-19
  0.8980      0.489554E-05      0.206693E+02     -0.647980E-12      0.698347E-05     -0.218931E-18      0.126364E-05     -0.374909E-19
  0.9043      0.500773E-05      0.207023E+02     -0.212186E-11      0.710521E-05     -0.728241E-18      0.130826E-05     -0.420642E-19
  0.9106      0.512114E-05      0.207317E+02     -0.124614E-11      0.722625E-05     -0.434356E-18      0.135364E-05     -0.447920E-19
  0.9169      0.523574E-05      0.207579E+02     -0.153923E-11      0.734663E-05     -0.544765E-18      0.139978E-05     -0.482132E-19
