 
 # six columns.
 # Omega (column 1); |pulse ft|^2 (2); cross section (Mb) (3); flux (column 5)
 
  0.0000      0.103411E-10      0.000000E+00      0.000000E+00      0.748104E-07      0.169407E-20
  0.0063      0.406993E-10      0.149700E+02      0.179791E-11      0.755987E-07      0.907950E-20
  0.0126      0.131874E-09      0.933878E+01     -0.120054E-11      0.764058E-07     -0.982225E-20
  0.0188      0.284166E-09      0.657076E+01      0.142986E-11      0.772276E-07      0.168055E-19
  0.0251      0.498076E-09      0.505277E+01     -0.598362E-12      0.780677E-07     -0.924498E-20
  0.0314      0.774308E-09      0.410737E+01     -0.313603E-12      0.789249E-07     -0.602601E-20
  0.0377      0.111377E-08      0.346460E+01      0.253590E-12      0.797999E-07      0.584093E-20
  0.0439      0.151756E-08      0.299978E+01      0.150921E-12      0.806945E-07      0.405980E-20
  0.0502      0.198701E-08      0.264796E+01      0.199986E-12      0.816070E-07      0.616332E-20
  0.0565      0.252362E-08      0.237237E+01     -0.514005E-13      0.825414E-07     -0.178836E-20
  0.0628      0.312914E-08      0.215040E+01      0.268360E-12      0.834934E-07      0.104196E-19
  0.0690      0.380551E-08      0.196777E+01     -0.231505E-12      0.844699E-07     -0.993775E-20
  0.0753      0.455488E-08      0.181461E+01     -0.202949E-12      0.854646E-07     -0.955849E-20
  0.0816      0.537962E-08      0.168434E+01      0.246840E-12      0.864857E-07      0.126745E-19
  0.0879      0.628233E-08      0.157195E+01     -0.888981E-13      0.875263E-07     -0.494985E-20
  0.0942      0.726582E-08      0.147404E+01      0.963381E-16      0.885949E-07      0.579026E-23
  0.1004      0.833314E-08      0.138779E+01     -0.698743E-13      0.896847E-07     -0.451558E-20
  0.1067      0.948756E-08      0.131127E+01      0.338761E-13      0.908038E-07      0.234588E-20
  0.1130      0.107326E-07      0.124279E+01     -0.708397E-13      0.919467E-07     -0.524102E-20
  0.1193      0.120720E-07      0.118117E+01     -0.132685E-12      0.931198E-07     -0.104605E-19
  0.1255      0.135097E-07      0.112533E+01     -0.846277E-13      0.943196E-07     -0.709307E-20
  0.1318      0.150500E-07      0.107451E+01     -0.152832E-13      0.955507E-07     -0.135906E-20
  0.1381      0.166973E-07      0.102801E+01      0.449279E-13      0.968118E-07      0.423103E-20
  0.1444      0.184564E-07      0.985294E+00     -0.312531E-13      0.981053E-07     -0.311185E-20
  0.1506      0.203324E-07      0.945899E+00      0.128374E-12      0.994324E-07      0.134946E-19
  0.1569      0.223303E-07      0.909432E+00     -0.477659E-13      0.100793E-06     -0.529396E-20
  0.1632      0.244559E-07      0.875585E+00     -0.384559E-13      0.102192E-06     -0.448828E-20
  0.1695      0.267149E-07      0.844057E+00      0.552078E-13      0.103626E-06      0.677792E-20
  0.1758      0.291133E-07      0.814640E+00     -0.123165E-12      0.105101E-06     -0.158901E-19
  0.1820      0.316576E-07      0.787097E+00     -0.869119E-13      0.106614E-06     -0.117724E-19
  0.1883      0.343544E-07      0.761288E+00     -0.109222E-12      0.108173E-06     -0.155196E-19
  0.1946      0.372107E-07      0.737021E+00     -0.678670E-13      0.109772E-06     -0.101081E-19
  0.2009      0.402337E-07      0.714202E+00     -0.131133E-12      0.111421E-06     -0.204578E-19
  0.2071      0.434310E-07      0.692678E+00     -0.935871E-13      0.113116E-06     -0.152830E-19
  0.2134      0.468103E-07      0.672374E+00     -0.381555E-13      0.114863E-06     -0.651818E-20
  0.2197      0.503800E-07      0.653169E+00      0.175804E-13      0.116660E-06      0.313998E-20
  0.2260      0.541485E-07      0.635016E+00      0.242347E-13      0.118516E-06      0.452302E-20
  0.2322      0.581245E-07      0.617812E+00     -0.184512E-13      0.120426E-06     -0.359658E-20
  0.2385      0.623173E-07      0.601520E+00      0.943098E-15      0.122400E-06      0.191906E-21
  0.2448      0.667362E-07      0.586058E+00      0.938109E-14      0.124436E-06      0.199185E-20
  0.2511      0.713911E-07      0.571396E+00     -0.335716E-13      0.126540E-06     -0.743470E-20
  0.2574      0.762921E-07      0.557470E+00      0.267405E-13      0.128714E-06      0.617408E-20
  0.2636      0.814497E-07      0.544254E+00     -0.521826E-13      0.130963E-06     -0.125566E-19
  0.2699      0.868745E-07      0.531698E+00     -0.652013E-14      0.133290E-06     -0.163451E-20
  0.2762      0.925779E-07      0.519779E+00     -0.743051E-13      0.135700E-06     -0.193990E-19
  0.2825      0.985713E-07      0.508459E+00     -0.195385E-13      0.138198E-06     -0.531050E-20
  0.2887      0.104866E-06      0.497716E+00     -0.293478E-13      0.140788E-06     -0.830158E-20
  0.2950      0.111476E-06      0.487523E+00     -0.370898E-13      0.143477E-06     -0.109155E-19
  0.3013      0.118411E-06      0.477859E+00      0.945824E-14      0.146271E-06      0.289513E-20
  0.3076      0.125686E-06      0.468706E+00     -0.414588E-13      0.149176E-06     -0.131952E-19
  0.3138      0.133314E-06      0.460045E+00      0.141016E-14      0.152199E-06      0.466530E-21
  0.3201      0.141308E-06      0.451864E+00     -0.495543E-13      0.155350E-06     -0.170366E-19
  0.3264      0.149682E-06      0.444147E+00     -0.340074E-13      0.158635E-06     -0.121463E-19
  0.3327      0.158450E-06      0.436885E+00     -0.366500E-13      0.162065E-06     -0.135955E-19
  0.3390      0.167627E-06      0.430069E+00     -0.449783E-13      0.165652E-06     -0.173245E-19
  0.3452      0.177228E-06      0.423691E+00      0.457624E-14      0.169405E-06      0.182972E-20
  0.3515      0.187269E-06      0.417751E+00     -0.297430E-13      0.173341E-06     -0.123415E-19
  0.3578      0.197764E-06      0.412235E+00     -0.131886E-13      0.177469E-06     -0.567777E-20
  0.3641      0.208730E-06      0.407162E+00     -0.152490E-13      0.181815E-06     -0.680935E-20
  0.3703      0.220183E-06      0.402497E+00     -0.484310E-13      0.186381E-06     -0.224265E-19
  0.3766      0.232140E-06      0.398307E+00     -0.192429E-13      0.191216E-06     -0.923795E-20
  0.3829      0.244617E-06      0.394270E+00     -0.433289E-13      0.196181E-06     -0.215596E-19
  0.3892      0.257632E-06      0.390858E+00     -0.980546E-14      0.201528E-06     -0.505573E-20
  0.3954      0.271203E-06      0.388360E+00     -0.486880E-13      0.207441E-06     -0.260066E-19
  0.4017      0.285347E-06      0.386117E+00     -0.622005E-15      0.213609E-06     -0.344107E-21
  0.4080      0.300082E-06      0.384274E+00     -0.135274E-13      0.220127E-06     -0.774903E-20
  0.4143      0.315427E-06      0.383049E+00     -0.181112E-13      0.227151E-06     -0.107401E-19
  0.4206      0.331400E-06      0.382330E+00     -0.517544E-15      0.234651E-06     -0.317637E-21
  0.4268      0.348020E-06      0.382359E+00     -0.159954E-13      0.242814E-06     -0.101578E-19
  0.4331      0.365307E-06      0.382924E+00     -0.189379E-14      0.251552E-06     -0.124408E-20
  0.4394      0.383280E-06      0.384498E+00     -0.298438E-13      0.261228E-06     -0.202759E-19
  0.4457      0.401958E-06      0.386552E+00     -0.109086E-13      0.271542E-06     -0.766300E-20
  0.4519      0.421362E-06      0.390175E+00     -0.260449E-13      0.283327E-06     -0.189127E-19
  0.4582      0.441511E-06      0.393753E+00     -0.165424E-13      0.295495E-06     -0.124143E-19
  0.4645      0.462426E-06      0.400566E+00      0.267980E-14      0.310593E-06      0.207788E-20
  0.4708      0.484126E-06      0.403272E+00     -0.169206E-13      0.323000E-06     -0.135525E-19
  0.4770      0.506633E-06      0.427716E+00      0.366412E-14      0.353787E-06      0.303079E-20
  0.4833      0.529967E-06      0.480749E+00     -0.110031E-13      0.410567E-06     -0.939677E-20
  0.4896      0.554149E-06      0.483731E+00     -0.113952E-13      0.426425E-06     -0.100453E-19
  0.4959      0.579200E-06      0.493338E+00     -0.202803E-13      0.448800E-06     -0.184494E-19
  0.5022      0.605141E-06      0.528512E+00     -0.183876E-13      0.496053E-06     -0.172583E-19
  0.5084      0.631993E-06      0.590354E+00     -0.574164E-15      0.571539E-06     -0.555865E-21
  0.5147      0.659776E-06      0.760906E+00     -0.737065E-14      0.759662E-06     -0.735860E-20
  0.5210      0.688513E-06      0.114399E+01     -0.412491E-13      0.117750E-05     -0.424575E-19
  0.5273      0.718224E-06      0.161577E+01     -0.345302E-13      0.171422E-05     -0.366342E-19
  0.5335      0.748930E-06      0.219649E+01      0.784452E-14      0.240136E-05      0.857621E-20
  0.5398      0.780652E-06      0.400828E+01     -0.137433E-12      0.451465E-05     -0.154795E-18
  0.5461      0.813412E-06      0.588132E+01     -0.741085E-13      0.682296E-05     -0.859738E-19
  0.5524      0.847230E-06      0.610085E+01     -0.292482E-12      0.728812E-05     -0.349401E-18
  0.5586      0.882128E-06      0.648795E+01     -0.202832E-12      0.797914E-05     -0.249451E-18
  0.5649      0.918125E-06      0.764457E+01     -0.497525E-12      0.967652E-05     -0.629769E-18
  0.5712      0.955242E-06      0.103136E+02     -0.463997E-12      0.134335E-04     -0.604358E-18
  0.5775      0.993501E-06      0.133925E+02     -0.107780E-11      0.179452E-04     -0.144419E-17
  0.5838      0.103292E-05      0.206879E+02     -0.565455E-13      0.285106E-04     -0.779270E-19
  0.5900      0.107352E-05      0.362259E+02      0.637190E-12      0.513344E-04      0.902937E-18
  0.5963      0.111532E-05      0.377840E+02     -0.693097E-12      0.550415E-04     -0.100966E-17
  0.6026      0.115834E-05      0.192269E+02      0.294193E-13      0.287859E-04      0.440457E-19
  0.6089      0.120260E-05      0.606016E+01     -0.207856E-12      0.932266E-05     -0.319755E-18
  0.6151      0.124812E-05      0.343535E+01     -0.411380E-13      0.542884E-05     -0.650098E-19
  0.6214      0.129491E-05      0.295072E+01     -0.140261E-12      0.478892E-05     -0.227640E-18
  0.6277      0.134299E-05      0.305757E+01     -0.828527E-13      0.509516E-05     -0.138066E-18
  0.6340      0.139239E-05      0.393860E+01     -0.246594E-12      0.673735E-05     -0.421822E-18
  0.6402      0.144312E-05      0.488960E+01     -0.204577E-12      0.858385E-05     -0.359142E-18
  0.6465      0.149519E-05      0.630220E+01     -0.141547E-12      0.113516E-04     -0.254957E-18
  0.6528      0.154863E-05      0.613379E+01     -0.361936E-12      0.113331E-04     -0.668733E-18
  0.6591      0.160344E-05      0.867566E+01     -0.330797E-12      0.164389E-04     -0.626804E-18
  0.6654      0.165964E-05      0.146419E+02     -0.109087E-11      0.284455E-04     -0.211928E-17
  0.6716      0.171725E-05      0.115720E+02      0.433853E-13      0.230445E-04      0.863974E-19
  0.6779      0.177628E-05      0.519909E+01     -0.168719E-12      0.106102E-04     -0.344319E-18
  0.6842      0.183675E-05      0.543262E+01     -0.530690E-13      0.113590E-04     -0.110961E-18
  0.6905      0.189866E-05      0.112458E+02      0.957092E-13      0.240853E-04      0.204982E-18
  0.6967      0.196203E-05      0.167420E+02     -0.459576E-12      0.367195E-04     -0.100797E-17
  0.7030      0.202687E-05      0.153289E+02     -0.106374E-12      0.344211E-04     -0.238863E-18
  0.7093      0.209319E-05      0.147304E+02     -0.627223E-12      0.338573E-04     -0.144165E-17
  0.7156      0.216100E-05      0.187115E+02     -0.409092E-12      0.440114E-04     -0.962229E-18
  0.7218      0.223031E-05      0.204551E+02     -0.118971E-11      0.492238E-04     -0.286297E-17
  0.7281      0.230113E-05      0.195192E+02     -0.726783E-12      0.480453E-04     -0.178893E-17
  0.7344      0.237346E-05      0.187924E+02     -0.139584E-11      0.473024E-04     -0.351349E-17
  0.7407      0.244730E-05      0.191822E+02     -0.101640E-11      0.493642E-04     -0.261564E-17
  0.7470      0.252268E-05      0.197816E+02     -0.636305E-12      0.520334E-04     -0.167374E-17
  0.7532      0.259958E-05      0.199754E+02     -0.136004E-11      0.536939E-04     -0.365579E-17
  0.7595      0.267802E-05      0.199986E+02      0.189997E-12      0.549205E-04      0.521772E-18
  0.7658      0.275799E-05      0.198751E+02     -0.531463E-12      0.557506E-04     -0.149078E-17
  0.7721      0.283950E-05      0.199356E+02     -0.118281E-12      0.571050E-04     -0.338813E-18
  0.7783      0.292255E-05      0.200396E+02     -0.857324E-12      0.586052E-04     -0.250722E-17
  0.7846      0.300714E-05      0.202167E+02     -0.434720E-12      0.603476E-04     -0.129765E-17
  0.7909      0.309326E-05      0.203374E+02     -0.118456E-11      0.619508E-04     -0.360836E-17
  0.7972      0.318091E-05      0.204150E+02     -0.760959E-12      0.634459E-04     -0.236492E-17
  0.8034      0.327009E-05      0.204591E+02     -0.333471E-12      0.648549E-04     -0.105710E-17
  0.8097      0.336080E-05      0.204849E+02     -0.108268E-11      0.662208E-04     -0.349994E-17
  0.8160      0.345302E-05      0.205410E+02     -0.654842E-12      0.676993E-04     -0.215824E-17
  0.8223      0.354676E-05      0.205897E+02     -0.141297E-11      0.691699E-04     -0.474677E-17
  0.8286      0.364199E-05      0.206736E+02     -0.981748E-12      0.707763E-04     -0.336103E-17
  0.8348      0.373872E-05      0.207259E+02     -0.172126E-11      0.722923E-04     -0.600377E-17
  0.8411      0.383693E-05      0.207982E+02     -0.129406E-11      0.738945E-04     -0.459769E-17
  0.8474      0.393661E-05      0.208286E+02     -0.204043E-11      0.753625E-04     -0.738274E-17
  0.8537      0.403775E-05      0.208783E+02     -0.435945E-12      0.769133E-04     -0.160597E-17
  0.8599      0.414033E-05      0.208964E+02      0.271057E-14      0.783597E-04      0.101644E-19
  0.8662      0.424433E-05      0.209378E+02     -0.767961E-12      0.799040E-04     -0.293073E-17
  0.8725      0.434975E-05      0.209590E+02     -0.324599E-12      0.813815E-04     -0.126039E-17
  0.8788      0.445655E-05      0.209990E+02     -0.107567E-11      0.829422E-04     -0.424872E-17
  0.8850      0.456472E-05      0.210236E+02     -0.639334E-12      0.844520E-04     -0.256820E-17
  0.8913      0.467425E-05      0.210571E+02     -0.139526E-11      0.860061E-04     -0.569884E-17
  0.8976      0.478510E-05      0.210793E+02     -0.962900E-12      0.875219E-04     -0.399800E-17
  0.9039      0.489725E-05      0.211012E+02     -0.523494E-12      0.890437E-04     -0.220906E-17
  0.9102      0.501068E-05      0.211187E+02     -0.130221E-11      0.905530E-04     -0.558364E-17
  0.9164      0.512537E-05      0.211305E+02     -0.857162E-12      0.920428E-04     -0.373372E-17
  0.9227      0.524128E-05      0.211466E+02     -0.161744E-11      0.935552E-04     -0.715573E-17
  0.9290      0.535839E-05      0.211505E+02     -0.117654E-11      0.950168E-04     -0.528549E-17
  0.9353      0.547667E-05      0.211670E+02     -0.193597E-11      0.965377E-04     -0.882947E-17
  0.9415      0.559608E-05      0.211617E+02     -0.300085E-12      0.979603E-04     -0.138913E-17
  0.9478      0.571660E-05      0.211773E+02     -0.106170E-11      0.994806E-04     -0.498733E-17
  0.9541      0.583818E-05      0.211519E+02     -0.635561E-12      0.100807E-03     -0.302899E-17
  0.9604      0.596080E-05      0.211582E+02     -0.186433E-12      0.102282E-03     -0.901243E-18
  0.9666      0.608441E-05      0.210625E+02     -0.952368E-12      0.103256E-03     -0.466885E-17
  0.9729      0.620899E-05      0.211740E+02     -0.513967E-12      0.105244E-03     -0.255465E-17
  0.9792      0.633449E-05      0.216883E+02     -0.130457E-11      0.109275E-03     -0.657298E-17
  0.9855      0.646087E-05      0.218361E+02     -0.867901E-12      0.111499E-03     -0.443168E-17
  0.9918      0.658808E-05      0.216416E+02     -0.163847E-11      0.111969E-03     -0.847711E-17
  0.9980      0.671610E-05      0.218581E+02     -0.121403E-11      0.114562E-03     -0.636291E-17
  1.0043      0.684487E-05      0.211669E+02     -0.193398E-11      0.112360E-03     -0.102660E-16
  1.0106      0.697435E-05      0.203127E+02     -0.143340E-11      0.109182E-03     -0.770461E-17
  1.0169      0.710449E-05      0.211380E+02     -0.105226E-11      0.115024E-03     -0.572594E-17
  1.0231      0.723525E-05      0.217258E+02     -0.185901E-11      0.119660E-03     -0.102389E-16
  1.0294      0.736657E-05      0.214072E+02     -0.177507E-12      0.119313E-03     -0.989334E-18
  1.0357      0.749841E-05      0.211001E+02     -0.933725E-12      0.118981E-03     -0.526516E-17
  1.0420      0.763073E-05      0.212327E+02     -0.172145E-11      0.121107E-03     -0.981881E-17
  1.0482      0.776346E-05      0.215448E+02     -0.657859E-13      0.124276E-03     -0.379471E-18
  1.0545      0.789655E-05      0.214712E+02     -0.836542E-12      0.125225E-03     -0.487891E-17
  1.0608      0.802996E-05      0.211448E+02     -0.158612E-11      0.124663E-03     -0.935124E-17
  1.0671      0.816362E-05      0.209671E+02      0.591362E-13      0.124934E-03      0.352366E-18
  1.0734      0.829749E-05      0.209464E+02     -0.703417E-12      0.126115E-03     -0.423516E-17
  1.0796      0.843150E-05      0.209020E+02     -0.145496E-11      0.127136E-03     -0.884980E-17
  1.0859      0.856560E-05      0.208724E+02     -0.221701E-11      0.128231E-03     -0.136203E-16
  1.0922      0.869974E-05      0.208228E+02     -0.593098E-12      0.129182E-03     -0.367951E-17
  1.0985      0.883385E-05      0.207958E+02     -0.133069E-11      0.130255E-03     -0.833480E-17
  1.1047      0.896787E-05      0.207636E+02     -0.207711E-11      0.131276E-03     -0.131324E-16
  1.1110      0.910176E-05      0.207433E+02     -0.281647E-11      0.132354E-03     -0.179707E-16
  1.1173      0.923543E-05      0.207187E+02     -0.120939E-11      0.133385E-03     -0.778593E-17
  1.1236      0.936885E-05      0.206997E+02     -0.195846E-11      0.134432E-03     -0.127190E-16
  1.1298      0.950193E-05      0.206866E+02     -0.271461E-11      0.135499E-03     -0.177809E-16
  1.1361      0.963463E-05      0.206864E+02     -0.110187E-11      0.136631E-03     -0.727771E-17
  1.1424      0.976688E-05      0.207155E+02     -0.184602E-11      0.137939E-03     -0.122921E-16
  1.1487      0.989861E-05      0.207872E+02     -0.259878E-11      0.139517E-03     -0.174421E-16
  1.1550      0.100298E-04      0.209568E+02     -0.337229E-11      0.141744E-03     -0.228089E-16
  1.1612      0.101603E-04      0.213050E+02      0.640376E-12      0.145185E-03      0.436391E-17
  1.1675      0.102901E-04      0.220322E+02     -0.132276E-12      0.151241E-03     -0.908019E-18
  1.1738      0.104191E-04      0.231752E+02     -0.991913E-12      0.160221E-03     -0.685758E-17
  1.1801      0.105474E-04      0.238451E+02      0.839083E-12      0.165994E-03      0.584114E-17
  1.1863      0.106747E-04      0.233060E+02     -0.232061E-13      0.163330E-03     -0.162630E-18
  1.1926      0.108010E-04      0.223192E+02     -0.826172E-12      0.157434E-03     -0.582759E-17
  1.1989      0.109264E-04      0.216112E+02     -0.156943E-11      0.153401E-03     -0.111402E-16
  1.2052      0.110506E-04      0.211739E+02      0.986807E-13      0.151214E-03      0.704731E-18
  1.2114      0.111737E-04      0.208865E+02     -0.658415E-12      0.150042E-03     -0.472983E-17
  1.2177      0.112956E-04      0.206900E+02     -0.141255E-11      0.149477E-03     -0.102051E-16
  1.2240      0.114161E-04      0.205402E+02      0.199624E-12      0.149209E-03      0.145012E-17
  1.2303      0.115354E-04      0.204246E+02     -0.540046E-12      0.149154E-03     -0.394379E-17
  1.2366      0.116532E-04      0.203263E+02     -0.127035E-11      0.149192E-03     -0.932414E-17
  1.2428      0.117696E-04      0.202436E+02     -0.198630E-11      0.149310E-03     -0.146503E-16
  1.2491      0.118844E-04      0.201687E+02     -0.420647E-12      0.149454E-03     -0.311708E-17
  1.2554      0.119976E-04      0.201018E+02     -0.115071E-11      0.149626E-03     -0.856520E-17
