 
 # six columns.
 # Omega (column 1); |pulse ft|^2 (2); cross section (Mb) (3); flux (column 5)
 
  0.0000      0.103411E-10      0.000000E+00      0.000000E+00      0.986033E-07     -0.128749E-18
  0.0063      0.406993E-10      0.178666E+02     -0.260252E-10      0.902270E-07     -0.131428E-18
  0.0126      0.131874E-09      0.977370E+01     -0.149320E-10      0.799641E-07     -0.122167E-18
  0.0188      0.284166E-09      0.668666E+01     -0.953150E-11      0.785898E-07     -0.112026E-18
  0.0251      0.498076E-09      0.509533E+01     -0.841089E-11      0.787254E-07     -0.129952E-18
  0.0314      0.774308E-09      0.412189E+01     -0.699774E-11      0.792039E-07     -0.134465E-18
  0.0377      0.111377E-08      0.346931E+01     -0.558075E-11      0.799085E-07     -0.128541E-18
  0.0439      0.151756E-08      0.299885E+01     -0.471279E-11      0.806696E-07     -0.126775E-18
  0.0502      0.198701E-08      0.264506E+01     -0.437937E-11      0.815176E-07     -0.134967E-18
  0.0565      0.252362E-08      0.236789E+01     -0.344866E-11      0.823855E-07     -0.119988E-18
  0.0628      0.312914E-08      0.214547E+01     -0.282461E-11      0.833019E-07     -0.109671E-18
  0.0690      0.380551E-08      0.196212E+01     -0.285866E-11      0.842270E-07     -0.122713E-18
  0.0753      0.455488E-08      0.180938E+01     -0.264771E-11      0.852183E-07     -0.124702E-18
  0.0816      0.537962E-08      0.167915E+01     -0.243322E-11      0.862194E-07     -0.124939E-18
  0.0879      0.628233E-08      0.156690E+01     -0.232786E-11      0.872453E-07     -0.129615E-18
  0.0942      0.726582E-08      0.146893E+01     -0.212424E-11      0.882877E-07     -0.127675E-18
  0.1004      0.833314E-08      0.138289E+01     -0.195075E-11      0.893682E-07     -0.126066E-18
  0.1067      0.948756E-08      0.130636E+01     -0.161637E-11      0.904636E-07     -0.111932E-18
  0.1130      0.107326E-07      0.123811E+01     -0.177138E-11      0.916004E-07     -0.131054E-18
  0.1193      0.120720E-07      0.117651E+01     -0.170300E-11      0.927525E-07     -0.134260E-18
  0.1255      0.135097E-07      0.112092E+01     -0.158314E-11      0.939498E-07     -0.132691E-18
  0.1318      0.150500E-07      0.107018E+01     -0.142168E-11      0.951653E-07     -0.126422E-18
  0.1381      0.166973E-07      0.102387E+01     -0.131809E-11      0.964219E-07     -0.124130E-18
  0.1444      0.184564E-07      0.981242E+00     -0.125401E-11      0.977018E-07     -0.124861E-18
  0.1506      0.203324E-07      0.941973E+00     -0.105664E-11      0.990197E-07     -0.111074E-18
  0.1569      0.223303E-07      0.905555E+00     -0.110189E-11      0.100364E-06     -0.122123E-18
  0.1632      0.244559E-07      0.871851E+00     -0.113773E-11      0.101756E-06     -0.132787E-18
  0.1695      0.267149E-07      0.840395E+00     -0.995680E-12      0.103176E-06     -0.122241E-18
  0.1758      0.291133E-07      0.811090E+00     -0.111025E-11      0.104643E-06     -0.143240E-18
  0.1820      0.316576E-07      0.783603E+00     -0.103332E-11      0.106141E-06     -0.139966E-18
  0.1883      0.343544E-07      0.757921E+00     -0.106703E-11      0.107694E-06     -0.151616E-18
  0.1946      0.372107E-07      0.733737E+00     -0.873318E-12      0.109283E-06     -0.130072E-18
  0.2009      0.402337E-07      0.711010E+00     -0.868707E-12      0.110923E-06     -0.135525E-18
  0.2071      0.434310E-07      0.689545E+00     -0.999705E-12      0.112604E-06     -0.163254E-18
  0.2134      0.468103E-07      0.669333E+00     -0.759914E-12      0.114344E-06     -0.129818E-18
  0.2197      0.503800E-07      0.650192E+00     -0.655746E-12      0.116128E-06     -0.117121E-18
  0.2260      0.541485E-07      0.632128E+00     -0.629625E-12      0.117977E-06     -0.117509E-18
  0.2322      0.581245E-07      0.614988E+00     -0.661622E-12      0.119876E-06     -0.128966E-18
  0.2385      0.623173E-07      0.598776E+00     -0.523582E-12      0.121842E-06     -0.106541E-18
  0.2448      0.667362E-07      0.583372E+00     -0.556336E-12      0.123865E-06     -0.118125E-18
  0.2511      0.713911E-07      0.568787E+00     -0.594175E-12      0.125962E-06     -0.131585E-18
  0.2574      0.762921E-07      0.554915E+00     -0.494756E-12      0.128123E-06     -0.114234E-18
  0.2636      0.814497E-07      0.541773E+00     -0.466549E-12      0.130366E-06     -0.112265E-18
  0.2699      0.868745E-07      0.529267E+00     -0.492692E-12      0.132680E-06     -0.123511E-18
  0.2762      0.925779E-07      0.517420E+00     -0.547714E-12      0.135084E-06     -0.142993E-18
  0.2825      0.985713E-07      0.506139E+00     -0.472661E-12      0.137567E-06     -0.128468E-18
  0.2887      0.104866E-06      0.495483E+00     -0.450452E-12      0.140157E-06     -0.127419E-18
  0.2950      0.111476E-06      0.485334E+00     -0.478929E-12      0.142833E-06     -0.140948E-18
  0.3013      0.118411E-06      0.475757E+00     -0.358397E-12      0.145628E-06     -0.109704E-18
  0.3076      0.125686E-06      0.466636E+00     -0.401427E-12      0.148517E-06     -0.127763E-18
  0.3138      0.133314E-06      0.458083E+00     -0.389733E-12      0.151550E-06     -0.128938E-18
  0.3201      0.141308E-06      0.449934E+00     -0.379910E-12      0.154686E-06     -0.130612E-18
  0.3264      0.149682E-06      0.442338E+00     -0.374442E-12      0.157989E-06     -0.133739E-18
  0.3327      0.158450E-06      0.435092E+00     -0.354726E-12      0.161400E-06     -0.131588E-18
  0.3390      0.167627E-06      0.428443E+00     -0.369842E-12      0.165025E-06     -0.142454E-18
  0.3452      0.177228E-06      0.422067E+00     -0.290372E-12      0.168756E-06     -0.116100E-18
  0.3515      0.187269E-06      0.416355E+00     -0.306090E-12      0.172762E-06     -0.127009E-18
  0.3578      0.197764E-06      0.410787E+00     -0.275946E-12      0.176846E-06     -0.118796E-18
  0.3641      0.208730E-06      0.406117E+00     -0.282885E-12      0.181349E-06     -0.126320E-18
  0.3703      0.220183E-06      0.401228E+00     -0.280454E-12      0.185793E-06     -0.129867E-18
  0.3766      0.232140E-06      0.398071E+00     -0.266244E-12      0.191102E-06     -0.127816E-18
  0.3829      0.244617E-06      0.390062E+00     -0.273033E-12      0.194088E-06     -0.135856E-18
  0.3892      0.257632E-06      0.382342E+00     -0.233637E-12      0.197137E-06     -0.120464E-18
  0.3954      0.271203E-06      0.384491E+00     -0.238869E-12      0.205375E-06     -0.127591E-18
  0.4017      0.285347E-06      0.384949E+00     -0.217403E-12      0.212963E-06     -0.120272E-18
  0.4080      0.300082E-06      0.383050E+00     -0.231722E-12      0.219426E-06     -0.132739E-18
  0.4143      0.315427E-06      0.382802E+00     -0.221631E-12      0.227005E-06     -0.131429E-18
  0.4206      0.331400E-06      0.382000E+00     -0.197432E-12      0.234449E-06     -0.121172E-18
  0.4268      0.348020E-06      0.383171E+00     -0.219830E-12      0.243329E-06     -0.139602E-18
  0.4331      0.365307E-06      0.383510E+00     -0.187667E-12      0.251937E-06     -0.123283E-18
  0.4394      0.383280E-06      0.386943E+00     -0.197696E-12      0.262889E-06     -0.134314E-18
  0.4457      0.401958E-06      0.388351E+00     -0.199935E-12      0.272806E-06     -0.140449E-18
  0.4519      0.421362E-06      0.395675E+00     -0.177193E-12      0.287322E-06     -0.128670E-18
  0.4582      0.441511E-06      0.397231E+00     -0.175670E-12      0.298104E-06     -0.131833E-18
  0.4645      0.462426E-06      0.414306E+00     -0.170142E-12      0.321246E-06     -0.131925E-18
  0.4708      0.484126E-06      0.408110E+00     -0.166579E-12      0.326874E-06     -0.133421E-18
  0.4770      0.506633E-06      0.543956E+00     -0.169013E-12      0.449935E-06     -0.139800E-18
  0.4833      0.529967E-06      0.695429E+00     -0.158661E-12      0.593906E-06     -0.135499E-18
  0.4896      0.554149E-06      0.575910E+00     -0.165419E-12      0.507684E-06     -0.145822E-18
  0.4959      0.579200E-06      0.546375E+00     -0.150211E-12      0.497049E-06     -0.136650E-18
  0.5022      0.605141E-06      0.631002E+00     -0.152628E-12      0.592248E-06     -0.143254E-18
  0.5084      0.631993E-06      0.752236E+00     -0.140342E-12      0.728262E-06     -0.135869E-18
  0.5147      0.659776E-06      0.150800E+01     -0.137497E-12      0.150554E-05     -0.137272E-18
  0.5210      0.688513E-06      0.375080E+01     -0.267039E-12      0.386068E-05     -0.274862E-18
  0.5273      0.718224E-06      0.466914E+01     -0.207980E-12      0.495363E-05     -0.220652E-18
  0.5335      0.748930E-06      0.366410E+01     -0.109823E-12      0.400586E-05     -0.120067E-18
  0.5398      0.780652E-06      0.392887E+01     -0.242905E-12      0.442521E-05     -0.273592E-18
  0.5461      0.813412E-06      0.505936E+01     -0.173224E-12      0.586940E-05     -0.200959E-18
  0.5524      0.847230E-06      0.623713E+01     -0.404156E-12      0.745093E-05     -0.482809E-18
  0.5586      0.882128E-06      0.723935E+01     -0.325427E-12      0.890324E-05     -0.400223E-18
  0.5649      0.918125E-06      0.802684E+01     -0.620317E-12      0.101604E-04     -0.785200E-18
  0.5712      0.955242E-06      0.980025E+01     -0.531304E-12      0.127649E-04     -0.692026E-18
  0.5775      0.993501E-06      0.127989E+02     -0.112584E-11      0.171498E-04     -0.150857E-17
  0.5838      0.103292E-05      0.207554E+02     -0.145051E-12      0.286036E-04     -0.199900E-18
  0.5900      0.107352E-05      0.364810E+02      0.557093E-12      0.516958E-04      0.789435E-18
  0.5963      0.111532E-05      0.384250E+02     -0.795434E-12      0.559753E-04     -0.115874E-17
  0.6026      0.115834E-05      0.196237E+02     -0.520495E-13      0.293800E-04     -0.779270E-19
  0.6089      0.120260E-05      0.606705E+01     -0.281913E-12      0.933325E-05     -0.433681E-18
  0.6151      0.124812E-05      0.350175E+01     -0.120734E-12      0.553375E-05     -0.190794E-18
  0.6214      0.129491E-05      0.295070E+01     -0.215676E-12      0.478890E-05     -0.350036E-18
  0.6277      0.134299E-05      0.301917E+01     -0.155031E-12      0.503117E-05     -0.258345E-18
  0.6340      0.139239E-05      0.389817E+01     -0.318889E-12      0.666819E-05     -0.545489E-18
  0.6402      0.144312E-05      0.489568E+01     -0.270920E-12      0.859453E-05     -0.475609E-18
  0.6465      0.149519E-05      0.604524E+01     -0.202210E-12      0.108888E-04     -0.364224E-18
  0.6528      0.154863E-05      0.578314E+01     -0.400445E-12      0.106852E-04     -0.739883E-18
  0.6591      0.160344E-05      0.880329E+01     -0.403215E-12      0.166807E-04     -0.764024E-18
  0.6654      0.165964E-05      0.145039E+02     -0.114232E-11      0.281774E-04     -0.221923E-17
  0.6716      0.171725E-05      0.116009E+02     -0.242448E-13      0.231019E-04     -0.482809E-19
  0.6779      0.177628E-05      0.622648E+01     -0.260654E-12      0.127069E-04     -0.531937E-18
  0.6842      0.183675E-05      0.690207E+01     -0.131660E-12      0.144315E-04     -0.275286E-18
  0.6905      0.189866E-05      0.129817E+02      0.435042E-13      0.278032E-04      0.931736E-19
  0.6967      0.196203E-05      0.201232E+02     -0.607104E-12      0.441355E-04     -0.133154E-17
  0.7030      0.202687E-05      0.202136E+02     -0.193132E-12      0.453899E-04     -0.433681E-18
  0.7093      0.209319E-05      0.173251E+02     -0.793795E-12      0.398211E-04     -0.182451E-17
  0.7156      0.216100E-05      0.173433E+02     -0.431419E-12      0.407933E-04     -0.101475E-17
  0.7218      0.223031E-05      0.186526E+02     -0.113340E-11      0.448863E-04     -0.272745E-17
  0.7281      0.230113E-05      0.197299E+02     -0.781842E-12      0.485641E-04     -0.192446E-17
  0.7344      0.237346E-05      0.199090E+02     -0.152372E-11      0.501131E-04     -0.383537E-17
  0.7407      0.244730E-05      0.197703E+02     -0.108486E-11      0.508775E-04     -0.279182E-17
  0.7470      0.252268E-05      0.195960E+02     -0.673659E-12      0.515453E-04     -0.177199E-17
  0.7532      0.259958E-05      0.195812E+02     -0.137769E-11      0.526343E-04     -0.370323E-17
  0.7595      0.267802E-05      0.197125E+02      0.143114E-12      0.541350E-04      0.393023E-18
  0.7658      0.275799E-05      0.198986E+02     -0.578570E-12      0.558166E-04     -0.162292E-17
  0.7721      0.283950E-05      0.200871E+02     -0.159680E-12      0.575389E-04     -0.457398E-18
  0.7783      0.292255E-05      0.202130E+02     -0.905983E-12      0.591124E-04     -0.264952E-17
  0.7846      0.300714E-05      0.202952E+02     -0.474446E-12      0.605818E-04     -0.141624E-17
  0.7909      0.309326E-05      0.203440E+02     -0.122238E-11      0.619711E-04     -0.372356E-17
  0.7972      0.318091E-05      0.203815E+02     -0.799116E-12      0.633419E-04     -0.248350E-17
  0.8034      0.327009E-05      0.204338E+02     -0.375155E-12      0.647747E-04     -0.118923E-17
  0.8097      0.336080E-05      0.204887E+02     -0.111937E-11      0.662330E-04     -0.361852E-17
  0.8160      0.345302E-05      0.205645E+02     -0.695963E-12      0.677768E-04     -0.229377E-17
  0.8223      0.354676E-05      0.206309E+02     -0.145230E-11      0.693083E-04     -0.487891E-17
  0.8286      0.364199E-05      0.207058E+02     -0.101441E-11      0.708867E-04     -0.347284E-17
  0.8348      0.373872E-05      0.207602E+02     -0.175817E-11      0.724119E-04     -0.613252E-17
  0.8411      0.383693E-05      0.208167E+02     -0.133125E-11      0.739604E-04     -0.472983E-17
  0.8474      0.393661E-05      0.208540E+02     -0.207882E-11      0.754546E-04     -0.752165E-17
  0.8537      0.403775E-05      0.208948E+02     -0.464456E-12      0.769742E-04     -0.171101E-17
  0.8599      0.414033E-05      0.209242E+02     -0.280092E-13      0.784638E-04     -0.105032E-18
  0.8662      0.424433E-05      0.209580E+02     -0.797259E-12      0.799810E-04     -0.304254E-17
  0.8725      0.434975E-05      0.209872E+02     -0.354267E-12      0.814912E-04     -0.137558E-17
  0.8788      0.445655E-05      0.210177E+02     -0.110827E-11      0.830161E-04     -0.437747E-17
  0.8850      0.456472E-05      0.210476E+02     -0.668011E-12      0.845482E-04     -0.268340E-17
  0.8913      0.467425E-05      0.210728E+02     -0.142679E-11      0.860703E-04     -0.582759E-17
  0.8976      0.478510E-05      0.211010E+02     -0.997172E-12      0.876122E-04     -0.414030E-17
  0.9039      0.489725E-05      0.211180E+02     -0.555610E-12      0.891145E-04     -0.234459E-17
  0.9102      0.501068E-05      0.211418E+02     -0.133066E-11      0.906520E-04     -0.570561E-17
  0.9164      0.512537E-05      0.211502E+02     -0.883608E-12      0.921283E-04     -0.384892E-17
  0.9227      0.524128E-05      0.211712E+02     -0.164501E-11      0.936642E-04     -0.727771E-17
  0.9290      0.535839E-05      0.211711E+02     -0.120520E-11      0.951092E-04     -0.541423E-17
  0.9353      0.547667E-05      0.211899E+02     -0.196568E-11      0.966419E-04     -0.896500E-17
  0.9415      0.559608E-05      0.211801E+02     -0.327898E-12      0.980457E-04     -0.151788E-17
  0.9478      0.571660E-05      0.211964E+02     -0.109055E-11      0.995701E-04     -0.512286E-17
  0.9541      0.583818E-05      0.211683E+02     -0.659732E-12      0.100885E-03     -0.314419E-17
  0.9604      0.596080E-05      0.211745E+02     -0.213066E-12      0.102361E-03     -0.102999E-17
  0.9666      0.608441E-05      0.210817E+02     -0.978631E-12      0.103350E-03     -0.479759E-17
  0.9729      0.620899E-05      0.211888E+02     -0.543960E-12      0.105318E-03     -0.270373E-17
  0.9792      0.633449E-05      0.216908E+02     -0.133013E-11      0.109287E-03     -0.670172E-17
  0.9855      0.646087E-05      0.218413E+02     -0.890461E-12      0.111526E-03     -0.454687E-17
  0.9918      0.658808E-05      0.216541E+02     -0.166598E-11      0.112034E-03     -0.861941E-17
  0.9980      0.671610E-05      0.218579E+02     -0.123730E-11      0.114560E-03     -0.648488E-17
  1.0043      0.684487E-05      0.211823E+02     -0.195823E-11      0.112441E-03     -0.103948E-16
  1.0106      0.697435E-05      0.203841E+02     -0.146239E-11      0.109566E-03     -0.786047E-17
  1.0169      0.710449E-05      0.211827E+02     -0.107841E-11      0.115267E-03     -0.586824E-17
  1.0231      0.723525E-05      0.216885E+02     -0.187993E-11      0.119455E-03     -0.103541E-16
  1.0294      0.736657E-05      0.215264E+02     -0.199391E-12      0.119978E-03     -0.111131E-17
  1.0357      0.749841E-05      0.213053E+02     -0.966171E-12      0.120138E-03     -0.544812E-17
  1.0420      0.763073E-05      0.211912E+02     -0.173689E-11      0.120871E-03     -0.990690E-17
  1.0482      0.776346E-05      0.214356E+02     -0.857566E-13      0.123646E-03     -0.494667E-18
  1.0545      0.789655E-05      0.214721E+02     -0.856294E-12      0.125230E-03     -0.499411E-17
  1.0608      0.802996E-05      0.211752E+02     -0.161026E-11      0.124842E-03     -0.949355E-17
  1.0671      0.816362E-05      0.209929E+02      0.375287E-13      0.125087E-03      0.223617E-18
  1.0734      0.829749E-05      0.209368E+02     -0.724801E-12      0.126057E-03     -0.436391E-17
  1.0796      0.843150E-05      0.208924E+02     -0.147501E-11      0.127078E-03     -0.897177E-17
  1.0859      0.856560E-05      0.208669E+02     -0.223576E-11      0.128197E-03     -0.137355E-16
  1.0922      0.869974E-05      0.208369E+02     -0.611666E-12      0.129269E-03     -0.379471E-17
  1.0985      0.883385E-05      0.208127E+02     -0.135449E-11      0.130361E-03     -0.848388E-17
  1.1047      0.896787E-05      0.207820E+02     -0.209962E-11      0.131393E-03     -0.132747E-16
  1.1110      0.910176E-05      0.207543E+02     -0.283877E-11      0.132424E-03     -0.181130E-16
  1.1173      0.923543E-05      0.207259E+02     -0.123255E-11      0.133431E-03     -0.793500E-17
  1.1236      0.936885E-05      0.207042E+02     -0.198037E-11      0.134462E-03     -0.128613E-16
  1.1298      0.950193E-05      0.206914E+02     -0.273323E-11      0.135530E-03     -0.179029E-16
  1.1361      0.963463E-05      0.206937E+02     -0.111829E-11      0.136679E-03     -0.738613E-17
  1.1424      0.976688E-05      0.207232E+02     -0.186841E-11      0.137990E-03     -0.124412E-16
  1.1487      0.989861E-05      0.207974E+02     -0.262099E-11      0.139585E-03     -0.175912E-16
  1.1550      0.100298E-04      0.209649E+02     -0.339633E-11      0.141799E-03     -0.229715E-16
  1.1612      0.101603E-04      0.213160E+02      0.618500E-12      0.145260E-03      0.421484E-17
  1.1675      0.102901E-04      0.220399E+02     -0.153993E-12      0.151295E-03     -0.105710E-17
  1.1738      0.104191E-04      0.231895E+02     -0.100760E-11      0.160321E-03     -0.696600E-17
  1.1801      0.105474E-04      0.238601E+02      0.821562E-12      0.166098E-03      0.571917E-17
  1.1863      0.106747E-04      0.233169E+02     -0.386768E-13      0.163407E-03     -0.271051E-18
  1.1926      0.108010E-04      0.223315E+02     -0.845385E-12      0.157521E-03     -0.596311E-17
  1.1989      0.109264E-04      0.216205E+02     -0.159044E-11      0.153467E-03     -0.112893E-16
  1.2052      0.110506E-04      0.211829E+02      0.797036E-13      0.151278E-03      0.569206E-18
  1.2114      0.111737E-04      0.208940E+02     -0.677281E-12      0.150096E-03     -0.486536E-17
  1.2177      0.112956E-04      0.206976E+02     -0.142755E-11      0.149532E-03     -0.103135E-16
  1.2240      0.114161E-04      0.205467E+02      0.184699E-12      0.149256E-03      0.134170E-17
  1.2303      0.115354E-04      0.204317E+02     -0.554893E-12      0.149206E-03     -0.405221E-17
  1.2366      0.116532E-04      0.203323E+02     -0.128697E-11      0.149236E-03     -0.944611E-17
  1.2428      0.117696E-04      0.202505E+02     -0.200835E-11      0.149361E-03     -0.148129E-16
  1.2491      0.118844E-04      0.201745E+02     -0.438936E-12      0.149497E-03     -0.325261E-17
  1.2554      0.119976E-04      0.201085E+02     -0.116346E-11      0.149676E-03     -0.866006E-17
