 
 # Omega; pulse ft; proj flux t=    500.100000000000     
    0.000000000000         0.76130340E-13      0.00000000E+00      0.00000000E+00      0.00000000E+00      0.00000000E+00      0.00000000E+00      0.00000000E+00
    0.006280045285         0.34874077E-10      0.20347594E-01     -0.51630187E-10      0.70031864E-11     -0.17769955E-19      0.43980328E-13     -0.11159612E-21
    0.012560090569         0.13937409E-09      0.44695512E-01      0.18392626E-10      0.30739433E-10      0.12649568E-19      0.23702536E-12     -0.32156262E-22
    0.018840135854         0.31389481E-09      0.30933831E-01     -0.56066901E-11      0.31943057E-10     -0.57896102E-20      0.43762921E-12     -0.68515276E-22
    0.025120181138         0.55896774E-09      0.25017723E-01      0.16177511E-11      0.34502807E-10      0.22310965E-20      0.65430840E-12     -0.54503889E-22
    0.031400226423         0.87533792E-09      0.21459721E-01     -0.28239398E-11      0.37077438E-10     -0.48791152E-20      0.88715639E-12     -0.85144954E-22
    0.037680271707         0.12639648E-08      0.15810399E-01     -0.87501363E-11      0.32870512E-10     -0.18191917E-19      0.10935847E-11     -0.19939101E-21
    0.043960316992         0.17260235E-08      0.11799228E-01     -0.36287884E-11      0.28713237E-10     -0.88306001E-20      0.12739051E-11     -0.25484758E-21
    0.050240362276         0.22629062E-08      0.11692811E-01     -0.32514792E-11      0.32641898E-10     -0.90768978E-20      0.14788977E-11     -0.31185091E-21
    0.056520407561         0.28762236E-08      0.11598161E-01     -0.28798984E-11      0.36580461E-10     -0.90831649E-20      0.17086247E-11     -0.36889360E-21
    0.062800452845         0.35678072E-08      0.10667710E-01     -0.23402360E-11      0.37562324E-10     -0.82402604E-20      0.19445178E-11     -0.42064281E-21
    0.069080498130         0.43397112E-08      0.99077939E-02     -0.36437776E-11      0.38576694E-10     -0.14187305E-19      0.21867811E-11     -0.50973973E-21
    0.075360543414         0.51942150E-08      0.94502048E-02     -0.30287001E-11      0.40370098E-10     -0.12938230E-19      0.24403072E-11     -0.59099239E-21
    0.081640588699         0.61338257E-08      0.90597664E-02     -0.23099301E-11      0.42187615E-10     -0.10756397E-19      0.27052473E-11     -0.65854305E-21
    0.087920633984         0.71612808E-08      0.86362241E-02     -0.13880832E-11      0.43597990E-10     -0.70074188E-20      0.29790447E-11     -0.70254996E-21
    0.094200679268         0.82795515E-08      0.82673643E-02     -0.10080589E-11      0.45036282E-10     -0.54913784E-20      0.32618746E-11     -0.73703606E-21
    0.100480724553         0.94918457E-08      0.78708024E-02     -0.14576025E-11      0.46081817E-10     -0.85339419E-20      0.35512705E-11     -0.79062961E-21
    0.106760769837         0.10801611E-07      0.75207315E-02     -0.73871148E-12      0.47160631E-10     -0.46322753E-20      0.38474414E-11     -0.81972050E-21
    0.113040815122         0.12212540E-07      0.71847857E-02     -0.85934887E-12      0.48109096E-10     -0.57541726E-20      0.41495687E-11     -0.85585697E-21
    0.119320860406         0.13728570E-07      0.68845041E-02     -0.58676922E-12      0.49093529E-10     -0.41842624E-20      0.44578783E-11     -0.88213433E-21
    0.125600905691         0.15353891E-07      0.65821113E-02      0.49595201E-12      0.49869335E-10      0.37575781E-20      0.47710599E-11     -0.85853657E-21
    0.131880950975         0.17092949E-07      0.63100119E-02     -0.67751992E-13      0.50688306E-10     -0.54425155E-21      0.50893848E-11     -0.86195449E-21
    0.138160996260         0.18950447E-07      0.61104204E-02      0.26855008E-12      0.51945480E-10      0.22829792E-20      0.54156048E-11     -0.84761728E-21
    0.144441041544         0.20931352E-07      0.59282223E-02      0.15602370E-12      0.53244386E-10      0.14013284E-20      0.57499819E-11     -0.83881687E-21
    0.150721086829         0.23040899E-07      0.57480505E-02      0.24210457E-12      0.54461381E-10      0.22938820E-20      0.60920019E-11     -0.82441119E-21
    0.157001132113         0.25284593E-07      0.55830079E-02      0.35788617E-12      0.55726800E-10      0.35722412E-20      0.64419687E-11     -0.80197735E-21
    0.163281177398         0.27668217E-07      0.54299625E-02      0.49338668E-13      0.57027529E-10      0.51817343E-21      0.68001041E-11     -0.79872320E-21
    0.169561222683         0.30197832E-07      0.52891192E-02      0.18235254E-12      0.58381501E-10      0.20128144E-20      0.71667426E-11     -0.78608264E-21
    0.175841267967         0.32879785E-07      0.51593580E-02      0.22654715E-13      0.59792471E-10      0.26254844E-21      0.75422420E-11     -0.78443382E-21
    0.182121313252         0.35720711E-07      0.50395525E-02      0.95690011E-13      0.61262395E-10      0.11632381E-20      0.79269726E-11     -0.77712863E-21
    0.188401358536         0.38727539E-07      0.49336868E-02      0.10895962E-12      0.62856489E-10      0.13881747E-20      0.83217143E-11     -0.76841083E-21
    0.194681403821         0.41907495E-07      0.48355837E-02     -0.41218570E-13      0.64514720E-10     -0.54992419E-21      0.87268696E-11     -0.77186438E-21
    0.200961449105         0.45268105E-07      0.47491476E-02      0.71992837E-13      0.66303721E-10      0.10051052E-20      0.91432600E-11     -0.76555227E-21
    0.207241494390         0.48817202E-07      0.46687951E-02      0.29064492E-13      0.68162209E-10      0.42432789E-21      0.95713217E-11     -0.76288748E-21
    0.213521539674         0.52562928E-07      0.45891520E-02      0.13085142E-13      0.70018527E-10      0.19964525E-21      0.10011041E-10     -0.76163369E-21
    0.219801584959         0.56513737E-07      0.45152185E-02     -0.10017373E-12      0.71952295E-10     -0.15963191E-20      0.10462905E-10     -0.77165865E-21
    0.226081630243         0.60678401E-07      0.44362655E-02     -0.18709076E-12      0.73795360E-10     -0.31121739E-20      0.10926343E-10     -0.79120324E-21
    0.232361675528         0.65066012E-07      0.43632869E-02     -0.22383213E-12      0.75726194E-10     -0.38846759E-20      0.11401907E-10     -0.81559918E-21
    0.238641720812         0.69685984E-07      0.43035124E-02     -0.22673166E-12      0.77886967E-10     -0.41034950E-20      0.11891041E-10     -0.84136932E-21
    0.244921766097         0.74548059E-07      0.42479756E-02     -0.18785163E-12      0.80137105E-10     -0.35437788E-20      0.12394305E-10     -0.86362441E-21
    0.251201811381         0.79662308E-07      0.41812158E-02     -0.15305313E-12      0.82181749E-10     -0.30082574E-20      0.12910410E-10     -0.88251640E-21
    0.257481856666         0.85039131E-07      0.41193647E-02     -0.23124935E-12      0.84322817E-10     -0.47336418E-20      0.13439962E-10     -0.91224389E-21
    0.263761901951         0.90689267E-07      0.40524547E-02     -0.17967439E-12      0.86358417E-10     -0.38288882E-20      0.13982296E-10     -0.93628948E-21
    0.270041947235         0.96623785E-07      0.39899733E-02     -0.22574724E-12      0.88484149E-10     -0.50063123E-20      0.14537981E-10     -0.96772935E-21
    0.276321992520         0.10285409E-06      0.39105461E-02     -0.18305571E-12      0.90216551E-10     -0.42231071E-20      0.15104545E-10     -0.99425065E-21
    0.282602037804         0.10939194E-06      0.38346955E-02     -0.30104169E-13      0.91999108E-10     -0.72223640E-21      0.15682303E-10     -0.99878633E-21
    0.288882083089         0.11624942E-06      0.37169756E-02     -0.97158306E-13      0.92704877E-10     -0.24232197E-20      0.16264494E-10     -0.10140043E-20
    0.295162128373         0.12343895E-06      0.35990695E-02     -0.70929244E-13      0.93287724E-10     -0.18384829E-20      0.16850345E-10     -0.10255500E-20
    0.301442173658         0.13097330E-06      0.33543461E-02     -0.12307289E-12      0.90329439E-10     -0.33142390E-20      0.17417618E-10     -0.10463636E-20
    0.307722218942         0.13886558E-06      0.30812929E-02     -0.89435794E-13      0.86180978E-10     -0.25014383E-20      0.17958839E-10     -0.10620727E-20
    0.314002264227         0.14712923E-06      0.17915003E-02     -0.26754069E-13      0.52026636E-10     -0.77696007E-21      0.18285568E-10     -0.10669521E-20
    0.320282309511         0.15577804E-06      0.19669032E-02     -0.60179534E-13      0.59292387E-10     -0.18141148E-20      0.18657927E-10     -0.10783448E-20
    0.326562354796         0.16482612E-06      0.60694212E-02     -0.40314843E-13      0.18986717E-09     -0.12611524E-20      0.19850302E-10     -0.10862649E-20
    0.332842400080         0.17428793E-06      0.77134470E-02     -0.10241181E-12      0.25033401E-09     -0.33236967E-20      0.21422411E-10     -0.11071379E-20
    0.339122445365         0.18417826E-06      0.60074551E-02     -0.89957194E-13      0.20221578E-09     -0.30280317E-20      0.22692335E-10     -0.11261540E-20
    0.345402490650         0.19451221E-06      0.52950539E-02     -0.32550389E-13      0.18481383E-09     -0.11361097E-20      0.23852974E-10     -0.11332889E-20
    0.351682535934         0.20530523E-06      0.51828023E-02     -0.52026348E-13      0.18752386E-09     -0.18824144E-20      0.25030632E-10     -0.11451105E-20
    0.357962581219         0.21657306E-06      0.51215802E-02     -0.25433126E-13      0.19204963E-09     -0.95369438E-21      0.26236713E-10     -0.11510997E-20
    0.364242626503         0.22833179E-06      0.52177522E-02     -0.61928317E-13      0.20272240E-09     -0.24060662E-20      0.27509819E-10     -0.11662100E-20
    0.370522671788         0.24059779E-06      0.53353072E-02     -0.18973510E-13      0.21472319E-09     -0.76360224E-21      0.28858290E-10     -0.11710054E-20
    0.376802717072         0.25338774E-06      0.52372542E-02     -0.37293155E-13      0.21828199E-09     -0.15543305E-20      0.30229111E-10     -0.11807667E-20
    0.383082762357         0.26671863E-06      0.51953569E-02     -0.54716040E-13      0.22419133E-09     -0.23611201E-20      0.31637042E-10     -0.11955946E-20
    0.389362807641         0.28060773E-06      0.52444820E-02     -0.41306692E-13      0.23425585E-09     -0.18450505E-20      0.33108180E-10     -0.12071816E-20
    0.395642852926         0.29507259E-06      0.53658956E-02     -0.64726190E-13      0.24803355E-09     -0.29919082E-20      0.34665842E-10     -0.12259709E-20
    0.401922898210         0.31013104E-06      0.54206656E-02     -0.32343213E-13      0.25923747E-09     -0.15467792E-20      0.36293865E-10     -0.12356848E-20
    0.408202943495         0.32580116E-06      0.56147823E-02     -0.27424046E-13      0.27774874E-09     -0.13565965E-20      0.38038139E-10     -0.12442043E-20
    0.414482988779         0.34210131E-06      0.57038045E-02     -0.18553848E-13      0.29177987E-09     -0.94912778E-21      0.39870530E-10     -0.12501648E-20
    0.420763034064         0.35905007E-06      0.60933146E-02     -0.35050783E-13      0.32226542E-09     -0.18537785E-20      0.41894372E-10     -0.12618066E-20
    0.427043079349         0.37666626E-06      0.61877813E-02     -0.35233940E-13      0.33826936E-09     -0.19261448E-20      0.44018719E-10     -0.12739029E-20
    0.433323124633         0.39496893E-06      0.70762789E-02     -0.83839788E-14      0.39975940E-09     -0.47363514E-21      0.46529226E-10     -0.12768774E-20
    0.439603169918         0.41397733E-06      0.70456219E-02     -0.24207732E-13      0.41122334E-09     -0.14129036E-20      0.49111727E-10     -0.12857505E-20
    0.445883215202         0.43371092E-06      0.10078550E-01     -0.85366028E-14      0.60760305E-09     -0.51464408E-21      0.52927502E-10     -0.12889825E-20
    0.452163260487         0.45418931E-06      0.77428829E-02     -0.19586246E-13      0.48204435E-09     -0.12193700E-20      0.55954762E-10     -0.12966402E-20
    0.458443305771         0.47543232E-06      0.64531445E-01     -0.45164593E-13      0.41477935E-08     -0.29029787E-20      0.82003093E-10     -0.13148710E-20
    0.464723351056         0.49745989E-06      0.16123734E+00     -0.29544712E-13      0.10697244E-07     -0.19601351E-20      0.14918227E-09     -0.13271807E-20
    0.471003396340         0.52029212E-06      0.10541807E+00     -0.25248516E-13      0.72174027E-08     -0.17286288E-20      0.19450788E-09     -0.13380366E-20
    0.477283441625         0.54394922E-06      0.19030780E-02     -0.19169698E-13      0.13442537E-09     -0.13540664E-20      0.19535208E-09     -0.13465402E-20
    0.483563486909         0.56845152E-06     -0.95013252E-02     -0.12488384E-13     -0.69225609E-09     -0.90988994E-21      0.19100468E-09     -0.13522543E-20
    0.489843532194         0.59381941E-06     -0.49112813E-02     -0.31120454E-13     -0.36900690E-09     -0.23382212E-20      0.18868730E-09     -0.13669385E-20
    0.496123577478         0.62007337E-06     -0.79242074E-02     -0.22190334E-13     -0.61383510E-09     -0.17189361E-20      0.18483239E-09     -0.13777335E-20
    0.502403622763         0.64723393E-06     -0.82306143E-02     -0.10557607E-13     -0.65717864E-09     -0.84297889E-21      0.18070528E-09     -0.13830274E-20
    0.508683668048         0.67532166E-06      0.85942264E-01     -0.14425432E-13      0.70715131E-08     -0.11869553E-20      0.22511470E-09     -0.13904816E-20
    0.514963713332         0.70435711E-06      0.70235246E+00     -0.26096015E-13      0.59540716E-07     -0.22122446E-20      0.59903310E-09     -0.14043746E-20
    0.521243758617         0.73436086E-06      0.13526203E+01     -0.72899339E-13      0.11811016E-06     -0.63655352E-20      0.13407702E-08     -0.14443504E-20
    0.527523803901         0.76535344E-06      0.12437573E+01     -0.73577621E-13      0.11184029E-06     -0.66161965E-20      0.20431323E-08     -0.14859004E-20
    0.533803849186         0.79735534E-06      0.11813739E+01     -0.30931914E-13      0.10937052E-06     -0.28636483E-20      0.27299841E-08     -0.15038843E-20
    0.540083894470         0.83038696E-06      0.15898350E+01     -0.44739281E-13      0.15150048E-06     -0.42633498E-20      0.36814140E-08     -0.15306583E-20
    0.546363939755         0.86446862E-06      0.20245271E+01     -0.83234291E-13      0.19853335E-06     -0.81622928E-20      0.49282125E-08     -0.15819179E-20
    0.552643985039         0.89962053E-06      0.22624430E+01     -0.61589388E-14      0.22826232E-06     -0.62138745E-21      0.63617102E-08     -0.15858202E-20
    0.558924030324         0.93586274E-06      0.24354874E+01     -0.17658657E-12      0.25274812E-06     -0.18325664E-19      0.79489798E-08     -0.17009062E-20
    0.565204075608         0.97321515E-06      0.25556794E+01     -0.74529155E-13      0.27274238E-06     -0.79537594E-20      0.96618143E-08     -0.17508562E-20
    0.571484120893         0.10116975E-05      0.27435926E+01     -0.11702974E-12      0.30102932E-06     -0.12840603E-19      0.11552292E-07     -0.18314957E-20
    0.577764166177         0.10513292E-05      0.29792476E+01     -0.16603951E-12      0.33599853E-06     -0.18725879E-19      0.13662378E-07     -0.19490951E-20
    0.584044211462         0.10921295E-05      0.33731497E+01     -0.51143854E-13      0.39093695E-06     -0.59274043E-20      0.16117480E-07     -0.19863195E-20
    0.590324256747         0.11341175E-05      0.37915695E+01     -0.10316868E-12      0.45147025E-06     -0.12284514E-19      0.18952733E-07     -0.20634668E-20
    0.596604302031         0.11773119E-05      0.43881983E+01     -0.16933024E-12      0.53670305E-06     -0.20710106E-19      0.22323253E-07     -0.21935272E-20
    0.602884347316         0.12217310E-05      0.50110719E+01     -0.26249803E-12      0.62938281E-06     -0.32969344E-19      0.26275805E-07     -0.24005762E-20
    0.609164392600         0.12673928E-05      0.61855848E+01     -0.59198301E-13      0.79762759E-06     -0.76335868E-20      0.31284943E-07     -0.24485154E-20
    0.615444437885         0.13143151E-05      0.76458851E+01     -0.17836731E-12      0.10120014E-05     -0.23608510E-19      0.37640357E-07     -0.25967779E-20
    0.621724483169         0.13625152E-05      0.13783788E+02     -0.50642763E-12      0.18722104E-05     -0.68786537E-19      0.49397923E-07     -0.30287605E-20
    0.628004528454         0.14120099E-05      0.39857132E+02     -0.20353943E-11      0.55542275E-05     -0.28363915E-18      0.84278724E-07     -0.48100272E-20
    0.634284573738         0.14628155E-05      0.60258606E+02     -0.39215416E-11      0.86132524E-05     -0.56053782E-18      0.13837034E-06     -0.83302301E-20
    0.640564619023         0.15149482E-05      0.39743602E+02     -0.31481094E-11      0.58256547E-05     -0.46145285E-18      0.17495571E-06     -0.11228175E-19
    0.646844664307         0.15684233E-05      0.10809713E+02     -0.40097935E-12      0.16245015E-05     -0.60259838E-19      0.18515766E-06     -0.11606609E-19
    0.653124709592         0.16232557E-05      0.24256988E+01     -0.13026194E-12      0.37365464E-06     -0.20065549E-19      0.18750423E-06     -0.11732622E-19
    0.659404754876         0.16794598E-05      0.27155229E+01     -0.52361159E-13      0.42866070E-06     -0.82655063E-20      0.19019623E-06     -0.11784530E-19
    0.665684800161         0.17370493E-05      0.34038513E+01     -0.10377760E-12      0.55049929E-06     -0.16783780E-19      0.19365339E-06     -0.11889933E-19
    0.671964845445         0.17960375E-05      0.40586914E+01     -0.40546766E-12      0.67235331E-06     -0.67168824E-19      0.19787580E-06     -0.12311756E-19
    0.678244890730         0.18564368E-05      0.47562750E+01     -0.27525211E-12      0.80686946E-06     -0.46694634E-19      0.20294298E-06     -0.12605000E-19
    0.684524936015         0.19182592E-05      0.95353605E+01     -0.64500157E-12      0.16561429E-05     -0.11202668E-18      0.21334363E-06     -0.13308533E-19
    0.690804981299         0.19815157E-05      0.14514626E+02     -0.33421660E-12      0.25804211E-05     -0.59417279E-19      0.22954879E-06     -0.13681676E-19
    0.697085026584         0.20462170E-05      0.10213155E+02     -0.38197989E-12      0.18580976E-05     -0.69494287E-19      0.24121773E-06     -0.14118103E-19
    0.703365071868         0.21123726E-05      0.43994008E+01      0.14032329E-13      0.81889067E-06      0.26119337E-20      0.24636040E-06     -0.14101700E-19
    0.709645117153         0.21799915E-05      0.42372696E+01     -0.52307223E-13      0.80675629E-06     -0.99590504E-20      0.25142687E-06     -0.14164244E-19
    0.715925162437         0.22490820E-05      0.52744501E+01     -0.43256001E-12      0.10269694E-05     -0.84222223E-19      0.25787628E-06     -0.14693163E-19
    0.722205207722         0.23196512E-05      0.54476192E+01     -0.20214361E-12      0.10844549E-05     -0.40240630E-19      0.26468671E-06     -0.14945876E-19
    0.728485253006         0.23917059E-05      0.50608721E+01     -0.25812946E-12      0.10298051E-05     -0.52525144E-19      0.27115393E-06     -0.15275736E-19
    0.734765298291         0.24652514E-05      0.47745748E+01     -0.38897029E-13      0.99286445E-06     -0.80885688E-20      0.27738916E-06     -0.15326533E-19
    0.741045343575         0.25402927E-05      0.48672457E+01     -0.11294286E-12      0.10341057E-05     -0.23996088E-19      0.28388340E-06     -0.15477229E-19
    0.747325388860         0.26168335E-05      0.51080805E+01     -0.48125250E-12      0.11085793E-05     -0.10444365E-18      0.29084532E-06     -0.16133140E-19
    0.753605434144         0.26948767E-05      0.53103940E+01     -0.26010337E-12      0.11769670E-05     -0.57647904E-19      0.29823673E-06     -0.16495172E-19
    0.759885479429         0.27744242E-05      0.50014035E+01     -0.31357996E-12      0.11317729E-05     -0.70960340E-19      0.30534431E-06     -0.16940806E-19
    0.766165524714         0.28554769E-05      0.50136135E+01     -0.10059954E-12      0.11581094E-05     -0.23237784E-19      0.31261729E-06     -0.17086740E-19
