 
 # Omega; pulse ft; projected flux at t=    500.250000000000     
    0.000000000000         0.61823026E-09      0.00000000E+00      0.00000000E+00      0.92871326E-09      0.79409339E-22
    0.006276908399         0.61747610E-09      0.16337563E-01      0.44743973E-14      0.93880507E-09      0.25711221E-21
    0.012553816798         0.61521579E-09      0.33155282E-01      0.76387651E-15      0.94911363E-09      0.21866972E-22
    0.018830725196         0.61145675E-09      0.50594548E-01      0.11011825E-13      0.95965741E-09      0.20886795E-21
    0.025107633595         0.60621417E-09      0.68803016E-01      0.74399283E-14      0.97037943E-09      0.10493077E-21
    0.031384541994         0.59951527E-09      0.87949162E-01     -0.24579186E-14      0.98136363E-09     -0.27426207E-22
    0.037661450393         0.59140524E-09      0.10820437E+00      0.79532370E-14      0.99253701E-09      0.72953453E-22
    0.043938358791         0.58195487E-09      0.12976905E+00      0.12483231E-14      0.10039923E-08      0.96579799E-23
    0.050215267190         0.57126980E-09      0.15283527E+00      0.35680476E-13      0.10156472E-08      0.23711003E-21
    0.056492175589         0.55950140E-09      0.17762323E+00      0.24353424E-13      0.10276055E-08      0.14089212E-21
    0.062769083988         0.54685933E-09      0.20431168E+00      0.26684279E-13      0.10397689E-08      0.13579979E-21
    0.069045992387         0.53362554E-09      0.23308280E+00     -0.10322240E-13      0.10522578E-08     -0.46599995E-22
    0.075322900785         0.52016993E-09      0.26400037E+00     -0.18973907E-13      0.10649680E-08     -0.76540056E-22
    0.081599809184         0.50696746E-09      0.29704610E+00      0.35116770E-13      0.10780244E-08      0.12744398E-21
    0.087876717583         0.49461670E-09      0.33192665E+00     -0.26283185E-13      0.10913169E-08     -0.86414525E-22
    0.094153625982         0.48385983E-09      0.36809251E+00      0.40626740E-13      0.11049772E-08      0.12195744E-21
    0.100430534380         0.47560399E-09      0.40447814E+00     -0.46021746E-14      0.11188930E-08     -0.12730827E-22
    0.106707442779         0.47094388E-09      0.43955912E+00      0.32847779E-13      0.11331973E-08      0.84682615E-22
    0.112984351178         0.47118573E-09      0.47116361E+00     -0.71837532E-14      0.11477819E-08     -0.17500040E-22
    0.119261259577         0.47787234E-09      0.49678606E+00     -0.33684019E-14      0.11627751E-08     -0.78840652E-23
    0.125538167976         0.49280933E-09      0.51375600E+00      0.43169350E-13      0.11780774E-08      0.98990255E-22
    0.131815076374         0.51809239E-09      0.51997040E+00     -0.35910136E-13      0.11938082E-08     -0.82446643E-22
    0.138091984773         0.55613556E-09      0.51430079E+00      0.58099816E-13      0.12098825E-08      0.13667867E-21
    0.144368893172         0.60970041E-09      0.49713818E+00      0.43647648E-13      0.12264046E-08      0.10767565E-21
    0.150645801571         0.68192607E-09      0.47020324E+00      0.56670834E-13      0.12433107E-08      0.14984894E-21
    0.156922709970         0.77635999E-09      0.43622978E+00      0.39186139E-13      0.12606846E-08      0.11324620E-21
    0.163199618368         0.89698941E-09      0.39821233E+00      0.10511030E-13      0.12784881E-08      0.33746384E-22
    0.169476526767         0.10482735E-08      0.35891184E+00      0.70542110E-14      0.12967809E-08      0.25487503E-22
    0.175753435166         0.12351757E-08      0.32045743E+00     -0.12382422E-13      0.13155551E-08     -0.50832834E-22
    0.182030343565         0.14631970E-08      0.28428712E+00     -0.37688987E-13      0.13348424E-08     -0.17696495E-21
    0.188307251963         0.17384091E-08      0.25120827E+00     -0.10598402E-13      0.13546673E-08     -0.57153010E-22
    0.194584160362         0.20674879E-08      0.22154605E+00     -0.20387021E-13      0.13750336E-08     -0.12653278E-21
    0.200861068761         0.24577476E-08      0.19531244E+00     -0.30697318E-13      0.13959993E-08     -0.21940966E-21
    0.207137977160         0.29171738E-08      0.17231344E+00     -0.27060637E-13      0.14175407E-08     -0.22261498E-21
    0.213414885559         0.34544578E-08      0.15227104E+00     -0.13100811E-13      0.14397473E-08     -0.12387030E-21
    0.219691793957         0.40790298E-08      0.13485292E+00      0.32390151E-14      0.14625718E-08      0.35129327E-22
    0.225968702356         0.48010926E-08      0.11974350E+00      0.13186122E-13      0.14861325E-08      0.16365251E-21
    0.232245610755         0.56316541E-08      0.10662995E+00      0.66646734E-14      0.15103634E-08      0.94401987E-22
    0.238522519154         0.65825603E-08      0.95245406E-01      0.70907120E-14      0.15354062E-08      0.11430602E-21
    0.244799427552         0.76665268E-08      0.85339803E-01      0.74310721E-14      0.15611826E-08      0.13594196E-21
    0.251076335951         0.88971707E-08      0.76709792E-01     -0.17607980E-15      0.15878547E-08     -0.36447646E-23
    0.257353244350         0.10289041E-07      0.69168052E-01      0.34832775E-14      0.16153424E-08      0.81348043E-22
    0.263630152749         0.11857647E-07      0.62565294E-01      0.25019549E-14      0.16438067E-08      0.65735009E-22
    0.269907061148         0.13619491E-07      0.56765237E-01      0.50294831E-14      0.16731809E-08      0.14824628E-21
    0.276183969546         0.15592091E-07      0.51660230E-01     -0.32764757E-15      0.17036329E-08     -0.10805047E-22
    0.282460877945         0.17794010E-07      0.47151789E-01      0.92584107E-15      0.17351120E-08      0.34069501E-22
    0.288737786344         0.20244883E-07      0.43161956E-01     -0.30105323E-14      0.17677733E-08     -0.12330161E-21
    0.295014694743         0.22965437E-07      0.39620067E-01      0.83564697E-15      0.18016070E-08      0.37998609E-22
    0.301291603141         0.25977515E-07      0.36468839E-01      0.11753345E-14      0.18367342E-08      0.59195113E-22
    0.307568511540         0.29304101E-07      0.33658091E-01      0.11815909E-14      0.18732244E-08      0.65760859E-22
    0.313845419939         0.32969333E-07      0.31143911E-01      0.88462967E-16      0.19110908E-08      0.54283728E-23
    0.320122328338         0.36998524E-07      0.28896717E-01      0.14074846E-14      0.19508808E-08      0.95022373E-22
    0.326399236737         0.41418179E-07      0.26880311E-01     -0.25666847E-15      0.19924616E-08     -0.19025154E-22
    0.332676145135         0.46256007E-07      0.25054256E-01      0.48312762E-15      0.20348940E-08      0.39239380E-22
    0.338953053534         0.51540931E-07      0.23409754E-01     -0.11908566E-14      0.20793297E-08     -0.10577572E-21
    0.345229961933         0.57303105E-07      0.21927801E-01      0.66544394E-15      0.21260749E-08      0.64520088E-22
    0.351506870332         0.63573913E-07      0.20586245E-01     -0.23391029E-15      0.21748839E-08     -0.24712021E-22
    0.357783778731         0.70385980E-07      0.19371765E-01      0.82553809E-15      0.22261197E-08      0.94867277E-22
    0.364060687129         0.77773174E-07      0.18269269E-01      0.10067388E-15      0.22797698E-08      0.12562806E-22
    0.370337595528         0.85770606E-07      0.17268956E-01      0.95535745E-17      0.23362567E-08      0.12924697E-23
    0.376614503927         0.94414629E-07      0.16358830E-01      0.88330689E-15      0.23955668E-08      0.12935037E-21
    0.382891412326         0.10374284E-06      0.15532163E-01     -0.44555205E-15      0.24582623E-08     -0.70517147E-22
    0.389168320724         0.11379405E-06      0.14778953E-01     -0.62957552E-15      0.25242917E-08     -0.10753348E-21
    0.395445229123         0.12460831E-06      0.14095170E-01     -0.39715068E-15      0.25944468E-08     -0.73102087E-22
    0.401722137522         0.13622687E-06      0.13471896E-01      0.17538757E-15      0.26685759E-08      0.34741586E-22
    0.407999045921         0.14869219E-06      0.12907857E-01      0.17048048E-15      0.27478750E-08      0.36292549E-22
    0.414275954320         0.16204789E-06      0.12394189E-01     -0.22445257E-15      0.28319499E-08     -0.51285198E-22
    0.420552862718         0.17633876E-06      0.11933234E-01     -0.12664575E-15      0.29228002E-08     -0.31019273E-22
    0.426829771117         0.19161071E-06      0.11514353E-01      0.49682337E-16      0.30193844E-08      0.13028095E-22
    0.433106679516         0.20791078E-06      0.11146568E-01      0.13827565E-15      0.31256266E-08      0.38774091E-22
    0.439383587915         0.22528707E-06      0.10812943E-01     -0.28584754E-15      0.32385467E-08     -0.85613193E-22
    0.445660496313         0.24378875E-06      0.10540834E-01     -0.46919681E-16      0.33682031E-08     -0.14992649E-22
    0.451937404712         0.26346597E-06      0.10291122E-01      0.44360919E-15      0.35044732E-08      0.15106386E-21
    0.458214313111         0.28436989E-06      0.10203834E-01      0.33085644E-16      0.36990665E-08      0.11994119E-22
    0.464491221510         0.30655259E-06      0.10085362E-01      0.16414230E-15      0.38880585E-08      0.63279317E-22
    0.470768129909         0.33006704E-06      0.95991292E-02     -0.47210985E-16      0.39313413E-08     -0.19335347E-22
    0.477045038307         0.35496707E-06      0.94265063E-02      0.12750660E-15      0.40972574E-08      0.55421101E-22
    0.483321946706         0.38130728E-06      0.94599712E-02     -0.95131388E-16      0.43595554E-08     -0.43840572E-22
    0.489598855105         0.40914305E-06      0.95003384E-02     -0.90234242E-16      0.46375399E-08     -0.44047368E-22
    0.495875763504         0.43853041E-06      0.96429288E-02     -0.58846014E-16      0.49813791E-08     -0.30398888E-22
    0.502152671902         0.46952606E-06      0.99195040E-02     -0.28282854E-15      0.54178588E-08     -0.15447598E-21
    0.508429580301         0.50218725E-06      0.10665812E-01      0.24766790E-15      0.61537892E-08      0.14289545E-21
    0.514706488700         0.53657174E-06      0.12572991E-01      0.10187782E-15      0.76563284E-08      0.62038546E-22
    0.520983397099         0.57273772E-06      0.12595734E-01     -0.29626645E-15      0.80885226E-08     -0.19025154E-21
    0.527260305498         0.61074378E-06      0.13657139E-01     -0.16442765E-15      0.92407565E-08     -0.11125579E-21
    0.533537213896         0.65064880E-06      0.21653919E-01      0.26010736E-15      0.15425250E-07      0.18528846E-21
    0.539814122295         0.69251188E-06      0.37558785E-01     -0.94156995E-15      0.28145458E-07     -0.70558506E-21
    0.546091030694         0.73639228E-06      0.48062491E-01     -0.60487390E-15      0.37858575E-07     -0.47645603E-21
    0.552367939093         0.78234932E-06      0.47261512E-01     -0.19996054E-14      0.39101522E-07     -0.16543612E-20
    0.558644847491         0.83044233E-06      0.52130813E-01     -0.13298366E-14      0.45267027E-07     -0.11547441E-20
    0.564921755890         0.88073054E-06      0.54863648E-01     -0.34188607E-14      0.49963544E-07     -0.31135078E-20
    0.571198664289         0.93327299E-06      0.64112991E-01     -0.28011501E-14      0.61190127E-07     -0.26734477E-20
    0.577475572688         0.98812849E-06      0.68566036E-01     -0.53527474E-14      0.68533459E-07     -0.53502042E-20
    0.583752481087         0.10453555E-05      0.75869452E-01     -0.14233896E-15      0.79362621E-07     -0.14889251E-21
    0.590029389485         0.11050119E-05      0.83645821E-01      0.16150816E-14      0.91506378E-07      0.17668578E-20
    0.596306297884         0.11671553E-05      0.92801488E-01     -0.14122355E-14      0.10610308E-06     -0.16146566E-20
    0.602583206283         0.12318424E-05      0.11294893E+00      0.22720730E-15      0.13487580E-06      0.27131524E-21
    0.608860114682         0.12991293E-05      0.12896420E+00     -0.42156270E-14      0.16073773E-06     -0.52542513E-20
    0.615137023081         0.13690713E-05      0.18376882E+00     -0.24432255E-14      0.23891303E-06     -0.31763736E-20
    0.621413931479         0.14417228E-05      0.23417844E+00     -0.11464994E-13      0.31736681E-06     -0.15537761E-19
    0.627690839878         0.15171371E-05      0.61675727E+00     -0.17285757E-13      0.87077733E-06     -0.24405137E-19
    0.633967748277         0.15953663E-05      0.10281587E+01     -0.66230037E-13      0.15113575E-05     -0.97355849E-19
    0.640244656676         0.16764615E-05      0.68272963E+00     -0.29731175E-13      0.10442637E-05     -0.45475081E-19
    0.646521565074         0.17604722E-05      0.20361305E+00     -0.47261631E-14      0.32386616E-06     -0.75174174E-20
    0.652798473473         0.18474468E-05      0.81366397E-01     -0.46634750E-14      0.13450911E-06     -0.77093233E-20
    0.659075381872         0.19374318E-05      0.73670438E-01     -0.26513901E-14      0.12650229E-06     -0.45528021E-20
    0.665352290271         0.20304724E-05      0.79736210E-01     -0.59172431E-14      0.14213951E-06     -0.10548207E-19
    0.671629198670         0.21266118E-05      0.92078628E-01      0.51162753E-15      0.17030653E-06      0.94629462E-21
    0.677906107068         0.22258916E-05      0.97630550E-01     -0.30913635E-14      0.18725525E-06     -0.59292306E-20
    0.684183015467         0.23283513E-05      0.16218469E+00     -0.17310263E-14      0.32240358E-06     -0.34410713E-20
    0.690459923866         0.24340282E-05      0.29347381E+00      0.26094286E-14      0.60432463E-06      0.53733653E-20
    0.696736832265         0.25429579E-05      0.22094028E+00     -0.60091284E-14      0.47104143E-06     -0.12811373E-19
    0.703013740663         0.26551734E-05      0.10442950E+00     -0.68388379E-15      0.23039130E-06     -0.15087774E-20
    0.709290649062         0.27707053E-05      0.11596724E+00     -0.49127406E-14      0.26461548E-06     -0.11209952E-19
    0.715567557461         0.28895822E-05      0.12242025E+00     -0.26258383E-14      0.28876960E-06     -0.61939284E-20
    0.721844465860         0.30118296E-05      0.10377642E+00     -0.59949952E-14      0.25292937E-06     -0.14611318E-19
    0.728121374259         0.31374707E-05      0.91764261E-01     -0.32652936E-14      0.23097409E-06     -0.82188666E-20
    0.734398282657         0.32665259E-05      0.10099041E+00     -0.74269345E-14      0.26239069E-06     -0.19296469E-19
    0.740675191056         0.33990128E-05      0.10590117E+00     -0.55148626E-14      0.28388312E-06     -0.14783372E-19
    0.746952099455         0.35349461E-05      0.10670150E+00     -0.33752473E-14      0.29496765E-06     -0.93305973E-20
    0.753229007854         0.36743374E-05      0.10490845E+00     -0.71016950E-14      0.29893466E-06     -0.20236147E-19
    0.759505916252         0.38171952E-05      0.98787448E-01      0.96473290E-15      0.29002056E-06      0.28322664E-20
    0.765782824651         0.39635250E-05      0.97995994E-01     -0.26090164E-14      0.29627712E-06     -0.78879943E-20
    0.772059733050         0.41133290E-05      0.11897945E+00     -0.64640926E-15      0.37027834E-06     -0.20117032E-20
    0.778336641449         0.42666060E-05      0.12903502E+00     -0.54228214E-14      0.41317731E-06     -0.17364175E-19
    0.784613549848         0.44233513E-05      0.13086424E+00     -0.28132539E-14      0.43095351E-06     -0.92644229E-20
    0.790890458246         0.45835571E-05      0.13527555E+00     -0.78971718E-14      0.45795144E-06     -0.26734477E-19
    0.797167366645         0.47472116E-05      0.13829844E+00     -0.52352314E-14      0.48108316E-06     -0.18211208E-19
    0.803444275044         0.49142998E-05      0.14399604E+00     -0.24077644E-14      0.51448206E-06     -0.86026784E-20
    0.809721183443         0.50848028E-05      0.14879333E+00     -0.79087613E-14      0.54580295E-06     -0.29010878E-19
    0.815998091842         0.52586980E-05      0.15597544E+00     -0.49572013E-14      0.58716357E-06     -0.18661195E-19
    0.822275000240         0.54359592E-05      0.16137008E+00     -0.11070059E-13      0.62315474E-06     -0.42748694E-19
    0.828551908639         0.56165561E-05      0.16864099E+00     -0.80484570E-14      0.66777066E-06     -0.31869615E-19
    0.834828817038         0.58004548E-05      0.17383439E+00     -0.14413325E-13      0.70552777E-06     -0.58498213E-19
    0.841105725437         0.59876175E-05      0.18072617E+00     -0.11228756E-13      0.75151611E-06     -0.46692691E-19
    0.847382633835         0.61780022E-05      0.18598918E+00     -0.18198647E-13      0.79208172E-06     -0.77503515E-19
    0.853659542234         0.63715632E-05      0.19262014E+00     -0.40191408E-14      0.83980178E-06     -0.17522994E-19
    0.859936450633         0.65682506E-05      0.19806637E+00      0.83057949E-16      0.88370619E-06      0.37057691E-21
    0.866213359032         0.67680107E-05      0.20409481E+00     -0.73771306E-14      0.93149798E-06     -0.33669560E-19
    0.872490267431         0.69707857E-05      0.20933496E+00     -0.32215414E-14      0.97695985E-06     -0.15034835E-19
    0.878767175829         0.71765137E-05      0.21418579E+00     -0.10897787E-13      0.10217488E-05     -0.51986647E-19
    0.885044084228         0.73851287E-05      0.21883112E+00     -0.66144029E-14      0.10666355E-05     -0.32240192E-19
    0.891320992627         0.75965609E-05      0.22213028E+00     -0.14674480E-13      0.11058710E-05     -0.73056592E-19
    0.897597901026         0.78107362E-05      0.22594555E+00     -0.10342026E-13      0.11484914E-05     -0.52568982E-19
    0.903874809424         0.80275766E-05      0.22717759E+00     -0.56226615E-14      0.11785703E-05     -0.29169697E-19
    0.910151717823         0.82470002E-05      0.22958161E+00     -0.14082733E-13      0.12151590E-05     -0.74538899E-19
    0.916428626222         0.84689209E-05      0.22637782E+00     -0.91205292E-14      0.12220166E-05     -0.49233790E-19
    0.922705534621         0.86932488E-05      0.22388233E+00     -0.17084037E-13      0.12321188E-05     -0.94020657E-19
    0.928982443020         0.89198899E-05      0.19593362E+00     -0.10882880E-13      0.10989419E-05     -0.61039312E-19
    0.935259351418         0.91487464E-05      0.20568843E+00     -0.18770525E-13      0.11753121E-05     -0.10725555E-18
    0.941536259817         0.93797169E-05      0.27255640E+00     -0.38754616E-14      0.15860719E-05     -0.22552252E-19
    0.947813168216         0.96126957E-05      0.28532703E+00     -0.14297630E-13      0.16903599E-05     -0.84703295E-19
    0.954090076615         0.98475739E-05      0.27640766E+00     -0.82713720E-14      0.16664940E-05     -0.49869065E-19
    0.960366985013         0.10084238E-04      0.27718034E+00     -0.24339393E-14      0.17001299E-05     -0.14928956E-19
    0.966643893412         0.10322573E-04      0.27508832E+00     -0.12373786E-13      0.17159610E-05     -0.77185877E-19
    0.972920801811         0.10562458E-04      0.27614181E+00     -0.67284350E-14      0.17511908E-05     -0.42669285E-19
    0.979197710210         0.10803769E-04      0.27568350E+00     -0.16592544E-13      0.17767629E-05     -0.10693791E-18
    0.985474618609         0.11046380E-04      0.27640809E+00     -0.10963562E-13      0.18098354E-05     -0.71786042E-19
    0.991751527007         0.11290161E-04      0.27633173E+00     -0.20921587E-13      0.18375612E-05     -0.13912516E-18
    0.998028435406         0.11534978E-04      0.26644237E+00     -0.14757483E-13      0.17988334E-05     -0.99632250E-19
    1.004305343805         0.11780695E-04      0.25073867E+00     -0.22884764E-13      0.17180677E-05     -0.15680697E-18
    1.010582252204         0.12027173E-04      0.26100879E+00     -0.18382810E-13      0.18145161E-05     -0.12779610E-18
    1.016859160602         0.12274269E-04      0.27739527E+00     -0.13799940E-13      0.19559047E-05     -0.97302910E-19
