 
 # Omega; pulse ft; proj flux t=    500.250000000000     
    0.000000000000         0.23733438E-09      0.00000000E+00      0.00000000E+00      0.85536111E-08     -0.19418230E-18      0.42725330E-11     -0.96994157E-22
    0.006276908399         0.26847166E-09      0.24933577E+00     -0.58235562E-11      0.83059593E-08     -0.19399631E-18      0.84213638E-11     -0.19389541E-21
    0.012553816798         0.36198451E-09      0.35835299E+00     -0.86650771E-11      0.80478109E-08     -0.19459836E-18      0.12441249E-10     -0.29109739E-21
    0.018830725196         0.51817601E-09      0.37724995E+00     -0.90217954E-11      0.80852228E-08     -0.19335516E-18      0.16479822E-10     -0.38767839E-21
    0.025107633595         0.73755180E-09      0.35733802E+00     -0.84628540E-11      0.81755789E-08     -0.19362264E-18      0.20563528E-10     -0.48439299E-21
    0.031384541994         0.10208207E-08      0.32682711E+00     -0.76610908E-11      0.82795034E-08     -0.19407823E-18      0.24699144E-10     -0.58133517E-21
    0.037661450393         0.13688958E-08      0.29637064E+00     -0.68702826E-11      0.83899826E-08     -0.19449144E-18      0.28889945E-10     -0.67848374E-21
    0.043938358791         0.17828953E-08      0.26918691E+00     -0.61162085E-11      0.85072362E-08     -0.19329332E-18      0.33139313E-10     -0.77503385E-21
    0.050215267190         0.22641447E-08      0.24562639E+00     -0.55081441E-11      0.86257321E-08     -0.19343107E-18      0.37447871E-10     -0.87165276E-21
    0.056492175589         0.28141777E-08      0.22557028E+00     -0.50039138E-11      0.87518051E-08     -0.19414472E-18      0.41819402E-10     -0.96862814E-21
    0.062769083988         0.34347388E-08      0.20825222E+00     -0.45315730E-11      0.88754445E-08     -0.19312987E-18      0.46252691E-10     -0.10650966E-20
    0.069045992387         0.41277855E-08      0.19346153E+00     -0.41646125E-11      0.90079463E-08     -0.19391249E-18      0.50752164E-10     -0.11619560E-20
    0.075322900785         0.48954902E-08      0.18054144E+00     -0.38259410E-11      0.91389982E-08     -0.19366893E-18      0.55317099E-10     -0.12586937E-20
    0.081599809184         0.57402438E-08      0.16938610E+00     -0.35421307E-11      0.92805028E-08     -0.19406996E-18      0.59952714E-10     -0.13556318E-20
    0.087876717583         0.66646579E-08      0.15942381E+00     -0.32866390E-11      0.94169393E-08     -0.19413712E-18      0.64656480E-10     -0.14526034E-20
    0.094153625982         0.76715684E-08      0.15074060E+00     -0.30471544E-11      0.95659894E-08     -0.19337223E-18      0.69434697E-10     -0.15491929E-20
    0.100430534380         0.87640384E-08      0.14284931E+00     -0.28583284E-11      0.97088810E-08     -0.19426885E-18      0.74284288E-10     -0.16462303E-20
    0.106707442779         0.99453622E-08      0.13591358E+00     -0.26645536E-11      0.98660040E-08     -0.19342068E-18      0.79212362E-10     -0.17428440E-20
    0.112984351178         0.11219069E-07      0.12951314E+00     -0.25061046E-11      0.10016244E-07     -0.19381628E-18      0.84215480E-10     -0.18396553E-20
    0.119261259577         0.12588925E-07      0.12385109E+00     -0.23608177E-11      0.10182201E-07     -0.19409049E-18      0.89301495E-10     -0.19366036E-20
    0.125538167976         0.14058942E-07      0.11854715E+00     -0.22263654E-11      0.10339999E-07     -0.19418954E-18      0.94466329E-10     -0.20336014E-20
    0.131815076374         0.15633376E-07      0.11383101E+00     -0.21090495E-11      0.10514795E-07     -0.19481706E-18      0.99718475E-10     -0.21309126E-20
    0.138091984773         0.17316734E-07      0.10936607E+00     -0.19872016E-11      0.10681510E-07     -0.19408501E-18      0.10505389E-09     -0.22278582E-20
    0.144368893172         0.19113780E-07      0.10537843E+00     -0.18842797E-11      0.10866189E-07     -0.19429914E-18      0.11048156E-09     -0.23249107E-20
    0.150645801571         0.21029537E-07      0.10156185E+00     -0.17842129E-11      0.11042206E-07     -0.19398667E-18      0.11599715E-09     -0.24218071E-20
    0.156922709970         0.23069292E-07      0.98142036E-01     -0.16972332E-11      0.11237147E-07     -0.19433120E-18      0.12161011E-09     -0.25188757E-20
    0.163199618368         0.25238602E-07      0.94841009E-01     -0.16154136E-11      0.11423386E-07     -0.19457294E-18      0.12731610E-09     -0.26160649E-20
    0.169476526767         0.27543295E-07      0.91871288E-01     -0.15296885E-11      0.11628901E-07     -0.19362520E-18      0.13312474E-09     -0.27127808E-20
    0.175753435166         0.29989481E-07      0.88991357E-01     -0.14708767E-11      0.11826752E-07     -0.19547622E-18      0.13903221E-09     -0.28104213E-20
    0.182030343565         0.32583550E-07      0.86389329E-01     -0.13996866E-11      0.12043903E-07     -0.19513625E-18      0.14504814E-09     -0.29078919E-20
    0.188307251963         0.35332181E-07      0.83855074E-01     -0.13390498E-11      0.12254209E-07     -0.19568281E-18      0.15116913E-09     -0.30056356E-20
    0.194584160362         0.38242343E-07      0.81554954E-01     -0.12738148E-11      0.12483602E-07     -0.19498260E-18      0.15740469E-09     -0.31030295E-20
    0.200861068761         0.41321305E-07      0.79311116E-01     -0.12139793E-11      0.12707639E-07     -0.19451007E-18      0.16375216E-09     -0.32001874E-20
    0.207137977160         0.44576634E-07      0.77263279E-01     -0.11696772E-11      0.12950103E-07     -0.19604966E-18      0.17022075E-09     -0.32981143E-20
    0.213414885559         0.48016203E-07      0.75268979E-01     -0.11085868E-11      0.13189601E-07     -0.19426089E-18      0.17680896E-09     -0.33951477E-20
    0.219691793957         0.51648196E-07      0.73438372E-01     -0.10612895E-11      0.13446737E-07     -0.19432458E-18      0.18352561E-09     -0.34922129E-20
    0.225968702356         0.55481108E-07      0.71656436E-01     -0.10142342E-11      0.13702650E-07     -0.19394904E-18      0.19037009E-09     -0.35890906E-20
    0.232245610755         0.59523755E-07      0.70012359E-01     -0.97500866E-12      0.13975587E-07     -0.19462733E-18      0.19735090E-09     -0.36863070E-20
    0.238522519154         0.63785271E-07      0.68413864E-01     -0.93253184E-12      0.14249108E-07     -0.19422594E-18      0.20446834E-09     -0.37833230E-20
    0.244799427552         0.68275117E-07      0.66931447E-01     -0.88706451E-12      0.14539009E-07     -0.19269028E-18      0.21173058E-09     -0.38795719E-20
    0.251076335951         0.73003082E-07      0.65493810E-01     -0.86395988E-12      0.14831607E-07     -0.19565076E-18      0.21913898E-09     -0.39772995E-20
    0.257353244350         0.77979284E-07      0.64155530E-01     -0.81547666E-12      0.15140361E-07     -0.19244812E-18      0.22670160E-09     -0.40734274E-20
    0.263630152749         0.83214178E-07      0.62861527E-01     -0.78362712E-12      0.15453957E-07     -0.19264788E-18      0.23442085E-09     -0.41696551E-20
    0.269907061148         0.88718553E-07      0.61650219E-01     -0.75403857E-12      0.15782920E-07     -0.19303955E-18      0.24230443E-09     -0.42660785E-20
    0.276183969546         0.94503538E-07      0.60483710E-01     -0.72763444E-12      0.16119092E-07     -0.19391678E-18      0.25035593E-09     -0.43629400E-20
    0.282460877945         0.10058060E-06      0.59388351E-01     -0.69507799E-12      0.16470612E-07     -0.19277113E-18      0.25858300E-09     -0.44592293E-20
    0.288737786344         0.10696156E-06      0.58338921E-01     -0.66707168E-12      0.16831973E-07     -0.19246384E-18      0.26699058E-09     -0.45553651E-20
    0.295014694743         0.11365856E-06      0.57351881E-01     -0.64556649E-12      0.17209121E-07     -0.19370998E-18      0.27558655E-09     -0.46521233E-20
    0.301291603141         0.12068410E-06      0.56405357E-01     -0.60897896E-12      0.17596890E-07     -0.18998436E-18      0.28437620E-09     -0.47470206E-20
    0.307568511540         0.12805103E-06      0.55515092E-01     -0.60084701E-12      0.18001339E-07     -0.19483081E-18      0.29336788E-09     -0.48443387E-20
    0.313845419939         0.13577253E-06      0.54670009E-01     -0.58076979E-12      0.18420347E-07     -0.19568281E-18      0.30256885E-09     -0.49420824E-20
    0.320122328338         0.14386214E-06      0.53876996E-01     -0.55698288E-12      0.18857601E-07     -0.19495075E-18      0.31198823E-09     -0.50394604E-20
    0.326399236737         0.15233372E-06      0.53116962E-01     -0.53933248E-12      0.19307795E-07     -0.19604511E-18      0.32163249E-09     -0.51373850E-20
    0.332676145135         0.16120149E-06      0.52411738E-01     -0.51587897E-12      0.19780101E-07     -0.19469185E-18      0.33151266E-09     -0.52346337E-20
    0.338953053534         0.17048002E-06      0.51734713E-01     -0.49632146E-12      0.20266022E-07     -0.19442384E-18      0.34163555E-09     -0.53317485E-20
    0.345229961933         0.18018417E-06      0.51113304E-01     -0.47497854E-12      0.20777565E-07     -0.19307884E-18      0.35201395E-09     -0.54281914E-20
    0.351506870332         0.19032920E-06      0.50513763E-01     -0.45881149E-12      0.21302661E-07     -0.19348995E-18      0.36265464E-09     -0.55248398E-20
    0.357783778731         0.20093064E-06      0.49974729E-01     -0.44035811E-12      0.21858910E-07     -0.19261231E-18      0.37357318E-09     -0.56210497E-20
    0.364060687129         0.21200438E-06      0.49445369E-01     -0.42488843E-12      0.22425865E-07     -0.19270744E-18      0.38477491E-09     -0.57173072E-20
    0.370337595528         0.22356662E-06      0.48982243E-01     -0.41418377E-12      0.23030341E-07     -0.19473982E-18      0.39627857E-09     -0.58145798E-20
    0.376614503927         0.23563389E-06      0.48530637E-01     -0.39443036E-12      0.23648807E-07     -0.19220451E-18      0.40809116E-09     -0.59105861E-20
    0.382891412326         0.24822301E-06      0.48152943E-01     -0.38263075E-12      0.24313181E-07     -0.19319630E-18      0.42023561E-09     -0.60070877E-20
    0.389168320724         0.26135112E-06      0.47765148E-01     -0.36593789E-12      0.24983343E-07     -0.19140215E-18      0.43271480E-09     -0.61026932E-20
    0.395445229123         0.27503566E-06      0.47466625E-01     -0.35925318E-12      0.25712455E-07     -0.19460582E-18      0.44555819E-09     -0.61998989E-20
    0.401722137522         0.28929433E-06      0.47142879E-01     -0.34420398E-12      0.26441300E-07     -0.19305568E-18      0.45876563E-09     -0.62963303E-20
    0.407999045921         0.30414516E-06      0.46925643E-01     -0.33327354E-12      0.27244857E-07     -0.19349740E-18      0.47237445E-09     -0.63929824E-20
    0.414275954320         0.31960641E-06      0.46665995E-01     -0.32470382E-12      0.28040052E-07     -0.19510378E-18      0.48638047E-09     -0.64904368E-20
    0.420552862718         0.33569662E-06      0.46535532E-01     -0.31105431E-12      0.28931010E-07     -0.19338159E-18      0.50083152E-09     -0.65870310E-20
    0.426829771117         0.35243458E-06      0.46337892E-01     -0.29997312E-12      0.29799751E-07     -0.19291175E-18      0.51571651E-09     -0.66833905E-20
    0.433106679516         0.36983933E-06      0.46302065E-01     -0.28905885E-12      0.30794355E-07     -0.19224587E-18      0.53109831E-09     -0.67794174E-20
    0.439383587915         0.38793013E-06      0.46166193E-01     -0.28281942E-12      0.31745801E-07     -0.19447843E-18      0.54695535E-09     -0.68765595E-20
    0.445660496313         0.40672647E-06      0.46245895E-01     -0.27382978E-12      0.32871841E-07     -0.19463973E-18      0.56337485E-09     -0.69737821E-20
    0.451937404712         0.42624802E-06      0.46176771E-01     -0.26440135E-12      0.33920339E-07     -0.19422284E-18      0.58031808E-09     -0.70707965E-20
    0.458214313111         0.44651466E-06      0.46505741E-01     -0.25952563E-12      0.35296056E-07     -0.19696990E-18      0.59794848E-09     -0.71691831E-20
    0.464491221510         0.46754647E-06      0.46412637E-01     -0.24646684E-12      0.36386146E-07     -0.19322277E-18      0.61612338E-09     -0.72656980E-20
    0.470768129909         0.48936365E-06      0.46163500E-01     -0.23790272E-12      0.37374545E-07     -0.19260901E-18      0.63479198E-09     -0.73619063E-20
    0.477045038307         0.51198657E-06      0.46188851E-01     -0.23243133E-12      0.38609029E-07     -0.19428818E-18      0.65407721E-09     -0.74589533E-20
    0.483321946706         0.53543573E-06      0.46701557E-01     -0.22631348E-12      0.40295331E-07     -0.19526922E-18      0.67420475E-09     -0.75564904E-20
    0.489598855105         0.55973174E-06      0.46778331E-01     -0.21855837E-12      0.41652090E-07     -0.19460747E-18      0.69500999E-09     -0.76536969E-20
    0.495875763504         0.58489532E-06      0.47341020E-01     -0.21190178E-12      0.43490602E-07     -0.19466703E-18      0.71673357E-09     -0.77509332E-20
    0.502152671902         0.61094726E-06      0.47434991E-01     -0.20835289E-12      0.44948925E-07     -0.19743312E-18      0.73918558E-09     -0.78495511E-20
    0.508429580301         0.63790841E-06      0.48175815E-01     -0.19976924E-12      0.47077038E-07     -0.19521297E-18      0.76270058E-09     -0.79470601E-20
    0.514706488700         0.66579967E-06      0.48199266E-01     -0.19164861E-12      0.48559800E-07     -0.19308215E-18      0.78695622E-09     -0.80435047E-20
    0.520983397099         0.69464194E-06      0.48984092E-01     -0.18923855E-12      0.50868006E-07     -0.19651661E-18      0.81236482E-09     -0.81416649E-20
    0.527260305498         0.72445614E-06      0.49095866E-01     -0.18386095E-12      0.52539325E-07     -0.19675649E-18      0.83860824E-09     -0.82399449E-20
    0.533537213896         0.75526319E-06      0.50342762E-01     -0.17638411E-12      0.55503859E-07     -0.19446685E-18      0.86633244E-09     -0.83370811E-20
    0.539814122295         0.78708392E-06      0.50341964E-01     -0.17400208E-12      0.57168855E-07     -0.19759856E-18      0.89488831E-09     -0.84357817E-20
    0.546091030694         0.81993914E-06      0.51836273E-01     -0.16892528E-12      0.60618179E-07     -0.19754397E-18      0.92516713E-09     -0.85344550E-20
    0.552367939093         0.85384956E-06      0.51568345E-01     -0.16531772E-12      0.62085278E-07     -0.19903289E-18      0.95617875E-09     -0.86338721E-20
    0.558644847491         0.88883579E-06      0.53440576E-01     -0.15855922E-12      0.66223085E-07     -0.19648517E-18      0.98925722E-09     -0.87320165E-20
    0.564921755890         0.92491828E-06      0.52664503E-01     -0.15687499E-12      0.67156119E-07     -0.20004205E-18      0.10228017E-08     -0.88319376E-20
    0.571198664289         0.96211735E-06      0.55138391E-01     -0.15223558E-12      0.72334834E-07     -0.19971449E-18      0.10589330E-08     -0.89316951E-20
    0.577475572688         0.10004531E-05      0.53223187E-01     -0.14889619E-12      0.71815229E-07     -0.20090894E-18      0.10948048E-08     -0.90320492E-20
    0.583752481087         0.10399456E-05      0.56520121E-01     -0.14227579E-12      0.78421925E-07     -0.19740831E-18      0.11339766E-08     -0.91306548E-20
    0.590029389485         0.10806144E-05      0.52120149E-01     -0.13616209E-12      0.74345604E-07     -0.19422532E-18      0.11711122E-08     -0.92276704E-20
    0.596306297884         0.11224790E-05      0.56586191E-01     -0.13464026E-12      0.82960588E-07     -0.19739507E-18      0.12125511E-08     -0.93262693E-20
    0.602583206283         0.11655585E-05      0.45769136E-01     -0.12951553E-12      0.68951279E-07     -0.19511536E-18      0.12469923E-08     -0.94237296E-20
    0.608860114682         0.12098719E-05      0.52038128E-01     -0.12895983E-12      0.80537116E-07     -0.19958545E-18      0.12872206E-08     -0.95234226E-20
    0.615137023081         0.12554376E-05      0.19391437E-01     -0.12174609E-12      0.30823774E-07     -0.19352221E-18      0.13026171E-08     -0.96200870E-20
    0.621413931479         0.13022739E-05      0.27251204E-01     -0.12001149E-12      0.44479466E-07     -0.19588299E-18      0.13248346E-08     -0.97179307E-20
    0.627690839878         0.13503983E-05     -0.16224707E+00     -0.11178929E-12     -0.27186013E-06     -0.18731340E-18      0.11890403E-08     -0.98114938E-20
    0.633967748277         0.13998285E-05     -0.59939160E+00     -0.73111170E-13     -0.10307915E-05     -0.12573145E-18      0.67415945E-09     -0.98742967E-20
    0.640244656676         0.14505812E-05     -0.46576177E-01     -0.10780947E-12     -0.82188764E-07     -0.19024161E-18      0.63310612E-09     -0.99693225E-20
    0.646521565074         0.15026729E-05      0.38315493E+00     -0.11522390E-12      0.69359887E-06     -0.20858186E-18      0.97955910E-09     -0.10073509E-19
    0.652798473473         0.15561195E-05      0.27825987E+00     -0.12034495E-12      0.51661491E-06     -0.22343141E-18      0.12376085E-08     -0.10185113E-19
    0.659075381872         0.16109365E-05      0.32454189E+00     -0.11314067E-12      0.61782666E-06     -0.21538460E-18      0.15462132E-08     -0.10292698E-19
    0.665352290271         0.16671388E-05      0.34523172E+00     -0.12526063E-12      0.67372605E-06     -0.24444841E-18      0.18827397E-08     -0.10414800E-19
    0.671629198670         0.17247407E-05      0.45763376E+00     -0.96002181E-13      0.91530289E-06     -0.19201178E-18      0.23399340E-08     -0.10510710E-19
    0.677906107068         0.17837558E-05      0.56086656E+00     -0.11167274E-12      0.11494178E-05     -0.22885771E-18      0.29140688E-08     -0.10625025E-19
    0.684183015467         0.18441971E-05      0.11755248E+01     -0.10601210E-12      0.24678536E-05     -0.22255791E-18      0.41467629E-08     -0.10736192E-19
    0.690459923866         0.19060772E-05      0.27943157E+01     -0.67366171E-13      0.60080014E-05     -0.14484263E-18      0.71477626E-08     -0.10808541E-19
    0.696736832265         0.19694076E-05      0.47256807E+01     -0.21873153E-12      0.10403603E-04     -0.48153823E-18      0.12344367E-07     -0.11049070E-19
    0.703013740663         0.20341994E-05      0.49570058E+01     -0.11895748E-12      0.11171248E-04     -0.26808593E-18      0.17924411E-07     -0.11182979E-19
    0.709290649062         0.21004628E-05      0.52918845E+01     -0.31032281E-12      0.12205446E-04     -0.71574284E-18      0.24021038E-07     -0.11540493E-19
    0.715567557461         0.21682073E-05      0.78666943E+01     -0.25375641E-12      0.18565001E-04     -0.59885229E-18      0.33294265E-07     -0.11839620E-19
    0.721844465860         0.22374415E-05      0.10800955E+02     -0.70804500E-12      0.26074907E-04     -0.17093125E-17      0.46318694E-07     -0.12693422E-19
    0.728121374259         0.23081733E-05      0.11154659E+02     -0.49607966E-12      0.27540606E-04     -0.12248096E-17      0.60075240E-07     -0.13305216E-19
    0.734398282657         0.23804097E-05      0.10264371E+02     -0.83747583E-12      0.25912238E-04     -0.21141942E-17      0.73018416E-07     -0.14361257E-19
    0.740675191056         0.24541568E-05      0.10108736E+02     -0.60984429E-12      0.26086986E-04     -0.15737872E-17      0.86048879E-07     -0.15147364E-19
    0.746952099455         0.25294198E-05      0.10046066E+02     -0.39630975E-12      0.26495783E-04     -0.10452387E-17      0.99283535E-07     -0.15669461E-19
    0.753229007854         0.26062031E-05      0.10713368E+02     -0.80150590E-12      0.28870865E-04     -0.21599340E-17      0.11370455E-06     -0.16748349E-19
    0.759505916252         0.26845099E-05      0.10971099E+02      0.36922845E-13      0.30202058E-04      0.10164395E-18      0.12879049E-06     -0.16697578E-19
    0.765782824651         0.27643427E-05      0.93141219E+01     -0.31754268E-12      0.26186697E-04     -0.89277273E-18      0.14187076E-06     -0.17143519E-19
