 
 # Omega; pulse ft; proj flux t=    500.100000000000     
    0.000000000000         0.76130340E-13      0.00000000E+00      0.00000000E+00      0.00000000E+00      0.00000000E+00      0.00000000E+00      0.00000000E+00
    0.006280045285         0.34874077E-10     -0.31519168E-16      0.65262432E-26     -0.10848192E-25      0.22461869E-35     -0.68127138E-28      0.14106155E-37
    0.012560090569         0.13937409E-09     -0.28775977E-16      0.24993771E-26     -0.19790740E-25      0.17189519E-35     -0.19241388E-27      0.24901251E-37
    0.018840135854         0.31389481E-09     -0.21157849E-16      0.11274236E-26     -0.21848131E-25      0.11642062E-35     -0.32962113E-27      0.32212518E-37
    0.025120181138         0.55896774E-09     -0.16086645E-16      0.14100475E-26     -0.22185648E-25      0.19446453E-35     -0.46894801E-27      0.44424979E-37
    0.031400226423         0.87533792E-09     -0.13043596E-16      0.25233830E-27     -0.22536319E-25      0.43598226E-36     -0.61047711E-27      0.47162967E-37
    0.037680271707         0.12639648E-08     -0.11022057E-16      0.88701831E-28     -0.22915340E-25      0.18441499E-36     -0.75438648E-27      0.48321102E-37
    0.043960316992         0.17260235E-08     -0.95786065E-17      0.37204841E-27     -0.23309390E-25      0.90537401E-36     -0.90077051E-27      0.54006891E-37
    0.050240362276         0.22629062E-08     -0.84932999E-17      0.66003311E-27     -0.23710075E-25      0.18425623E-35     -0.10496708E-26      0.65578266E-37
    0.056520407561         0.28762236E-08     -0.76498458E-17      0.30683810E-27     -0.24127522E-25      0.96776369E-36     -0.12011928E-26      0.71655866E-37
    0.062800452845         0.35678072E-08     -0.70030777E-17      0.21329533E-27     -0.24658702E-25      0.75103924E-36     -0.13560505E-26      0.76372426E-37
    0.069080498130         0.43397112E-08     -0.64740963E-17      0.12550449E-27     -0.25207351E-25      0.48866060E-36     -0.15143538E-26      0.79441237E-37
    0.075360543414         0.51942150E-08     -0.60091046E-17      0.29980518E-27     -0.25670146E-25      0.12807304E-35     -0.16755635E-26      0.87484282E-37
    0.081640588699         0.61338257E-08     -0.56161972E-17      0.19877359E-27     -0.26152326E-25      0.92560708E-36     -0.18398013E-26      0.93297136E-37
    0.087920633984         0.71612808E-08     -0.52885325E-17      0.27115988E-27     -0.26697940E-25      0.13688883E-35     -0.20074656E-26      0.10189382E-36
    0.094200679268         0.82795515E-08     -0.50051594E-17     -0.20166420E-28     -0.27265494E-25     -0.10985612E-36     -0.21786941E-26      0.10120392E-36
    0.100480724553         0.94918457E-08     -0.47607716E-17      0.73182871E-29     -0.27873271E-25      0.42846961E-37     -0.23537395E-26      0.10147300E-36
    0.106760769837         0.10801611E-07     -0.45456266E-17      0.23626536E-28     -0.28504490E-25      0.14815611E-36     -0.25327490E-26      0.10240342E-36
    0.113040815122         0.12212540E-07     -0.43531839E-17      0.47379169E-28     -0.29148781E-25      0.31724940E-36     -0.27158047E-26      0.10439576E-36
    0.119320860406         0.13728570E-07     -0.41816220E-17     -0.55281324E-28     -0.29819226E-25     -0.39421216E-36     -0.29030708E-26      0.10192009E-36
    0.125600905691         0.15353891E-07     -0.40307292E-17      0.25586954E-27     -0.30538801E-25      0.19385944E-35     -0.30948558E-26      0.11409455E-36
    0.131880950975         0.17092949E-07     -0.38947875E-17      0.26601066E-27     -0.31286816E-25      0.21368628E-35     -0.32913384E-26      0.12751415E-36
    0.138160996260         0.18950447E-07     -0.37690625E-17      0.23680701E-27     -0.32041291E-25      0.20131273E-35     -0.34925592E-26      0.14015668E-36
    0.144441041544         0.20931352E-07     -0.36550048E-17      0.19303431E-27     -0.32827461E-25      0.17337395E-35     -0.36987171E-26      0.15104464E-36
    0.150721086829         0.23040899E-07     -0.35506577E-17      0.21836934E-27     -0.33641618E-25      0.20689964E-35     -0.39099880E-26      0.16403803E-36
    0.157001132113         0.25284593E-07     -0.34555017E-17      0.24816768E-27     -0.34491094E-25      0.24770859E-35     -0.41265937E-26      0.17959425E-36
    0.163281177398         0.27668217E-07     -0.33700737E-17      0.16967162E-27     -0.35393794E-25      0.17819558E-35     -0.43488683E-26      0.19078501E-36
    0.169561222683         0.30197832E-07     -0.32918457E-17      0.14900294E-27     -0.36335519E-25      0.16447001E-35     -0.45770570E-26      0.20111380E-36
    0.175841267967         0.32879785E-07     -0.32182334E-17      0.13036791E-27     -0.37296525E-25      0.15108507E-35     -0.48112809E-26      0.21060201E-36
    0.182121313252         0.35720711E-07     -0.31507268E-17      0.11696417E-27     -0.38301232E-25      0.14218534E-35     -0.50518143E-26      0.21953131E-36
    0.188401358536         0.38727539E-07     -0.30882494E-17      0.16206663E-27     -0.39345124E-25      0.20647722E-35     -0.52989035E-26      0.23249818E-36
    0.194681403821         0.41907495E-07     -0.30309092E-17      0.12106468E-27     -0.40437364E-25      0.16152040E-35     -0.55528520E-26      0.24264173E-36
    0.200961449105         0.45268105E-07     -0.29778318E-17      0.13717233E-27     -0.41574056E-25      0.19150881E-35     -0.58139389E-26      0.25466857E-36
    0.207241494390         0.48817202E-07     -0.29292227E-17      0.10930853E-27     -0.42765271E-25      0.15958530E-35     -0.60825068E-26      0.26469060E-36
    0.213521539674         0.52562928E-07     -0.28814620E-17      0.10903829E-27     -0.43963619E-25      0.16636407E-35     -0.63586003E-26      0.27513834E-36
    0.219801584959         0.56513737E-07     -0.28379039E-17      0.10036032E-27     -0.45223437E-25      0.15992926E-35     -0.66426055E-26      0.28518197E-36
    0.226081630243         0.60678401E-07     -0.27961866E-17      0.87421638E-28     -0.46513357E-25      0.14542212E-35     -0.69347115E-26      0.29431454E-36
    0.232361675528         0.65066012E-07     -0.27584570E-17      0.82766013E-28     -0.47873875E-25      0.14364298E-35     -0.72353616E-26      0.30333539E-36
    0.238641720812         0.69685984E-07     -0.27233050E-17      0.74008954E-28     -0.49287640E-25      0.13394485E-35     -0.75448902E-26      0.31174719E-36
    0.244921766097         0.74548059E-07     -0.26918424E-17      0.78587474E-28     -0.50781002E-25      0.14825350E-35     -0.78637972E-26      0.32105757E-36
    0.251201811381         0.79662308E-07     -0.26631842E-17      0.89401813E-28     -0.52344854E-25      0.17571916E-35     -0.81925253E-26      0.33209281E-36
    0.257481856666         0.85039131E-07     -0.26379318E-17      0.82812659E-28     -0.53998093E-25      0.16951635E-35     -0.85316357E-26      0.34273852E-36
    0.263761901951         0.90689267E-07     -0.26141053E-17      0.77882255E-28     -0.55706976E-25      0.16596825E-35     -0.88814781E-26      0.35316140E-36
    0.270041947235         0.96623785E-07     -0.25937200E-17      0.59186346E-28     -0.57519960E-25      0.13125535E-35     -0.92427060E-26      0.36140430E-36
    0.276321992520         0.10285409E-06     -0.25757931E-17      0.76331132E-28     -0.59423714E-25      0.17609641E-35     -0.96158896E-26      0.37246323E-36
    0.282602037804         0.10939194E-06     -0.25611083E-17      0.58615591E-28     -0.61444169E-25      0.14062608E-35     -0.10001762E-25      0.38129461E-36
    0.288882083089         0.11624942E-06     -0.25468316E-17      0.54023017E-28     -0.63520382E-25      0.13473850E-35     -0.10400673E-25      0.38975625E-36
    0.295162128373         0.12343895E-06     -0.25360080E-17      0.55945906E-28     -0.65733216E-25      0.14501154E-35     -0.10813480E-25      0.39886304E-36
    0.301442173658         0.13097330E-06     -0.25283723E-17      0.41986831E-28     -0.68086727E-25      0.11306665E-35     -0.11241068E-25      0.40596368E-36
    0.307722218942         0.13886558E-06     -0.25240273E-17      0.50587890E-28     -0.70594763E-25      0.14148975E-35     -0.11684406E-25      0.41484930E-36
    0.314002264227         0.14712923E-06     -0.25164623E-17      0.61403722E-28     -0.73080126E-25      0.17832144E-35     -0.12143353E-25      0.42604797E-36
    0.320282309511         0.15577804E-06     -0.25132242E-17      0.57131874E-28     -0.75761260E-25      0.17222430E-35     -0.12619137E-25      0.43686373E-36
    0.326562354796         0.16482612E-06     -0.25137262E-17      0.54909007E-28     -0.78635845E-25      0.17176955E-35     -0.13112974E-25      0.44765093E-36
    0.332842400080         0.17428793E-06     -0.25174604E-17      0.43908801E-28     -0.81702247E-25      0.14250265E-35     -0.13626067E-25      0.45660017E-36
    0.339122445365         0.18417826E-06     -0.25215092E-17      0.47324049E-28     -0.84876031E-25      0.15929656E-35     -0.14159093E-25      0.46660406E-36
    0.345402490650         0.19451221E-06     -0.25300856E-17      0.35591105E-28     -0.88307848E-25      0.12422402E-35     -0.14713670E-25      0.47440539E-36
    0.351682535934         0.20530523E-06     -0.25392091E-17      0.31779668E-28     -0.91873518E-25      0.11498501E-35     -0.15290640E-25      0.48162650E-36
    0.357962581219         0.21657306E-06     -0.25530352E-17      0.33050085E-28     -0.95734019E-25      0.12393160E-35     -0.15891854E-25      0.48940946E-36
    0.364242626503         0.22833179E-06     -0.25716077E-17      0.24846564E-28     -0.99913233E-25      0.96534961E-36     -0.16519313E-25      0.49547190E-36
    0.370522671788         0.24059779E-06     -0.25949386E-17      0.27335724E-28     -0.10443513E-24      0.11001454E-35     -0.17175171E-25      0.50238086E-36
    0.376802717072         0.25338774E-06     -0.26130210E-17      0.38399746E-28     -0.10890734E-24      0.16004518E-35     -0.17859114E-25      0.51243177E-36
    0.383082762357         0.26671863E-06     -0.26370509E-17      0.37341487E-28     -0.11379467E-24      0.16113691E-35     -0.18573750E-25      0.52255124E-36
    0.389362807641         0.28060773E-06     -0.26634675E-17      0.36602001E-28     -0.11896939E-24      0.16349055E-35     -0.19320883E-25      0.53281852E-36
    0.395642852926         0.29507259E-06     -0.26963513E-17      0.31573031E-28     -0.12463634E-24      0.14594341E-35     -0.20103605E-25      0.54198383E-36
    0.401922898210         0.31013104E-06     -0.27309105E-17      0.32738300E-28     -0.13060284E-24      0.15656738E-35     -0.20923796E-25      0.55181634E-36
    0.408202943495         0.32580116E-06     -0.27726950E-17      0.28164117E-28     -0.13715804E-24      0.13932059E-35     -0.21785155E-25      0.56056573E-36
    0.414482988779         0.34210131E-06     -0.28145703E-17      0.25454258E-28     -0.14398021E-24      0.13021204E-35     -0.22689357E-25      0.56874311E-36
    0.420763034064         0.35905007E-06     -0.28646020E-17      0.26633154E-28     -0.15150410E-24      0.14085839E-35     -0.23640810E-25      0.57758908E-36
    0.427043079349         0.37666626E-06     -0.29145081E-17      0.21873220E-28     -0.15932832E-24      0.11957501E-35     -0.24641399E-25      0.58509844E-36
    0.433323124633         0.39496893E-06     -0.29732317E-17      0.18634704E-28     -0.16796643E-24      0.10527282E-35     -0.25696236E-25      0.59170962E-36
    0.439603169918         0.41397733E-06     -0.30281884E-17      0.18071915E-28     -0.17674263E-24      0.10547817E-35     -0.26806187E-25      0.59833370E-36
    0.445883215202         0.43371092E-06     -0.30902433E-17      0.17014435E-28     -0.18630074E-24      0.10257451E-35     -0.27976164E-25      0.60477543E-36
    0.452163260487         0.45418931E-06     -0.31189476E-17      0.19248227E-28     -0.19417459E-24      0.11983262E-35     -0.29195590E-25      0.61230097E-36
    0.458443305771         0.47543232E-06     -0.30663723E-17      0.15664365E-28     -0.19709274E-24      0.10068355E-35     -0.30433341E-25      0.61862394E-36
    0.464723351056         0.49745989E-06     -0.33256255E-17      0.13311823E-28     -0.22063764E-24      0.88316891E-36     -0.31818955E-25      0.62417028E-36
    0.471003396340         0.52029212E-06     -0.38358467E-17      0.15643289E-28     -0.26261960E-24      0.10710110E-35     -0.33468218E-25      0.63089628E-36
    0.477283441625         0.54394922E-06     -0.39810693E-17      0.15430565E-28     -0.28120588E-24      0.10899498E-35     -0.35234204E-25      0.63774121E-36
    0.483563486909         0.56845152E-06     -0.39987241E-17      0.17608010E-28     -0.29134264E-24      0.12829002E-35     -0.37063849E-25      0.64579788E-36
    0.489843532194         0.59381941E-06     -0.41314482E-17      0.14086839E-28     -0.31041450E-24      0.10584083E-35     -0.39013266E-25      0.65244474E-36
    0.496123577478         0.62007337E-06     -0.42990359E-17      0.10731962E-28     -0.33301742E-24      0.83133301E-36     -0.41104631E-25      0.65766555E-36
    0.502403622763         0.64723393E-06     -0.44915204E-17      0.13245064E-28     -0.35862830E-24      0.10575606E-35     -0.43356833E-25      0.66430707E-36
    0.508683668048         0.67532166E-06     -0.47109903E-17      0.13195513E-28     -0.38763035E-24      0.10857550E-35     -0.45791169E-25      0.67112566E-36
    0.514963713332         0.70435711E-06     -0.50649396E-17      0.13652406E-28     -0.42937150E-24      0.11573591E-35     -0.48487641E-25      0.67839393E-36
    0.521243758617         0.73436086E-06     -0.54601551E-17      0.12250151E-28     -0.47677811E-24      0.10696773E-35     -0.51481829E-25      0.68511155E-36
    0.527523803901         0.76535344E-06     -0.57797743E-17      0.95977530E-29     -0.51972491E-24      0.86304258E-36     -0.54745725E-25      0.69053150E-36
    0.533803849186         0.79735534E-06     -0.60950837E-17      0.16900535E-28     -0.56427726E-24      0.15646360E-35     -0.58289412E-25      0.70035749E-36
    0.540083894470         0.83038696E-06     -0.65554964E-17      0.16302914E-28     -0.62469432E-24      0.15535570E-35     -0.62212521E-25      0.71011389E-36
    0.546363939755         0.86446862E-06     -0.70789262E-17      0.16733861E-28     -0.69418826E-24      0.16409904E-35     -0.66572054E-25      0.72041939E-36
    0.552643985039         0.89962053E-06     -0.77833823E-17      0.14146124E-28     -0.78528074E-24      0.14272303E-35     -0.71503653E-25      0.72938246E-36
    0.558924030324         0.93586274E-06     -0.85506016E-17      0.12476387E-28     -0.88735770E-24      0.12947648E-35     -0.77076300E-25      0.73751364E-36
    0.565204075608         0.97321515E-06     -0.95885565E-17      0.14992280E-28     -0.10232918E-23      0.15999777E-35     -0.83502618E-25      0.74756157E-36
    0.571484120893         0.10116975E-05     -0.10681759E-16      0.14846282E-28     -0.11720116E-23      0.16289467E-35     -0.90862904E-25      0.75779143E-36
    0.577764166177         0.10513292E-05     -0.12378934E-16      0.15784577E-28     -0.13960920E-23      0.17801792E-35     -0.99630426E-25      0.76897104E-36
    0.584044211462         0.10921295E-05     -0.14058783E-16      0.12446589E-28     -0.16293666E-23      0.14425187E-35     -0.10986292E-24      0.77803012E-36
    0.590324256747         0.11341175E-05     -0.17077221E-16      0.12466955E-28     -0.20334210E-23      0.14844669E-35     -0.12263290E-24      0.78735264E-36
    0.596604302031         0.11773119E-05     -0.19914145E-16      0.13055586E-28     -0.24356198E-23      0.15967768E-35     -0.13792870E-24      0.79738047E-36
    0.602884347316         0.12217310E-05     -0.26308589E-16      0.13274725E-28     -0.33043178E-23      0.16672847E-35     -0.15867997E-24      0.80785109E-36
    0.609164392600         0.12673928E-05     -0.31596225E-16      0.12844520E-28     -0.40743150E-23      0.16562934E-35     -0.18426685E-24      0.81825269E-36
    0.615444437885         0.13143151E-05     -0.51015871E-16      0.10894339E-28     -0.67524075E-23      0.14419633E-35     -0.22667227E-24      0.82730829E-36
    0.621724483169         0.13625152E-05     -0.58422430E-16      0.11383207E-28     -0.79353425E-23      0.15461467E-35     -0.27650658E-24      0.83701816E-36
    0.628004528454         0.14120099E-05     -0.35166773E-15      0.27179461E-28     -0.49006100E-22      0.37875507E-35     -0.58426711E-24      0.86080415E-36
    0.634284573738         0.14628155E-05     -0.62869713E-15      0.51032380E-28     -0.89864792E-22      0.72944729E-35     -0.11486221E-23      0.90661377E-36
    0.640564619023         0.15149482E-05     -0.18090533E-15      0.24569363E-28     -0.26517274E-22      0.36014004E-35     -0.13151518E-23      0.92923073E-36
    0.646844664307         0.15684233E-05      0.19602277E-15      0.69403216E-30      0.29458626E-22      0.10430030E-36     -0.11301503E-23      0.92988574E-36
    0.653124709592         0.16232557E-05      0.13766024E-15      0.88356841E-30      0.21205183E-22      0.13610487E-36     -0.99698074E-24      0.93074048E-36
    0.659404754876         0.16794598E-05      0.10626015E-15      0.49732676E-29      0.16773768E-22      0.78505852E-36     -0.89164072E-24      0.93567068E-36
    0.665684800161         0.17370493E-05      0.12207189E-15      0.48686396E-29      0.19742487E-22      0.78739709E-36     -0.76765700E-24      0.94061557E-36
    0.671964845445         0.17960375E-05      0.13695771E-15     -0.58500411E-29      0.22688094E-22     -0.96910412E-36     -0.62517474E-24      0.93452956E-36
    0.678244890730         0.18564368E-05      0.21579485E-15     -0.59221397E-29      0.36608117E-22     -0.10046504E-35     -0.39527411E-24      0.92822031E-36
    0.684524936015         0.19182592E-05      0.81960585E-15     -0.47308843E-28      0.14235271E-21     -0.82168055E-35      0.49870736E-24      0.87661840E-36
    0.690804981299         0.19815157E-05      0.24058384E-14     -0.46134571E-28      0.42771176E-21     -0.82018387E-35      0.31847566E-23      0.82511048E-36
    0.697085026584         0.20462170E-05      0.39568350E-14     -0.13368277E-27      0.71987409E-21     -0.24321146E-34      0.77055985E-23      0.67237258E-36
    0.703365071868         0.21123726E-05      0.41519468E-14      0.35379439E-28      0.77283037E-21      0.65854179E-35      0.12559008E-22      0.71372930E-36
    0.709645117153         0.21799915E-05      0.46413140E-14     -0.26805801E-28      0.88368445E-21     -0.51036989E-35      0.18108587E-22      0.68167784E-36
    0.715925162437         0.22490820E-05      0.71686313E-14     -0.55407061E-27      0.13957787E-20     -0.10788112E-33      0.26874140E-22      0.41795297E-38
    0.722205207722         0.23196512E-05      0.97453789E-14     -0.34283942E-27      0.19400078E-20     -0.68248877E-34      0.39057477E-22     -0.42442651E-36
    0.728485253006         0.23917059E-05      0.99868325E-14     -0.49089340E-27      0.20321579E-20     -0.99888816E-34      0.51819521E-22     -0.10517328E-35
    0.734765298291         0.24652514E-05      0.91528362E-14     -0.59306544E-28      0.19033162E-20     -0.12332692E-34      0.63772433E-22     -0.11291827E-35
    0.741045343575         0.25402927E-05      0.88322765E-14     -0.18090228E-27      0.18765248E-20     -0.38434894E-34      0.75557093E-22     -0.13705555E-35
    0.747325388860         0.26168335E-05      0.89244276E-14     -0.81722189E-27      0.19368206E-20     -0.17735728E-33      0.87720414E-22     -0.24843673E-35
    0.753605434144         0.26948767E-05      0.95761181E-14     -0.47000487E-27      0.21223990E-20     -0.10416934E-33      0.10104918E-21     -0.31385554E-35
    0.759885479429         0.27744242E-05      0.95266334E-14     -0.60081450E-27      0.21557919E-20     -0.13595895E-33      0.11458765E-21     -0.39923838E-35
    0.766165524714         0.28554769E-05      0.80837326E-14     -0.16470527E-27      0.18672853E-20     -0.38045755E-34      0.12631428E-21     -0.42313128E-35
