 
 # Omega; pulse ft; proj flux t=    500.250000000000     
    0.000000000000         0.23733438E-09      0.00000000E+00      0.00000000E+00      0.67733190E-23      0.28490221E-32      0.33832762E-26      0.14230880E-35
    0.006276908399         0.26847166E-09      0.21903260E-15      0.85498150E-25      0.72964894E-23      0.28481438E-32      0.70278764E-26      0.28457373E-35
    0.012553816798         0.36198451E-09      0.34910062E-15      0.12680491E-24      0.78400234E-23      0.28477562E-32      0.10943972E-25      0.42681929E-35
    0.018830725196         0.51817601E-09      0.37195078E-15      0.13295116E-24      0.79716509E-23      0.28494098E-32      0.14925816E-25      0.56914745E-35
    0.025107633595         0.73755180E-09      0.35346111E-15      0.12451378E-24      0.80868787E-23      0.28487656E-32      0.18965215E-25      0.71144344E-35
    0.031384541994         0.10208207E-08      0.32250903E-15      0.11239384E-24      0.81701138E-23      0.28472706E-32      0.23046191E-25      0.85366474E-35
    0.037661450393         0.13688958E-08      0.29143667E-15      0.10063460E-24      0.82503063E-23      0.28488737E-32      0.27167224E-25      0.99596613E-35
    0.043938358791         0.17828953E-08      0.26323102E-15      0.90109306E-25      0.83190096E-23      0.28477654E-32      0.31322573E-25      0.11382121E-34
    0.050215267190         0.22641447E-08      0.23911203E-15      0.81137085E-25      0.83969655E-23      0.28493142E-32      0.35516861E-25      0.12805355E-34
    0.056492175589         0.28141777E-08      0.21810190E-15      0.73423411E-25      0.84620424E-23      0.28487236E-32      0.39743656E-25      0.14228294E-34
    0.062769083988         0.34347388E-08      0.20075716E-15      0.66870621E-25      0.85560146E-23      0.28499407E-32      0.44017389E-25      0.15651841E-34
    0.069045992387         0.41277855E-08      0.18568260E-15      0.61188045E-25      0.86457446E-23      0.28490348E-32      0.48335943E-25      0.17074935E-34
    0.075322900785         0.48954902E-08      0.17218601E-15      0.56272464E-25      0.87160470E-23      0.28485092E-32      0.52689613E-25      0.18497767E-34
    0.081599809184         0.57402438E-08      0.16043146E-15      0.52019182E-25      0.87898864E-23      0.28500813E-32      0.57080166E-25      0.19921384E-34
    0.087876717583         0.66646579E-08      0.15011514E-15      0.48237692E-25      0.88670889E-23      0.28493323E-32      0.61509281E-25      0.21344627E-34
    0.094153625982         0.76715684E-08      0.14096475E-15      0.44872800E-25      0.89456141E-23      0.28476251E-32      0.65977620E-25      0.22767017E-34
    0.100430534380         0.87640384E-08      0.13273339E-15      0.41909540E-25      0.90213435E-23      0.28484193E-32      0.70483785E-25      0.24189804E-34
    0.106707442779         0.99453622E-08      0.12536218E-15      0.39249362E-25      0.91000747E-23      0.28491219E-32      0.75029277E-25      0.25612942E-34
    0.112984351178         0.11219069E-07      0.11866841E-15      0.36818511E-25      0.91775374E-23      0.28474576E-32      0.79613462E-25      0.27035248E-34
    0.119261259577         0.12588925E-07      0.11260830E-15      0.34616097E-25      0.92578938E-23      0.28459018E-32      0.84237784E-25      0.28456778E-34
    0.125538167976         0.14058942E-07      0.10706471E-15      0.32653250E-25      0.93384705E-23      0.28481038E-32      0.88902355E-25      0.29879407E-34
    0.131815076374         0.15633376E-07      0.10200055E-15      0.30812649E-25      0.94219923E-23      0.28462252E-32      0.93608645E-25      0.31301098E-34
    0.138091984773         0.17316734E-07      0.97336731E-16      0.29176082E-25      0.95066349E-23      0.28495549E-32      0.98357214E-25      0.32724452E-34
    0.144368893172         0.19113780E-07      0.93054096E-16      0.27612488E-25      0.95953540E-23      0.28472857E-32      0.10315010E-24      0.34146673E-34
    0.150645801571         0.21029537E-07      0.89052053E-16      0.26201856E-25      0.96820911E-23      0.28487693E-32      0.10798631E-24      0.35569634E-34
    0.156922709970         0.23069292E-07      0.85365046E-16      0.24873315E-25      0.97741971E-23      0.28479652E-32      0.11286852E-24      0.36992194E-34
    0.163199618368         0.25238602E-07      0.81889019E-16      0.23649709E-25      0.98633482E-23      0.28485542E-32      0.11779527E-24      0.38415049E-34
    0.169476526767         0.27543295E-07      0.78684203E-16      0.22505126E-25      0.99597041E-23      0.28486581E-32      0.12277015E-24      0.39837955E-34
    0.175753435166         0.29989481E-07      0.75639304E-16      0.21413439E-25      0.10052294E-22      0.28457982E-32      0.12779127E-24      0.41259432E-34
    0.182030343565         0.32583550E-07      0.72828807E-16      0.20422548E-25      0.10153373E-22      0.28471941E-32      0.13286289E-24      0.42681607E-34
    0.188307251963         0.35332181E-07      0.70131144E-16      0.19468316E-25      0.10248655E-22      0.28450135E-32      0.13798210E-24      0.44102693E-34
    0.194584160362         0.38242343E-07      0.67642072E-16      0.18600922E-25      0.10353959E-22      0.28472396E-32      0.14315390E-24      0.45524891E-34
    0.200861068761         0.41321305E-07      0.65234365E-16      0.17761853E-25      0.10452189E-22      0.28458963E-32      0.14837478E-24      0.46946417E-34
    0.207137977160         0.44576634E-07      0.63012148E-16      0.16972462E-25      0.10561470E-22      0.28447553E-32      0.15365024E-24      0.48367374E-34
    0.213414885559         0.48016203E-07      0.60850667E-16      0.16245076E-25      0.10663039E-22      0.28466717E-32      0.15897643E-24      0.49789288E-34
    0.219691793957         0.51648196E-07      0.58853322E-16      0.15559715E-25      0.10776180E-22      0.28490199E-32      0.16435914E-24      0.51212375E-34
    0.225968702356         0.55481108E-07      0.56902098E-16      0.14896521E-25      0.10881222E-22      0.28486181E-32      0.16979431E-24      0.52635261E-34
    0.232245610755         0.59523755E-07      0.55102162E-16      0.14262819E-25      0.10999273E-22      0.28470868E-32      0.17528846E-24      0.54057382E-34
    0.238522519154         0.63785271E-07      0.53333995E-16      0.13684103E-25      0.11108302E-22      0.28500986E-32      0.18083706E-24      0.55481008E-34
    0.244799427552         0.68275117E-07      0.51695825E-16      0.13118843E-25      0.11229491E-22      0.28497065E-32      0.18644619E-24      0.56904438E-34
    0.251076335951         0.73003082E-07      0.50085530E-16      0.12575869E-25      0.11342276E-22      0.28479080E-32      0.19211167E-24      0.58326969E-34
    0.257353244350         0.77979284E-07      0.48591456E-16      0.12079782E-25      0.11467323E-22      0.28507637E-32      0.19783960E-24      0.59750927E-34
    0.263630152749         0.83214178E-07      0.47127147E-16      0.11581582E-25      0.11585797E-22      0.28472308E-32      0.20362671E-24      0.61173120E-34
    0.269907061148         0.88718553E-07      0.45759874E-16      0.11127629E-25      0.11714872E-22      0.28487569E-32      0.20947830E-24      0.62596076E-34
    0.276183969546         0.94503538E-07      0.44424393E-16      0.10685737E-25      0.11839235E-22      0.28477813E-32      0.21539200E-24      0.64018544E-34
    0.282460877945         0.10058060E-06      0.43171255E-16      0.10270082E-25      0.11973004E-22      0.28482779E-32      0.22137252E-24      0.65441260E-34
    0.288737786344         0.10696156E-06      0.41953666E-16      0.98799300E-26      0.12104491E-22      0.28505620E-32      0.22741872E-24      0.66865117E-34
    0.295014694743         0.11365856E-06      0.40804632E-16      0.94900828E-26      0.12243920E-22      0.28476134E-32      0.23353457E-24      0.68287502E-34
    0.301291603141         0.12068410E-06      0.39692886E-16      0.91323844E-26      0.12383067E-22      0.28490479E-32      0.23971992E-24      0.69710602E-34
    0.307568511540         0.12805103E-06      0.38634351E-16      0.87795194E-26      0.12527585E-22      0.28468493E-32      0.24597745E-24      0.71132605E-34
    0.313845419939         0.13577253E-06      0.37649906E-16      0.84492853E-26      0.12685645E-22      0.28468765E-32      0.25231394E-24      0.72554621E-34
    0.320122328338         0.14386214E-06      0.36670951E-16      0.81353788E-26      0.12835277E-22      0.28474811E-32      0.25872516E-24      0.73976940E-34
    0.326399236737         0.15233372E-06      0.35481635E-16      0.78361055E-26      0.12897427E-22      0.28483918E-32      0.26516743E-24      0.75399713E-34
    0.332676145135         0.16120149E-06      0.34553455E-16      0.75490500E-26      0.13040415E-22      0.28489986E-32      0.27168113E-24      0.76822789E-34
    0.338953053534         0.17048002E-06      0.33788548E-16      0.72663575E-26      0.13235977E-22      0.28464478E-32      0.27829251E-24      0.78244591E-34
    0.345229961933         0.18018417E-06      0.32963162E-16      0.70090498E-26      0.13399530E-22      0.28491797E-32      0.28498558E-24      0.79667758E-34
    0.351506870332         0.19032920E-06      0.32177342E-16      0.67533532E-26      0.13569827E-22      0.28480237E-32      0.29176371E-24      0.81090347E-34
    0.357783778731         0.20093064E-06      0.31405018E-16      0.65079671E-26      0.13736532E-22      0.28465801E-32      0.29862512E-24      0.82512215E-34
    0.364060687129         0.21200438E-06      0.30691047E-16      0.62763534E-26      0.13919873E-22      0.28466296E-32      0.30557810E-24      0.83934108E-34
    0.370337595528         0.22356662E-06      0.30005298E-16      0.60591980E-26      0.14107811E-22      0.28488976E-32      0.31262496E-24      0.85357134E-34
    0.376614503927         0.23563389E-06      0.29289754E-16      0.58475021E-26      0.14272793E-22      0.28494670E-32      0.31975423E-24      0.86780444E-34
    0.382891412326         0.24822301E-06      0.28608759E-16      0.56371496E-26      0.14445014E-22      0.28462858E-32      0.32696952E-24      0.88202165E-34
    0.389168320724         0.26135112E-06      0.27977374E-16      0.54453612E-26      0.14633438E-22      0.28481714E-32      0.33427893E-24      0.89624828E-34
    0.395445229123         0.27503566E-06      0.27360737E-16      0.52561721E-26      0.14821187E-22      0.28472446E-32      0.34168212E-24      0.91047028E-34
    0.401722137522         0.28929433E-06      0.26773481E-16      0.50761583E-26      0.15016597E-22      0.28470943E-32      0.34918292E-24      0.92469153E-34
    0.407999045921         0.30414516E-06      0.26200238E-16      0.49035199E-26      0.15211763E-22      0.28469658E-32      0.35678120E-24      0.93891214E-34
    0.414275954320         0.31960641E-06      0.25656715E-16      0.47392055E-26      0.15416271E-22      0.28476318E-32      0.36448164E-24      0.95313608E-34
    0.420552862718         0.33569662E-06      0.25123454E-16      0.45812987E-26      0.15619181E-22      0.28481806E-32      0.37228342E-24      0.96736275E-34
    0.426829771117         0.35243458E-06      0.24621139E-16      0.44234889E-26      0.15833776E-22      0.28447316E-32      0.38019240E-24      0.98157220E-34
    0.433106679516         0.36983933E-06      0.24122630E-16      0.42820527E-26      0.16043363E-22      0.28478871E-32      0.38820607E-24      0.99579741E-34
    0.439383587915         0.38793013E-06      0.23658063E-16      0.41423394E-26      0.16268272E-22      0.28484454E-32      0.39633208E-24      0.10100254E-33
    0.445660496313         0.40672647E-06      0.23182933E-16      0.40073243E-26      0.16478558E-22      0.28484285E-32      0.40456313E-24      0.10242533E-33
    0.451937404712         0.42624802E-06      0.22747433E-16      0.38766757E-26      0.16709714E-22      0.28477122E-32      0.41290964E-24      0.10384777E-33
    0.458214313111         0.44651466E-06      0.22201259E-16      0.37532312E-26      0.16849895E-22      0.28485571E-32      0.42132617E-24      0.10527062E-33
    0.464491221510         0.46754647E-06      0.21568245E-16      0.36342203E-26      0.16908872E-22      0.28491221E-32      0.42977216E-24      0.10669376E-33
    0.470768129909         0.48936365E-06      0.21464629E-16      0.35172009E-26      0.17378031E-22      0.28475697E-32      0.43845250E-24      0.10811612E-33
    0.477045038307         0.51198657E-06      0.21329050E-16      0.34080927E-26      0.17828846E-22      0.28488076E-32      0.44735801E-24      0.10953910E-33
    0.483321946706         0.53543573E-06      0.20921830E-16      0.32999375E-26      0.18051905E-22      0.28472729E-32      0.45637495E-24      0.11096132E-33
    0.489598855105         0.55973174E-06      0.20583268E-16      0.31984349E-26      0.18327635E-22      0.28479319E-32      0.46552961E-24      0.11238386E-33
    0.495875763504         0.58489532E-06      0.20236118E-16      0.30997450E-26      0.18590241E-22      0.28476314E-32      0.47481545E-24      0.11380625E-33
    0.502152671902         0.61094726E-06      0.19914629E-16      0.30053666E-26      0.18870904E-22      0.28478555E-32      0.48424147E-24      0.11522876E-33
    0.508429580301         0.63790841E-06      0.19575617E-16      0.29160468E-26      0.19129143E-22      0.28495386E-32      0.49379649E-24      0.11665211E-33
    0.514706488700         0.66579967E-06      0.19249183E-16      0.28248563E-26      0.19393169E-22      0.28459864E-32      0.50348339E-24      0.11807368E-33
    0.520983397099         0.69464194E-06      0.19214260E-16      0.27430393E-26      0.19953235E-22      0.28485358E-32      0.51345004E-24      0.11949652E-33
    0.527260305498         0.72445614E-06      0.18998432E-16      0.26608353E-26      0.20330933E-22      0.28474595E-32      0.52360535E-24      0.12091883E-33
    0.533537213896         0.75526319E-06      0.18678781E-16      0.25838896E-26      0.20593714E-22      0.28487878E-32      0.53389192E-24      0.12234180E-33
    0.539814122295         0.78708392E-06      0.18417605E-16      0.25073909E-26      0.20915223E-22      0.28474191E-32      0.54433908E-24      0.12376409E-33
    0.546091030694         0.81993914E-06      0.18165417E-16      0.24364814E-26      0.21242933E-22      0.28492609E-32      0.55494994E-24      0.12518729E-33
    0.552367939093         0.85384956E-06      0.17996249E-16      0.23661479E-26      0.21666434E-22      0.28487040E-32      0.56577233E-24      0.12661022E-33
    0.558644847491         0.88883579E-06      0.17757818E-16      0.22973263E-26      0.22005330E-22      0.28468262E-32      0.57676401E-24      0.12803222E-33
    0.564921755890         0.92491828E-06      0.17573692E-16      0.22328594E-26      0.22409420E-22      0.28472721E-32      0.58795752E-24      0.12945443E-33
    0.571198664289         0.96211735E-06      0.17370174E-16      0.21723861E-26      0.22787547E-22      0.28499052E-32      0.59933991E-24      0.13087796E-33
    0.577475572688         0.10004531E-05      0.17220143E-16      0.21099272E-26      0.23235522E-22      0.28469716E-32      0.61094607E-24      0.13230002E-33
    0.583752481087         0.10399456E-05      0.17026351E-16      0.20526145E-26      0.23624140E-22      0.28480120E-32      0.62274634E-24      0.13372261E-33
    0.590029389485         0.10806144E-05      0.16900497E-16      0.19986287E-26      0.24107331E-22      0.28508985E-32      0.63478796E-24      0.13514663E-33
    0.596306297884         0.11224790E-05      0.16726982E-16      0.19448243E-26      0.24523303E-22      0.28512923E-32      0.64703736E-24      0.13657085E-33
    0.602583206283         0.11655585E-05      0.16597919E-16      0.18900899E-26      0.25004792E-22      0.28474235E-32      0.65952727E-24      0.13799314E-33
    0.608860114682         0.12098719E-05      0.16450752E-16      0.18418767E-26      0.25460104E-22      0.28505914E-32      0.67224460E-24      0.13941701E-33
    0.615137023081         0.12554376E-05      0.16287101E-16      0.17909860E-26      0.25889259E-22      0.28468725E-32      0.68517630E-24      0.14083903E-33
    0.621413931479         0.13022739E-05      0.16217963E-16      0.17439897E-26      0.26470990E-22      0.28465433E-32      0.69839857E-24      0.14226088E-33
    0.627690839878         0.13503983E-05      0.15975991E-16      0.16998056E-26      0.26769265E-22      0.28481831E-32      0.71176984E-24      0.14368355E-33
    0.633967748277         0.13998285E-05      0.21353873E-16      0.16550281E-26      0.36722891E-22      0.28462010E-32      0.73011294E-24      0.14510523E-33
    0.640244656676         0.14505812E-05      0.23334268E-16      0.16148147E-26      0.41175870E-22      0.28495173E-32      0.75068031E-24      0.14652856E-33
    0.646521565074         0.15026729E-05      0.18386050E-16      0.15732480E-26      0.33282994E-22      0.28479422E-32      0.76730518E-24      0.14795111E-33
    0.652798473473         0.15561195E-05      0.17327987E-16      0.15339588E-26      0.32170994E-22      0.28479348E-32      0.78337461E-24      0.14937365E-33
    0.659075381872         0.16109365E-05      0.17242705E-16      0.14947206E-26      0.32824738E-22      0.28454824E-32      0.79977058E-24      0.15079497E-33
    0.665352290271         0.16671388E-05      0.17148290E-16      0.14565640E-26      0.33465203E-22      0.28425114E-32      0.81648646E-24      0.15221481E-33
    0.671629198670         0.17247407E-05      0.17681177E-16      0.14233739E-26      0.35363721E-22      0.28468578E-32      0.83415066E-24      0.15363682E-33
    0.677906107068         0.17837558E-05      0.17952653E-16      0.13880940E-26      0.36791459E-22      0.28447051E-32      0.85252801E-24      0.15505775E-33
    0.684183015467         0.18441971E-05      0.22742720E-16      0.13573995E-26      0.47745232E-22      0.28496745E-32      0.87637678E-24      0.15648116E-33
    0.690459923866         0.19060772E-05      0.32539301E-16      0.13242670E-26      0.69962088E-22      0.28472795E-32      0.91132288E-24      0.15790338E-33
    0.696736832265         0.19694076E-05      0.38346785E-16      0.12923583E-26      0.84420582E-22      0.28451313E-32      0.95349100E-24      0.15932452E-33
    0.703013740663         0.20341994E-05      0.33201112E-16      0.12640488E-26      0.74822959E-22      0.28486959E-32      0.99086511E-24      0.16074745E-33
    0.709290649062         0.21004628E-05      0.26399493E-16      0.12338405E-26      0.60889007E-22      0.28457866E-32      0.10212792E-23      0.16216892E-33
    0.715567557461         0.21682073E-05      0.28293574E-16      0.12065587E-26      0.66771404E-22      0.28474176E-32      0.10546315E-23      0.16359121E-33
    0.721844465860         0.22374415E-05      0.30406578E-16      0.11780910E-26      0.73405424E-22      0.28440645E-32      0.10912976E-23      0.16501182E-33
    0.728121374259         0.23081733E-05      0.32029587E-16      0.11537445E-26      0.79080338E-22      0.28485696E-32      0.11307983E-23      0.16643468E-33
    0.734398282657         0.23804097E-05      0.29881572E-16      0.11259953E-26      0.75435548E-22      0.28425569E-32      0.11684784E-23      0.16785454E-33
    0.740675191056         0.24541568E-05      0.30000634E-16      0.11026942E-26      0.77420768E-22      0.28456544E-32      0.12071501E-23      0.16927595E-33
    0.746952099455         0.25294198E-05      0.29588060E-16      0.10791442E-26      0.78036396E-22      0.28461657E-32      0.12461293E-23      0.17069761E-33
    0.753229007854         0.26062031E-05      0.31011472E-16      0.10542698E-26      0.83571104E-22      0.28410934E-32      0.12878731E-23      0.17211673E-33
    0.759505916252         0.26845099E-05      0.31927137E-16      0.10359703E-26      0.87891399E-22      0.28518962E-32      0.13317749E-23      0.17354126E-33
    0.765782824651         0.27643427E-05      0.27994233E-16      0.10125102E-26      0.78705916E-22      0.28466770E-32      0.13710885E-23      0.17496317E-33
