 
 # eight columns.
 # Omega (column 1); |pulse ft|^2 (2); cross section (Mb) (3); flux (5); flux in
 tegral domega (7)
 
  0.0000      0.157531E-11      0.000000E+00      0.000000E+00      0.000000E+00      0.000000E+00      0.000000E+00      0.000000E+00
  0.0016      0.180698E-11     -0.121862E+00     -0.119699E-09     -0.868952E-11     -0.853535E-20     -0.136478E-13     -0.134056E-22
  0.0031      0.250197E-11     -0.158625E+00      0.913687E-09     -0.783069E-11      0.451052E-19     -0.259467E-13      0.574367E-22
  0.0047      0.366035E-11     -0.362159E-01      0.125097E-08     -0.174372E-11      0.602316E-19     -0.286853E-13      0.152036E-21
  0.0063      0.528217E-11     -0.239372E-01      0.988971E-09     -0.124739E-11      0.515363E-19     -0.306445E-13      0.232979E-21
  0.0079      0.736754E-11     -0.138345E-01      0.939530E-09     -0.804441E-12      0.546311E-19     -0.319079E-13      0.318783E-21
  0.0094      0.991659E-11     -0.101938E-01      0.933201E-09     -0.664849E-12      0.608644E-19     -0.329522E-13      0.414376E-21
  0.0110      0.129295E-10     -0.755574E-02      0.839491E-09     -0.550728E-12      0.611894E-19     -0.338171E-13      0.510481E-21
  0.0126      0.164064E-10     -0.635226E-02      0.882203E-09     -0.514077E-12      0.713950E-19     -0.346245E-13      0.622614E-21
  0.0141      0.203475E-10     -0.518694E-02      0.767555E-09     -0.462761E-12      0.684786E-19     -0.353514E-13      0.730166E-21
  0.0157      0.247531E-10     -0.430191E-02      0.612939E-09     -0.420212E-12      0.598720E-19     -0.360113E-13      0.824201E-21
  0.0173      0.296235E-10     -0.343976E-02      0.566479E-09     -0.365552E-12      0.602010E-19     -0.365855E-13      0.918753E-21
  0.0188      0.349589E-10     -0.307705E-02      0.615760E-09     -0.353743E-12      0.707888E-19     -0.371411E-13      0.102993E-20
  0.0204      0.407596E-10     -0.271384E-02      0.514173E-09     -0.335775E-12      0.636170E-19     -0.376684E-13      0.112985E-20
  0.0220      0.470261E-10     -0.219624E-02      0.470208E-09     -0.291117E-12      0.623273E-19     -0.381257E-13      0.122774E-20
  0.0236      0.537587E-10     -0.172189E-02      0.462651E-09     -0.243524E-12      0.654317E-19     -0.385081E-13      0.133051E-20
  0.0251      0.609578E-10     -0.139993E-02      0.417506E-09     -0.210471E-12      0.627696E-19     -0.388387E-13      0.142909E-20
  0.0267      0.686239E-10     -0.110438E-02      0.416673E-09     -0.175923E-12      0.663742E-19     -0.391150E-13      0.153334E-20
  0.0283      0.767575E-10     -0.917783E-03      0.383911E-09     -0.154442E-12      0.646035E-19     -0.393576E-13      0.163481E-20
  0.0298      0.853589E-10     -0.745256E-03      0.330126E-09     -0.132123E-12      0.585264E-19     -0.395651E-13      0.172673E-20
  0.0314      0.944289E-10     -0.637761E-03      0.317361E-09     -0.118826E-12      0.591296E-19     -0.397517E-13      0.181960E-20
  0.0330      0.103968E-09     -0.537928E-03      0.329536E-09     -0.105095E-12      0.643812E-19     -0.399168E-13      0.192072E-20
  0.0346      0.113976E-09     -0.442003E-03      0.290102E-09     -0.903637E-13      0.593088E-19     -0.400587E-13      0.201387E-20
  0.0361      0.124455E-09     -0.354801E-03      0.296607E-09     -0.757612E-13      0.633349E-19     -0.401777E-13      0.211334E-20
  0.0377      0.135405E-09     -0.110366E-02      0.278192E-09     -0.245717E-12      0.619362E-19     -0.405636E-13      0.221062E-20
  0.0393      0.146826E-09     -0.178837E-02      0.271569E-09     -0.414473E-12      0.629390E-19     -0.412146E-13      0.230947E-20
  0.0408      0.158719E-09     -0.190273E-02      0.270882E-09     -0.458365E-12      0.652550E-19     -0.419345E-13      0.241196E-20
  0.0424      0.171086E-09     -0.200705E-02      0.248050E-09     -0.501862E-12      0.620248E-19     -0.427227E-13      0.250937E-20
  0.0440      0.183926E-09     -0.167418E-02      0.235089E-09     -0.433972E-12      0.609389E-19     -0.434043E-13      0.260509E-20
  0.0455      0.197240E-09     -0.136543E-02      0.236450E-09     -0.366476E-12      0.634619E-19     -0.439799E-13      0.270476E-20
  0.0471      0.211030E-09     -0.125156E-02      0.234528E-09     -0.347419E-12      0.651021E-19     -0.445256E-13      0.280701E-20
  0.0487      0.225296E-09     -0.114456E-02      0.223683E-09     -0.328253E-12      0.641508E-19     -0.450411E-13      0.290776E-20
  0.0503      0.240039E-09     -0.115342E-02      0.219566E-09     -0.341427E-12      0.649941E-19     -0.455774E-13      0.300984E-20
  0.0518      0.255260E-09     -0.116065E-02      0.202767E-09     -0.354279E-12      0.618931E-19     -0.461338E-13      0.310705E-20
  0.0534      0.270960E-09     -0.126443E-02      0.198455E-09     -0.397648E-12      0.624114E-19     -0.467583E-13      0.320508E-20
  0.0550      0.287139E-09     -0.135777E-02      0.200566E-09     -0.439569E-12      0.649322E-19     -0.474487E-13      0.330706E-20
  0.0565      0.303800E-09     -0.491686E-03      0.195135E-09     -0.163738E-12      0.649825E-19     -0.477059E-13      0.340912E-20
  0.0581      0.320942E-09      0.321986E-03      0.187095E-09      0.110214E-12      0.640418E-19     -0.475328E-13      0.350970E-20
  0.0597      0.338567E-09      0.971529E-03      0.184474E-09      0.341581E-12      0.648593E-19     -0.469963E-13      0.361157E-20
  0.0613      0.356676E-09      0.158122E-02      0.189473E-09      0.570663E-12      0.683807E-19     -0.461000E-13      0.371897E-20
  0.0628      0.375270E-09      0.101951E-02      0.177101E-09      0.377445E-12      0.655666E-19     -0.455072E-13      0.382195E-20
  0.0644      0.394350E-09      0.492005E-03      0.174435E-09      0.186743E-12      0.662076E-19     -0.452139E-13      0.392594E-20
  0.0660      0.413918E-09      0.376489E-03      0.168141E-09      0.146418E-12      0.653905E-19     -0.449839E-13      0.402864E-20
  0.0675      0.433974E-09      0.266358E-03      0.165313E-09      0.106081E-12      0.658382E-19     -0.448173E-13      0.413204E-20
  0.0691      0.454519E-09      0.220894E-03      0.164222E-09      0.900451E-13      0.669434E-19     -0.446759E-13      0.423718E-20
  0.0707      0.475556E-09      0.177766E-03      0.154913E-09      0.741335E-13      0.646033E-19     -0.445595E-13      0.433865E-20
  0.0722      0.497085E-09      0.189541E-03      0.146446E-09      0.808263E-13      0.624491E-19     -0.444325E-13      0.443673E-20
  0.0738      0.519108E-09      0.201809E-03      0.145329E-09      0.879584E-13      0.633418E-19     -0.442944E-13      0.453622E-20
  0.0754      0.541625E-09      0.221609E-03      0.144697E-09      0.986783E-13      0.644308E-19     -0.441394E-13      0.463741E-20
  0.0770      0.564639E-09      0.237058E-03      0.138393E-09      0.107797E-12      0.629312E-19     -0.439701E-13      0.473625E-20
  0.0785      0.588150E-09      0.249119E-03      0.137134E-09      0.115638E-12      0.636560E-19     -0.437885E-13      0.483623E-20
  0.0801      0.612161E-09      0.262734E-03      0.133134E-09      0.124448E-12      0.630610E-19     -0.435930E-13      0.493527E-20
  0.0817      0.636672E-09      0.282409E-03      0.133694E-09      0.136448E-12      0.645956E-19     -0.433787E-13      0.503673E-20
  0.0832      0.661685E-09      0.301164E-03      0.133949E-09      0.148373E-12      0.659921E-19     -0.431457E-13      0.514037E-20
  0.0848      0.687201E-09      0.323590E-03      0.126662E-09      0.162504E-12      0.636084E-19     -0.428904E-13      0.524028E-20
  0.0864      0.713223E-09      0.345044E-03      0.124484E-09      0.176569E-12      0.637018E-19     -0.426131E-13      0.534033E-20
  0.0880      0.739751E-09      0.361433E-03      0.119736E-09      0.188409E-12      0.624167E-19     -0.423172E-13      0.543836E-20
  0.0895      0.766788E-09      0.377107E-03      0.119487E-09      0.200190E-12      0.634303E-19     -0.420028E-13      0.553798E-20
  0.0911      0.794334E-09      0.384566E-03      0.117048E-09      0.207837E-12      0.632582E-19     -0.416764E-13      0.563734E-20
  0.0927      0.822392E-09      0.391726E-03      0.115194E-09      0.215470E-12      0.633627E-19     -0.413379E-13      0.573685E-20
  0.0942      0.850963E-09      0.392650E-03      0.114759E-09      0.219756E-12      0.642280E-19     -0.409928E-13      0.583773E-20
  0.0958      0.880049E-09      0.393502E-03      0.109844E-09      0.224027E-12      0.625361E-19     -0.406409E-13      0.593595E-20
  0.0974      0.909652E-09      0.391780E-03      0.111955E-09      0.226831E-12      0.648194E-19     -0.402847E-13      0.603776E-20
  0.0989      0.939773E-09      0.390094E-03      0.110528E-09      0.229630E-12      0.650624E-19     -0.399240E-13      0.613994E-20
  0.1005      0.970414E-09      0.387491E-03      0.108040E-09      0.231855E-12      0.646454E-19     -0.395599E-13      0.624147E-20
  0.1021      0.100158E-08      0.384918E-03      0.105649E-09      0.234054E-12      0.642413E-19     -0.391923E-13      0.634237E-20
  0.1037      0.103327E-08      0.381501E-03      0.104828E-09      0.235689E-12      0.647621E-19     -0.388221E-13      0.644409E-20
  0.1052      0.106548E-08      0.378155E-03      0.102541E-09      0.237310E-12      0.643497E-19     -0.384494E-13      0.654515E-20
  0.1068      0.109822E-08      0.373725E-03      0.100441E-09      0.238182E-12      0.640130E-19     -0.380753E-13      0.664569E-20
  0.1084      0.113149E-08      0.369369E-03      0.997728E-10      0.239023E-12      0.645641E-19     -0.376999E-13      0.674710E-20
  0.1099      0.116529E-08      0.363226E-03      0.986721E-10      0.238611E-12      0.648199E-19     -0.373251E-13      0.684890E-20
  0.1115      0.119963E-08      0.357235E-03      0.982270E-10      0.238188E-12      0.654932E-19     -0.369510E-13      0.695177E-20
  0.1131      0.123450E-08      0.348309E-03      0.958302E-10      0.235668E-12      0.648393E-19     -0.365809E-13      0.705360E-20
  0.1147      0.126991E-08      0.339663E-03      0.934803E-10      0.233172E-12      0.641723E-19     -0.362146E-13      0.715439E-20
  0.1162      0.130586E-08      0.337361E-03      0.920742E-10      0.234930E-12      0.641181E-19     -0.358457E-13      0.725510E-20
  0.1178      0.134235E-08      0.335003E-03      0.925295E-10      0.236609E-12      0.653526E-19     -0.354740E-13      0.735774E-20
  0.1194      0.137939E-08      0.329029E-03      0.904789E-10      0.235659E-12      0.648034E-19     -0.351039E-13      0.745952E-20
  0.1209      0.141697E-08      0.323215E-03      0.876954E-10      0.234714E-12      0.636832E-19     -0.347353E-13      0.755954E-20
  0.1225      0.145510E-08      0.320607E-03      0.878986E-10      0.236020E-12      0.647081E-19     -0.343646E-13      0.766117E-20
  0.1241      0.149379E-08      0.317950E-03      0.869350E-10      0.237246E-12      0.648685E-19     -0.339920E-13      0.776305E-20
  0.1256      0.153302E-08      0.310941E-03      0.861170E-10      0.235133E-12      0.651216E-19     -0.336227E-13      0.786533E-20
  0.1272      0.157281E-08      0.303959E-03      0.845599E-10      0.232908E-12      0.647939E-19     -0.332569E-13      0.796710E-20
  0.1288      0.161316E-08      0.263193E-03      0.815053E-10      0.204322E-12      0.632743E-19     -0.329359E-13      0.806648E-20
  0.1304      0.165407E-08      0.224411E-03      0.804649E-10      0.176481E-12      0.632791E-19     -0.326588E-13      0.816586E-20
  0.1319      0.169555E-08      0.262923E-03      0.811130E-10      0.209428E-12      0.646097E-19     -0.323298E-13      0.826734E-20
  0.1335      0.173758E-08      0.299501E-03      0.792481E-10      0.241603E-12      0.639283E-19     -0.319504E-13      0.836775E-20
  0.1351      0.178019E-08      0.316304E-03      0.788417E-10      0.258375E-12      0.644023E-19     -0.315446E-13      0.846890E-20
  0.1366      0.182336E-08      0.332560E-03      0.773960E-10      0.275044E-12      0.640103E-19     -0.311126E-13      0.856943E-20
  0.1382      0.186711E-08      0.389348E-03      0.769159E-10      0.325989E-12      0.643993E-19     -0.306006E-13      0.867058E-20
  0.1398      0.191144E-08      0.441779E-03      0.765248E-10      0.374414E-12      0.648559E-19     -0.300125E-13      0.877244E-20
  0.1414      0.195634E-08      0.201428E-03      0.746470E-10      0.172782E-12      0.640311E-19     -0.297412E-13      0.887301E-20
  0.1429      0.200182E-08     -0.268968E-04      0.731762E-10     -0.233486E-13      0.635229E-19     -0.297778E-13      0.897277E-20
  0.1445      0.204788E-08      0.773044E-04      0.729874E-10      0.679046E-13      0.641125E-19     -0.296712E-13      0.907347E-20
  0.1461      0.209454E-08      0.175042E-03      0.726457E-10      0.155569E-12      0.645642E-19     -0.294268E-13      0.917487E-20
  0.1476      0.214178E-08      0.192607E-03      0.712807E-10      0.173179E-12      0.640907E-19     -0.291549E-13      0.927554E-20
  0.1492      0.218961E-08      0.208545E-03      0.708719E-10      0.189679E-12      0.644605E-19     -0.288569E-13      0.937678E-20
  0.1508      0.223803E-08      0.219398E-03      0.690992E-10      0.201839E-12      0.635690E-19     -0.285399E-13      0.947662E-20
  0.1523      0.228705E-08      0.221417E-03      0.689976E-10      0.206012E-12      0.641971E-19     -0.282164E-13      0.957745E-20
  0.1539      0.233667E-08      0.220913E-03      0.691582E-10      0.207859E-12      0.650718E-19     -0.278899E-13      0.967965E-20
  0.1555      0.238690E-08      0.251786E-03      0.682281E-10      0.239556E-12      0.649141E-19     -0.275137E-13      0.978160E-20
  0.1571      0.243773E-08      0.254409E-03      0.676150E-10      0.244734E-12      0.650437E-19     -0.271293E-13      0.988376E-20
  0.1586      0.248917E-08      0.233251E-03      0.666226E-10      0.226847E-12      0.647935E-19     -0.267730E-13      0.998552E-20
  0.1602      0.254122E-08      0.225842E-03      0.667722E-10      0.222035E-12      0.656469E-19     -0.264243E-13      0.100886E-19
  0.1618      0.259388E-08      0.220658E-03      0.657737E-10      0.219286E-12      0.653646E-19     -0.260799E-13      0.101913E-19
  0.1633      0.264716E-08      0.215563E-03      0.651470E-10      0.216520E-12      0.654364E-19     -0.257398E-13      0.102941E-19
  0.1649      0.270107E-08      0.211055E-03      0.637915E-10      0.214249E-12      0.647569E-19     -0.254033E-13      0.103958E-19
  0.1665      0.275559E-08      0.200021E-03      0.636992E-10      0.205193E-12      0.653462E-19     -0.250810E-13      0.104984E-19
  0.1681      0.281075E-08      0.189717E-03      0.630661E-10      0.196663E-12      0.653748E-19     -0.247721E-13      0.106011E-19
  0.1696      0.286653E-08      0.204880E-03      0.616641E-10      0.214589E-12      0.645866E-19     -0.244351E-13      0.107025E-19
  0.1712      0.292295E-08      0.219185E-03      0.603694E-10      0.231943E-12      0.638834E-19     -0.240708E-13      0.108029E-19
  0.1728      0.298000E-08      0.208822E-03      0.600728E-10      0.223243E-12      0.642212E-19     -0.237202E-13      0.109037E-19
  0.1743      0.303769E-08      0.198994E-03      0.598078E-10      0.214901E-12      0.645886E-19     -0.233827E-13      0.110052E-19
  0.1759      0.309603E-08      0.192605E-03      0.586250E-10      0.210102E-12      0.639509E-19     -0.230527E-13      0.111056E-19
  0.1775      0.315501E-08      0.186409E-03      0.582515E-10      0.205384E-12      0.641810E-19     -0.227301E-13      0.112064E-19
  0.1790      0.321464E-08      0.183682E-03      0.574680E-10      0.204396E-12      0.639485E-19     -0.224091E-13      0.113068E-19
  0.1806      0.327493E-08      0.180984E-03      0.577483E-10      0.203386E-12      0.648963E-19     -0.220896E-13      0.114088E-19
  0.1822      0.333587E-08      0.178541E-03      0.572662E-10      0.202612E-12      0.649869E-19     -0.217714E-13      0.115108E-19
  0.1838      0.339747E-08      0.176108E-03      0.563038E-10      0.201802E-12      0.645185E-19     -0.214545E-13      0.116122E-19
  0.1853      0.345973E-08      0.172497E-03      0.558194E-10      0.199581E-12      0.645837E-19     -0.211410E-13      0.117136E-19
  0.1869      0.352267E-08      0.168964E-03      0.548749E-10      0.197377E-12      0.641026E-19     -0.208310E-13      0.118143E-19
  0.1885      0.358627E-08      0.158100E-03      0.548049E-10      0.186454E-12      0.646336E-19     -0.205382E-13      0.119158E-19
  0.1900      0.365055E-08      0.147757E-03      0.539153E-10      0.175913E-12      0.641891E-19     -0.202619E-13      0.120166E-19
  0.1916      0.371550E-08      0.141574E-03      0.535476E-10      0.170145E-12      0.643539E-19     -0.199946E-13      0.121177E-19
  0.1932      0.378114E-08      0.136547E-03      0.533749E-10      0.165645E-12      0.647488E-19     -0.197345E-13      0.122194E-19
  0.1948      0.384746E-08      0.233293E-03      0.522252E-10      0.285648E-12      0.639454E-19     -0.192858E-13      0.123198E-19
  0.1963      0.391447E-08      0.324615E-03      0.522693E-10      0.401151E-12      0.645931E-19     -0.186558E-13      0.124213E-19
  0.1979      0.398217E-08      0.276844E-03      0.515162E-10      0.345272E-12      0.642496E-19     -0.181135E-13      0.125222E-19
  0.1995      0.405057E-08      0.232054E-03      0.507622E-10      0.292064E-12      0.638896E-19     -0.176548E-13      0.126225E-19
  0.2010      0.411967E-08      0.219488E-03      0.502483E-10      0.278767E-12      0.638191E-19     -0.172170E-13      0.127228E-19
  0.2026      0.418948E-08      0.207156E-03      0.501729E-10      0.265488E-12      0.643008E-19     -0.168000E-13      0.128238E-19
  0.2042      0.425999E-08      0.201324E-03      0.494284E-10      0.260338E-12      0.639173E-19     -0.163911E-13      0.129241E-19
  0.2057      0.433121E-08      0.195646E-03      0.489362E-10      0.255262E-12      0.638478E-19     -0.159902E-13      0.130244E-19
  0.2073      0.440315E-08      0.202094E-03      0.484894E-10      0.266023E-12      0.638284E-19     -0.155724E-13      0.131247E-19
  0.2089      0.447581E-08      0.207923E-03      0.483320E-10      0.276121E-12      0.641847E-19     -0.151387E-13      0.132255E-19
  0.2105      0.454920E-08      0.192179E-03      0.482463E-10      0.257462E-12      0.646355E-19     -0.147343E-13      0.133270E-19
  0.2120      0.462331E-08      0.177228E-03      0.475531E-10      0.239512E-12      0.642651E-19     -0.143581E-13      0.134279E-19
  0.2136      0.469815E-08      0.179418E-03      0.467957E-10      0.244585E-12      0.637927E-19     -0.139740E-13      0.135281E-19
  0.2152      0.477373E-08      0.181359E-03      0.463935E-10      0.249375E-12      0.637928E-19     -0.135823E-13      0.136283E-19
  0.2167      0.485005E-08      0.183576E-03      0.467326E-10      0.254601E-12      0.648133E-19     -0.131825E-13      0.137301E-19
  0.2183      0.492712E-08      0.185640E-03      0.458542E-10      0.259673E-12      0.641409E-19     -0.127746E-13      0.138308E-19
  0.2199      0.500493E-08      0.187651E-03      0.452381E-10      0.264727E-12      0.638192E-19     -0.123588E-13      0.139311E-19
  0.2215      0.508350E-08      0.189546E-03      0.450500E-10      0.269672E-12      0.640937E-19     -0.119353E-13      0.140317E-19
  0.2230      0.516283E-08      0.191334E-03      0.446192E-10      0.274517E-12      0.640174E-19     -0.115041E-13      0.141323E-19
  0.2246      0.524291E-08      0.192841E-03      0.443963E-10      0.279006E-12      0.642333E-19     -0.110659E-13      0.142332E-19
  0.2262      0.532376E-08      0.178125E-03      0.440913E-10      0.259871E-12      0.643259E-19     -0.106578E-13      0.143342E-19
  0.2277      0.540539E-08      0.164323E-03      0.429795E-10      0.241732E-12      0.632263E-19     -0.102781E-13      0.144335E-19
  0.2293      0.548779E-08      0.177841E-03      0.426975E-10      0.263787E-12      0.633322E-19     -0.986380E-14      0.145330E-19
