 
 # Omega; pulse ft; projected flux at t=    500.250000000000     
    0.000000000000         0.10341091E-10      0.00000000E+00      0.00000000E+00      0.56918572E-07      0.14512173E-19
    0.006276908399         0.40699280E-10      0.13951634E+02      0.44835404E-11      0.52842069E-07      0.16981491E-19
    0.012553816798         0.13187398E-09      0.78730165E+01      0.21539182E-11      0.48310141E-07      0.13216801E-19
    0.018830725196         0.28416575E-09      0.54295563E+01      0.16353810E-11      0.47861118E-07      0.14415757E-19
    0.025107633595         0.49807598E-09      0.41547215E+01      0.11253669E-11      0.48144372E-07      0.13040606E-19
    0.031384541994         0.77430759E-09      0.33718433E+01      0.62309046E-12      0.48593582E-07      0.89797165E-20
    0.037661450393         0.11137660E-08      0.28419827E+01      0.91930645E-12      0.49094423E-07      0.15880751E-19
    0.043938358791         0.15175606E-08      0.24602644E+01      0.71283148E-12      0.49636115E-07      0.14381457E-19
    0.050215267190         0.19870057E-08      0.21745006E+01      0.84021017E-12      0.50261642E-07      0.19420709E-19
    0.056492175589         0.25236231E-08      0.19510242E+01      0.59851583E-12      0.50911120E-07      0.15618008E-19
    0.062769083988         0.31291437E-08      0.17703230E+01      0.46661601E-12      0.51552059E-07      0.13587925E-19
    0.069045992387         0.38055096E-08      0.16223446E+01      0.47976960E-12      0.52231350E-07      0.15446172E-19
    0.075322900785         0.45548772E-08      0.14979502E+01      0.27626371E-12      0.52912808E-07      0.97585945E-20
    0.081599809184         0.53796196E-08      0.13927872E+01      0.41913936E-12      0.53636568E-07      0.16141157E-19
    0.087876717583         0.62823298E-08      0.13014337E+01      0.30599033E-12      0.54347900E-07      0.12778163E-19
    0.094153625982         0.72658239E-08      0.12225267E+01      0.30279597E-12      0.55108675E-07      0.13649342E-19
    0.100430534380         0.83331444E-08      0.11523414E+01      0.25407037E-12      0.55851920E-07      0.12314335E-19
    0.106707442779         0.94875639E-08      0.10907194E+01      0.27359867E-12      0.56648296E-07      0.14209794E-19
    0.112984351178         0.10732589E-07      0.10349966E+01      0.30054922E-12      0.57430018E-07      0.16676911E-19
    0.119261259577         0.12071965E-07      0.98543158E+00      0.17879273E-12      0.58266489E-07      0.10571636E-19
    0.125538167976         0.13509678E-07      0.93998147E+00      0.29211752E-12      0.59088409E-07      0.18362872E-19
    0.131815076374         0.15049961E-07      0.89912405E+00      0.21659801E-12      0.59965810E-07      0.14445699E-19
    0.138091984773         0.16697298E-07      0.86129411E+00      0.18362909E-12      0.60833529E-07      0.12969792E-19
    0.144368893172         0.18456429E-07      0.82696626E+00      0.14017496E-12      0.61755500E-07      0.10467869E-19
    0.150645801571         0.20332352E-07      0.79498401E+00      0.17522235E-12      0.62676219E-07      0.13814460E-19
    0.156922709970         0.22330332E-07      0.76574146E+00      0.19886523E-12      0.63651017E-07      0.16530350E-19
    0.163199618368         0.24455902E-07      0.73824198E+00      0.90280493E-13      0.64621506E-07      0.79026412E-20
    0.169476526767         0.26714868E-07      0.71294163E+00      0.17898816E-12      0.65646451E-07      0.16480924E-19
    0.175753435166         0.29113317E-07      0.68907331E+00      0.50119539E-13      0.66675625E-07      0.48496315E-20
    0.182030343565         0.31657619E-07      0.66696576E+00      0.76065984E-13      0.67756631E-07      0.77274954E-20
    0.188307251963         0.34354433E-07      0.64609164E+00      0.58936367E-13      0.68853126E-07      0.62807702E-20
    0.194584160362         0.37210710E-07      0.62666680E+00      0.37042200E-13      0.70002082E-07      0.41378148E-20
    0.200861068761         0.40233700E-07      0.60813814E+00      0.97444142E-13      0.71155791E-07      0.11401546E-19
    0.207137977160         0.43430955E-07      0.59081721E+00      0.26455840E-13      0.72361338E-07      0.32402239E-20
    0.213414885559         0.46810335E-07      0.57441193E+00      0.11306215E-12      0.73596014E-07      0.14485986E-19
    0.219691793957         0.50380010E-07      0.55897971E+00      0.13934898E-12      0.74878005E-07      0.18666462E-19
    0.225968702356         0.54148468E-07      0.54432385E+00      0.12901910E-12      0.76191942E-07      0.18059498E-19
    0.232245610755         0.58124513E-07      0.53048653E+00      0.11884049E-12      0.77553246E-07      0.17373609E-19
    0.238522519154         0.62317278E-07      0.51734955E+00      0.85957700E-13      0.78954514E-07      0.13118304E-19
    0.244799427552         0.66736218E-07      0.50490856E+00      0.15838015E-12      0.80404015E-07      0.25221200E-19
    0.251076335951         0.71391124E-07      0.49308465E+00      0.75335695E-13      0.81898079E-07      0.12512758E-19
    0.257353244350         0.76292116E-07      0.48186468E+00      0.13668250E-12      0.83442808E-07      0.23668826E-19
    0.263630152749         0.81449655E-07      0.47121187E+00      0.74017514E-13      0.85040184E-07      0.13358032E-19
    0.269907061148         0.86874540E-07      0.46108598E+00      0.67219594E-13      0.86690996E-07      0.12638280E-19
    0.276183969546         0.92577913E-07      0.45146322E+00      0.63812701E-13      0.88398541E-07      0.12494815E-19
    0.282460877945         0.98571259E-07      0.44232355E+00      0.34997891E-13      0.90166635E-07      0.71342394E-20
    0.288737786344         0.10486641E-06      0.43362270E+00      0.85219591E-13      0.91993807E-07      0.18079484E-19
    0.295014694743         0.11147554E-06      0.42538638E+00      0.59750256E-13      0.93893025E-07      0.13188321E-19
    0.301291603141         0.11841119E-06      0.41746470E+00      0.10972709E-12      0.95838337E-07      0.25190301E-19
    0.307568511540         0.12568621E-06      0.41003478E+00      0.48541357E-13      0.97876914E-07      0.11587013E-19
    0.313845419939         0.13331385E-06      0.40261698E+00      0.47803508E-13      0.99899971E-07      0.11861320E-19
    0.320122328338         0.14130766E-06      0.39620695E+00      0.46085713E-13      0.10216112E-06      0.11883103E-19
    0.326399236737         0.14968158E-06      0.39252859E+00      0.25275895E-13      0.10514880E-06      0.67707933E-20
    0.332676145135         0.15844985E-06      0.38673427E+00      0.54908136E-13      0.10759613E-06      0.15276388E-19
    0.338953053534         0.16762710E-06      0.38000352E+00      0.37918077E-14      0.10977567E-06      0.10953800E-20
    0.345229961933         0.17722828E-06      0.37471856E+00      0.73182597E-13      0.11236823E-06      0.21945534E-19
    0.351506870332         0.18726866E-06      0.36973045E+00      0.52230716E-13      0.11506157E-06      0.16254405E-19
    0.357783778731         0.19776389E-06      0.36528182E+00      0.38998008E-13      0.11794192E-06      0.12591648E-19
    0.364060687129         0.20872991E-06      0.36105478E+00      0.41180802E-13      0.12091991E-06      0.13791754E-19
    0.370337595528         0.22018301E-06      0.35737640E+00      0.25854614E-13      0.12411540E-06      0.89792045E-20
    0.376614503927         0.23213979E-06      0.35363784E+00      0.55921423E-13      0.12732834E-06      0.20134673E-19
    0.382891412326         0.24461718E-06      0.35052610E+00      0.24388670E-13      0.13081137E-06      0.91015060E-20
    0.389168320724         0.25763241E-06      0.34754449E+00      0.45057981E-13      0.13439627E-06      0.17424027E-19
    0.395445229123         0.27120301E-06      0.34523149E+00      0.34270232E-13      0.13830325E-06      0.13729003E-19
    0.401722137522         0.28534681E-06      0.34287767E+00      0.31981661E-13      0.14226572E-06      0.13269729E-19
    0.407999045921         0.30008192E-06      0.34137113E+00      0.27363619E-13      0.14666324E-06      0.11756229E-19
    0.414275954320         0.31542674E-06      0.33970955E+00      0.65358187E-14      0.15108813E-06      0.29068498E-20
    0.420552862718         0.33139993E-06      0.33919754E+00      0.45127500E-13      0.15613430E-06      0.20772411E-19
    0.426829771117         0.34802041E-06      0.33827065E+00      0.14288611E-13      0.16111209E-06      0.68054027E-20
    0.433106679516         0.36530735E-06      0.33916102E+00      0.27561269E-13      0.16710262E-06      0.13579274E-19
    0.439383587915         0.38328015E-06      0.33910278E+00      0.15613419E-13      0.17278962E-06      0.79558083E-20
    0.445660496313         0.40195843E-06      0.34292542E+00      0.19689783E-13      0.18067184E-06      0.10373653E-19
    0.451937404712         0.42136202E-06      0.34442123E+00      0.17686195E-13      0.18757753E-06      0.96321962E-20
    0.458214313111         0.44151098E-06      0.36632575E+00      0.70118429E-14      0.20618359E-06      0.39465611E-20
    0.464491221510         0.46242550E-06      0.45410449E+00      0.24263716E-13      0.26407900E-06      0.14110272E-19
    0.470768129909         0.48412598E-06      0.42047661E+00      0.21438306E-13      0.25258466E-06      0.12878213E-19
    0.477045038307         0.50663295E-06      0.34826915E+00      0.23372444E-13      0.21605427E-06      0.14499465E-19
    0.483321946706         0.52996708E-06      0.35498934E+00      0.18325320E-13      0.22737436E-06      0.11737558E-19
    0.489598855105         0.55414917E-06      0.36178747E+00      0.21520389E-13      0.23919584E-06      0.14228208E-19
    0.495875763504         0.57920011E-06      0.37156219E+00      0.73641884E-14      0.25351349E-06      0.50245185E-20
    0.502152671902         0.60514088E-06      0.39605611E+00     -0.84038569E-14      0.27879902E-06     -0.59157957E-20
    0.508429580301         0.63199252E-06      0.44747683E+00      0.14741240E-13      0.32491180E-06      0.10703577E-19
    0.514706488700         0.65977612E-06      0.79980406E+00      0.13050014E-13      0.59887248E-06      0.97715111E-20
    0.520983397099         0.68851279E-06      0.13595342E+01     -0.31091488E-13      0.10495233E-05     -0.24001780E-19
    0.527260305498         0.71822366E-06      0.12541288E+01     -0.14295339E-13      0.99790820E-06     -0.11374777E-19
    0.533537213896         0.74892983E-06      0.12521459E+01      0.21866947E-13      0.10267037E-05      0.17929920E-19
    0.539814122295         0.78065236E-06      0.15387652E+01     -0.41251240E-13      0.12998690E-05     -0.34846908E-19
    0.546091030694         0.81341227E-06      0.18502337E+01     -0.21602443E-13      0.16098524E-05     -0.18795866E-19
    0.552367939093         0.84723047E-06      0.20208104E+01     -0.82077816E-13      0.18105581E-05     -0.73538150E-19
    0.558644847491         0.88212778E-06      0.21692093E+01     -0.52079320E-13      0.20008335E-05     -0.48036882E-19
    0.564921755890         0.91812490E-06      0.22887841E+01     -0.13331201E-12      0.21728617E-05     -0.12656003E-18
    0.571198664289         0.95524236E-06      0.24277201E+01     -0.10155061E-12      0.23715856E-05     -0.99202524E-19
    0.577475572688         0.99350052E-06      0.26553789E+01     -0.20158040E-12      0.26685465E-05     -0.20258001E-18
    0.583752481087         0.10329195E-05      0.29057438E+01     -0.71298293E-15      0.30033702E-05     -0.73693755E-21
    0.590029389485         0.10735193E-05      0.33289870E+01      0.66864897E-13      0.35380350E-05      0.71063763E-19
    0.596306297884         0.11153196E-05      0.36661512E+01     -0.51719193E-13      0.40054756E-05     -0.56506116E-19
    0.602583206283         0.11583396E-05      0.43937371E+01      0.14285319E-13      0.49336320E-05      0.16040675E-19
    0.608860114682         0.12025986E-05      0.49648149E+01     -0.15493633E-12      0.57282247E-05     -0.17875996E-18
    0.615137023081         0.12481153E-05      0.68186450E+01     -0.70350082E-13      0.80815510E-05     -0.83379876E-19
    0.621413931479         0.12949080E-05      0.87838671E+01     -0.41604633E-12      0.10691964E-04     -0.50642301E-18
    0.627690839878         0.13429948E-05      0.22431569E+02     -0.62425205E-12      0.28035092E-04     -0.78019348E-18
    0.633967748277         0.13923932E-05      0.37549001E+02     -0.24095391E-11      0.48173358E-04     -0.30913096E-17
    0.640244656676         0.14431204E-05      0.26659845E+02     -0.11500379E-11      0.35101691E-04     -0.15141976E-17
    0.646521565074         0.14951931E-05      0.92996858E+01     -0.20861716E-12      0.12563086E-04     -0.28182408E-18
    0.652798473473         0.15486273E-05      0.41593530E+01     -0.22995954E-12      0.57637796E-05     -0.31866401E-18
    0.659075381872         0.16034389E-05      0.40234524E+01     -0.13718101E-12      0.57178135E-05     -0.19495084E-18
    0.665352290271         0.16596427E-05      0.42646045E+01     -0.30216636E-12      0.62137748E-05     -0.44027382E-18
    0.671629198670         0.17172535E-05      0.51494269E+01      0.31873298E-13      0.76909065E-05      0.47604241E-19
    0.677906107068         0.17762849E-05      0.58499126E+01     -0.17665712E-12      0.89537768E-05     -0.27038839E-18
    0.684183015467         0.18367504E-05      0.10725985E+02     -0.11199717E-12      0.16820111E-04     -0.17563001E-18
    0.690459923866         0.18986625E-05      0.22063671E+02      0.19115480E-12      0.35440583E-04      0.30704944E-18
    0.696736832265         0.19620330E-05      0.26369178E+02     -0.71721841E-12      0.43375844E-04     -0.11797848E-17
    0.703013740663         0.20268732E-05      0.21603016E+02     -0.13247890E-12      0.36382368E-04     -0.22311218E-18
    0.709290649062         0.20931935E-05      0.22308328E+02     -0.94258593E-12      0.38456164E-04     -0.16248748E-17
    0.715567557461         0.21610035E-05      0.31790311E+02     -0.68381570E-12      0.56080696E-04     -0.12063066E-17
    0.721844465860         0.22303120E-05      0.42087750E+02     -0.24403096E-11      0.75961145E-04     -0.44043388E-17
    0.728121374259         0.23011271E-05      0.43082199E+02     -0.16027074E-11      0.79533205E-04     -0.29587268E-17
    0.734398282657         0.23734559E-05      0.39805029E+02     -0.29401023E-11      0.75145202E-04     -0.55504189E-17
    0.740675191056         0.24473047E-05      0.39446954E+02     -0.20779521E-11      0.76135556E-04     -0.40106021E-17
    0.746952099455         0.25226788E-05      0.39445429E+02     -0.12602203E-11      0.77817935E-04     -0.24861624E-17
    0.753229007854         0.25995828E-05      0.42129348E+02     -0.28640310E-11      0.84932745E-04     -0.57738850E-17
    0.759505916252         0.26780200E-05      0.42598573E+02      0.42002361E-12      0.87738763E-04      0.86510767E-18
    0.765782824651         0.27579930E-05      0.36709935E+02     -0.97254756E-12      0.77229807E-04     -0.20460309E-17
    0.772059733050         0.28395032E-05      0.35753969E+02     -0.20594828E-12      0.76812080E-04     -0.44244922E-18
    0.778336641449         0.29225512E-05      0.39846941E+02     -0.16921240E-11      0.87398391E-04     -0.37114245E-17
    0.784613549848         0.30071363E-05      0.40259414E+02     -0.85568656E-12      0.90131909E-04     -0.19156926E-17
    0.790890458246         0.30932570E-05      0.40727925E+02     -0.23476659E-11      0.93047723E-04     -0.53635181E-17
    0.797167366645         0.31809104E-05      0.40798399E+02     -0.15028193E-11      0.95095255E-04     -0.35028577E-17
    0.803444275044         0.32700927E-05      0.40813393E+02     -0.64638385E-12      0.97033303E-04     -0.15367690E-17
    0.809721183443         0.33607990E-05      0.40600265E+02     -0.21228311E-11      0.98435038E-04     -0.51467880E-17
    0.815998091842         0.34530231E-05      0.40101112E+02     -0.12647434E-11      0.99124397E-04     -0.31262707E-17
    0.822275000240         0.35467578E-05      0.39475970E+02     -0.26888842E-11      0.99462888E-04     -0.67748605E-17
    0.828551908639         0.36419946E-05      0.38517877E+02     -0.18109241E-11      0.98899870E-04     -0.46497930E-17
    0.834828817038         0.37387238E-05      0.37578317E+02     -0.31116322E-11      0.98305335E-04     -0.81400676E-17
    0.841105725437         0.38369346E-05      0.36339182E+02     -0.22517880E-11      0.96832860E-04     -0.60003297E-17
    0.847382633835         0.39366149E-05      0.35203978E+02     -0.34430765E-11      0.95532011E-04     -0.93433765E-17
    0.853659542234         0.40377513E-05      0.33801069E+02     -0.69560980E-12      0.93389727E-04     -0.19219158E-17
    0.859936450633         0.41403294E-05      0.32532612E+02      0.73086431E-14      0.91495823E-04      0.20555076E-19
    0.866213359032         0.42443332E-05      0.31035247E+02     -0.11283237E-11      0.88828759E-04     -0.32294764E-17
    0.872490267431         0.43497456E-05      0.29690781E+02     -0.45248105E-12      0.86464673E-04     -0.13177028E-17
    0.878767175829         0.44565484E-05      0.28167919E+02     -0.14375519E-11      0.83443664E-04     -0.42585538E-17
    0.885044084228         0.45647219E-05      0.26816334E+02     -0.80995148E-12      0.80790934E-04     -0.24401820E-17
    0.891320992627         0.46742450E-05      0.25323474E+02     -0.16733748E-11      0.77573687E-04     -0.51260681E-17
    0.897597901026         0.47850957E-05      0.24014473E+02     -0.10950921E-11      0.74781757E-04     -0.34101480E-17
    0.903874809424         0.48972503E-05      0.22548594E+02     -0.56091208E-12      0.71363688E-04     -0.17752218E-17
    0.910151717823         0.50106841E-05      0.21269787E+02     -0.13067923E-11      0.68400641E-04     -0.42024600E-17
    0.916428626222         0.51253709E-05      0.19672838E+02     -0.79253011E-12      0.64269879E-04     -0.25891441E-17
    0.922705534621         0.52412834E-05      0.18243980E+02     -0.13896026E-11      0.60535189E-04     -0.46108281E-17
    0.928982443020         0.53583927E-05      0.16202455E+02     -0.89699134E-12      0.54591077E-04     -0.30222410E-17
    0.935259351418         0.54766690E-05      0.19167761E+02     -0.17478538E-11      0.65564631E-04     -0.59786529E-17
    0.941536259817         0.55960809E-05      0.23829900E+02     -0.33376320E-12      0.82733798E-04     -0.11587752E-17
    0.947813168216         0.57165958E-05      0.21460783E+02     -0.10754211E-11      0.75609108E-04     -0.37888474E-17
    0.954090076615         0.58381799E-05      0.19082273E+02     -0.56754445E-12      0.68207481E-04     -0.20286250E-17
    0.960366985013         0.59607981E-05      0.18074777E+02     -0.15838242E-12      0.65532080E-04     -0.57423276E-18
    0.966643893412         0.60844141E-05      0.17058319E+02     -0.76577372E-12      0.62719455E-04     -0.28155712E-17
    0.972920801811         0.62089900E-05      0.16415748E+02     -0.39303290E-12      0.61195282E-04     -0.14651638E-17
    0.979197710210         0.63344872E-05      0.15757629E+02     -0.94342901E-12      0.59545060E-04     -0.35650375E-17
    0.985474618609         0.64608656E-05      0.15314036E+02     -0.60204495E-12      0.58647395E-04     -0.23056213E-17
    0.991751527007         0.65880838E-05      0.15010515E+02     -0.11348190E-11      0.58245937E-04     -0.44034862E-17
    0.998028435406         0.67160994E-05      0.15748503E+02     -0.87040618E-12      0.61905223E-04     -0.34214482E-17
    1.004305343805         0.68448687E-05      0.15816417E+02     -0.14410708E-11      0.62968196E-04     -0.57371798E-17
    1.010582252204         0.69743470E-05      0.14451230E+02     -0.10177589E-11      0.58257321E-04     -0.41028970E-17
    1.016859160602         0.71044882E-05      0.13980589E+02     -0.69332210E-12      0.57057306E-04     -0.28295726E-17
