 
 # Omega; pulse ft; proj flux t=    2000.05000000000     
    0.000000000000         0.15753149E-11      0.00000000E+00      0.00000000E+00      0.00000000E+00      0.00000000E+00      0.00000000E+00      0.00000000E+00
    0.001570600002         0.18069754E-11     -0.11863431E+00     -0.27424028E-09     -0.84594015E-11     -0.19555124E-19     -0.13286336E-13     -0.30713278E-22
    0.003141200004         0.25019713E-11     -0.15052747E+00     -0.84982330E-09     -0.74309641E-11     -0.41952520E-19     -0.24957408E-13     -0.96603905E-22
    0.004711800005         0.36603453E-11     -0.34789637E-01     -0.22255982E-09     -0.16750500E-11     -0.10715801E-19     -0.27588242E-13     -0.11343414E-21
    0.006282400007         0.52821684E-11     -0.23785330E-01     -0.31024862E-09     -0.12394771E-11     -0.16167363E-19     -0.29534965E-13     -0.13882660E-21
    0.007853000009         0.73675403E-11     -0.14543290E-01     -0.35714635E-09     -0.84565311E-12     -0.20767098E-19     -0.30863147E-13     -0.17144341E-21
    0.009423600011         0.99165891E-11     -0.11009577E-01     -0.10029399E-10     -0.71805679E-12     -0.65412845E-21     -0.31990927E-13     -0.17247078E-21
    0.010994200013         0.12929471E-10     -0.83754152E-02     -0.16287675E-09     -0.61047257E-12     -0.11871863E-19     -0.32949736E-13     -0.19111673E-21
    0.012564800014         0.16406372E-10     -0.70654021E-02     -0.22553609E-09     -0.57178997E-12     -0.18252220E-19     -0.33847789E-13     -0.21978367E-21
    0.014135400016         0.20347504E-10     -0.58464597E-02     -0.20572408E-09     -0.52160132E-12     -0.18354005E-19     -0.34667016E-13     -0.24861047E-21
    0.015706000018         0.24753111E-10     -0.48975877E-02     -0.20410904E-09     -0.47839771E-12     -0.19937427E-19     -0.35418387E-13     -0.27992419E-21
    0.017276600020         0.29623462E-10     -0.40060021E-02     -0.17385793E-09     -0.42572718E-12     -0.18476287E-19     -0.36087035E-13     -0.30894305E-21
    0.018847200022         0.34958856E-10     -0.35030241E-02     -0.10267475E-09     -0.40271349E-12     -0.11803660E-19     -0.36719536E-13     -0.32748188E-21
    0.020417800023         0.40759620E-10     -0.30301932E-02     -0.10525025E-09     -0.37491617E-12     -0.13022280E-19     -0.37308380E-13     -0.34793467E-21
    0.021988400025         0.47026112E-10     -0.24983597E-02     -0.10124643E-09     -0.33116397E-12     -0.13420473E-19     -0.37828506E-13     -0.36901286E-21
    0.023559000027         0.53758715E-10     -0.20161016E-02     -0.72722460E-10     -0.28513276E-12     -0.10284975E-19     -0.38276335E-13     -0.38516645E-21
    0.025129600029         0.60957842E-10     -0.16731694E-02     -0.83724144E-10     -0.25155132E-12     -0.12587439E-19     -0.38671422E-13     -0.40493628E-21
    0.026700200031         0.68623934E-10     -0.13611245E-02     -0.89193054E-10     -0.21682114E-12     -0.14208061E-19     -0.39011961E-13     -0.42725146E-21
    0.028270800032         0.76757463E-10     -0.11556925E-02     -0.99608197E-10     -0.19447665E-12     -0.16761785E-19     -0.39317406E-13     -0.45357752E-21
    0.029841400034         0.85358926E-10     -0.96736898E-03     -0.93901468E-10     -0.17150018E-12     -0.16647338E-19     -0.39586764E-13     -0.47972383E-21
    0.031412000036         0.94428851E-10     -0.84081538E-03     -0.10362396E-09     -0.15665795E-12     -0.19306875E-19     -0.39832811E-13     -0.51004721E-21
    0.032982600038         0.10396779E-09     -0.72427109E-03     -0.87753033E-10     -0.14150043E-12     -0.17144260E-19     -0.40055052E-13     -0.53697398E-21
    0.034553200039         0.11397634E-09     -0.60586990E-03     -0.80310600E-10     -0.12386496E-12     -0.16418821E-19     -0.40249594E-13     -0.56276138E-21
    0.036123800041         0.12445510E-09     -0.49853384E-03     -0.76595754E-10     -0.10645268E-12     -0.16355606E-19     -0.40416789E-13     -0.58844950E-21
    0.037694400043         0.13540471E-09     -0.12200470E-02     -0.59973603E-10     -0.27162904E-12     -0.13352413E-19     -0.40843409E-13     -0.60942080E-21
    0.039265000045         0.14682586E-09     -0.18798630E-02     -0.63131684E-10     -0.43567819E-12     -0.14631437E-19     -0.41527685E-13     -0.63240093E-21
    0.040835600047         0.15871923E-09     -0.20176701E-02     -0.59300611E-10     -0.48605279E-12     -0.14285401E-19     -0.42291080E-13     -0.65483758E-21
    0.042406200048         0.17108555E-09     -0.21435850E-02     -0.66508052E-10     -0.53600317E-12     -0.16630330E-19     -0.43132927E-13     -0.68095718E-21
    0.043976800050         0.18392558E-09     -0.17971791E-02     -0.63430825E-10     -0.46585692E-12     -0.16442262E-19     -0.43864601E-13     -0.70678139E-21
    0.045547400052         0.19724011E-09     -0.14759789E-02     -0.65902648E-10     -0.39614527E-12     -0.17687937E-19     -0.44486787E-13     -0.73456207E-21
    0.047118000054         0.21102995E-09     -0.13569049E-02     -0.53499559E-10     -0.37665986E-12     -0.14850809E-19     -0.45078369E-13     -0.75788675E-21
    0.048688600056         0.22529594E-09     -0.12451643E-02     -0.54012016E-10     -0.35710458E-12     -0.15490275E-19     -0.45639238E-13     -0.78221578E-21
    0.050259200057         0.24003895E-09     -0.12466473E-02     -0.54123954E-10     -0.36902215E-12     -0.16021321E-19     -0.46218824E-13     -0.80737886E-21
    0.051829800059         0.25525989E-09     -0.12469829E-02     -0.43102945E-10     -0.38063281E-12     -0.13156872E-19     -0.46816646E-13     -0.82804305E-21
    0.053400400061         0.27095967E-09     -0.13174328E-02     -0.42601843E-10     -0.41431560E-12     -0.13397730E-19     -0.47467370E-13     -0.84908552E-21
    0.054971000063         0.28713927E-09     -0.13799006E-02     -0.46317234E-10     -0.44673443E-12     -0.14994923E-19     -0.48169011E-13     -0.87263655E-21
    0.056541600065         0.30379966E-09     -0.59373664E-03     -0.40328343E-10     -0.19772233E-12     -0.13429884E-19     -0.48479554E-13     -0.89372952E-21
    0.058112200066         0.32094187E-09      0.14485942E-03     -0.39517846E-10      0.49584789E-13     -0.13526798E-19     -0.48401676E-13     -0.91497471E-21
    0.059682800068         0.33856693E-09      0.72482698E-03     -0.44113934E-10      0.25484280E-12     -0.15510072E-19     -0.48001420E-13     -0.93933483E-21
    0.061253400070         0.35667593E-09      0.12692109E-02     -0.37543663E-10      0.45805759E-12     -0.13549489E-19     -0.47281994E-13     -0.96061566E-21
    0.062824000072         0.37526995E-09      0.76926701E-03     -0.36009642E-10      0.28479869E-12     -0.13331521E-19     -0.46834690E-13     -0.98155414E-21
    0.064394600074         0.39435014E-09      0.29990547E-03     -0.36445322E-10      0.11383075E-12     -0.13833020E-19     -0.46655907E-13     -0.10032803E-20
    0.065965200075         0.41391766E-09      0.21169783E-03     -0.30459592E-10      0.82330006E-13     -0.11845839E-19     -0.46526599E-13     -0.10218854E-20
    0.067535800077         0.43397368E-09      0.12748122E-03     -0.32230741E-10      0.50771293E-13     -0.12836373E-19     -0.46446858E-13     -0.10420462E-20
    0.069106400079         0.45451945E-09      0.89651682E-04     -0.33441942E-10      0.36545619E-13     -0.13632276E-19     -0.46389460E-13     -0.10634570E-20
    0.070677000081         0.47555619E-09      0.53841539E-04     -0.35683844E-10      0.22453491E-13     -0.14881203E-19     -0.46354194E-13     -0.10868294E-20
    0.072247600083         0.49708519E-09      0.70501574E-04     -0.35798692E-10      0.30064147E-13     -0.15265718E-19     -0.46306975E-13     -0.11108058E-20
    0.073818200084         0.51910775E-09      0.87254973E-04     -0.37579621E-10      0.38030052E-13     -0.16379066E-19     -0.46247245E-13     -0.11365307E-20
    0.075388800086         0.54162521E-09      0.11340855E-03     -0.31089463E-10      0.50498736E-13     -0.13843565E-19     -0.46167932E-13     -0.11582734E-20
    0.076959400088         0.56463893E-09      0.13550610E-03     -0.33147397E-10      0.61618436E-13     -0.15073054E-19     -0.46071154E-13     -0.11819472E-20
    0.078530000090         0.58815031E-09      0.15399061E-03     -0.33520806E-10      0.71480838E-13     -0.15560010E-19     -0.45958886E-13     -0.12063857E-20
    0.080100600092         0.61216077E-09      0.17349426E-03     -0.29583027E-10      0.82178366E-13     -0.14012480E-19     -0.45829817E-13     -0.12283937E-20
    0.081671200093         0.63667176E-09      0.19789159E-03     -0.29093822E-10      0.95612939E-13     -0.14056918E-19     -0.45679647E-13     -0.12504715E-20
    0.083241800095         0.66168477E-09      0.22120399E-03     -0.29575352E-10      0.10897962E-12     -0.14570762E-19     -0.45508484E-13     -0.12733564E-20
    0.084812400097         0.68720130E-09      0.24725629E-03     -0.31391698E-10      0.12416941E-12     -0.15764569E-19     -0.45313463E-13     -0.12981162E-20
    0.086383000099         0.71322290E-09      0.27216396E-03     -0.30744846E-10      0.13927407E-12     -0.15733016E-19     -0.45094720E-13     -0.13228265E-20
    0.087953600101         0.73975113E-09      0.29124738E-03     -0.32407250E-10      0.15182270E-12     -0.16893393E-19     -0.44856267E-13     -0.13493592E-20
    0.089524200102         0.76678760E-09      0.30952593E-03     -0.27716787E-10      0.16431391E-12     -0.14713642E-19     -0.44598195E-13     -0.13724685E-20
    0.091094800104         0.79433393E-09      0.31943743E-03     -0.29344399E-10      0.17263864E-12     -0.15859059E-19     -0.44327049E-13     -0.13973767E-20
    0.092665400106         0.82239179E-09      0.32894371E-03     -0.27890547E-10      0.18093618E-12     -0.15341254E-19     -0.44042871E-13     -0.14214717E-20
    0.094236000108         0.85096285E-09      0.33235720E-03     -0.25802915E-10      0.18601224E-12     -0.14441264E-19     -0.43750720E-13     -0.14441531E-20
    0.095806600109         0.88004885E-09      0.33563251E-03     -0.26215261E-10      0.19108124E-12     -0.14924790E-19     -0.43450608E-13     -0.14675940E-20
    0.097377200111         0.90965153E-09      0.33658705E-03     -0.26253292E-10      0.19487577E-12     -0.15200022E-19     -0.43144536E-13     -0.14914672E-20
    0.098947800113         0.93977266E-09      0.33747401E-03     -0.24287965E-10      0.19865508E-12     -0.14297182E-19     -0.42832528E-13     -0.15139223E-20
    0.100518400115         0.97041405E-09      0.33764110E-03     -0.24124800E-10      0.20202704E-12     -0.14435037E-19     -0.42515225E-13     -0.15365940E-20
    0.102089000117         0.10015775E-08      0.33775872E-03     -0.25121076E-10      0.20537845E-12     -0.15275187E-19     -0.42192657E-13     -0.15605852E-20
    0.103659600118         0.10332650E-08      0.33709602E-03     -0.22473054E-10      0.20825647E-12     -0.13883756E-19     -0.41865570E-13     -0.15823910E-20
    0.105230200120         0.10654783E-08      0.33640553E-03     -0.23147694E-10      0.21111060E-12     -0.14526288E-19     -0.41533999E-13     -0.16052060E-20
    0.106800800122         0.10982195E-08      0.33473059E-03     -0.22654609E-10      0.21333038E-12     -0.14438227E-19     -0.41198943E-13     -0.16278827E-20
    0.108371400124         0.11314903E-08      0.33305150E-03     -0.20241830E-10      0.21552132E-12     -0.13098712E-19     -0.40860445E-13     -0.16484555E-20
    0.109942000126         0.11652929E-08      0.32945805E-03     -0.21590384E-10      0.21642841E-12     -0.14183210E-19     -0.40520522E-13     -0.16707317E-20
    0.111512600127         0.11996293E-08      0.32592142E-03     -0.22301906E-10      0.21730949E-12     -0.14869891E-19     -0.40179216E-13     -0.16940863E-20
    0.113083200129         0.12345014E-08      0.31909199E-03     -0.21612901E-10      0.21589972E-12     -0.14623430E-19     -0.39840124E-13     -0.17170539E-20
    0.114653800131         0.12699115E-08      0.31248346E-03     -0.22348364E-10      0.21451353E-12     -0.15341697E-19     -0.39503209E-13     -0.17411496E-20
    0.116224400133         0.13058615E-08      0.31018640E-03     -0.21275868E-10      0.21600571E-12     -0.14815959E-19     -0.39163950E-13     -0.17644195E-20
    0.117795000135         0.13423536E-08      0.30787646E-03     -0.19628406E-10      0.21744992E-12     -0.13863337E-19     -0.38822424E-13     -0.17861933E-20
    0.119365600136         0.13793901E-08      0.30402427E-03     -0.19698636E-10      0.21775034E-12     -0.14108692E-19     -0.38480425E-13     -0.18083524E-20
    0.120936200138         0.14169730E-08      0.30024098E-03     -0.19506773E-10      0.21803083E-12     -0.14165547E-19     -0.38137986E-13     -0.18306008E-20
    0.122506800140         0.14551046E-08      0.29842155E-03     -0.18171616E-10      0.21968828E-12     -0.13377355E-19     -0.37792943E-13     -0.18516113E-20
    0.124077400142         0.14937873E-08      0.29650923E-03     -0.18496479E-10      0.22124678E-12     -0.13801548E-19     -0.37445453E-13     -0.18732880E-20
    0.125648000144         0.15330232E-08      0.28926826E-03     -0.18571110E-10      0.21874423E-12     -0.14043445E-19     -0.37101893E-13     -0.18953446E-20
    0.127218600145         0.15728147E-08      0.28203429E-03     -0.19251206E-10      0.21610834E-12     -0.14751207E-19     -0.36762474E-13     -0.19185129E-20
    0.128789200147         0.16131641E-08      0.23918916E-03     -0.19268213E-10      0.18568776E-12     -0.14958334E-19     -0.36470832E-13     -0.19420064E-20
    0.130359800149         0.16540739E-08      0.19846550E-03     -0.19432165E-10      0.15607700E-12     -0.15281820E-19     -0.36225698E-13     -0.19660080E-20
    0.131930400151         0.16955464E-08      0.23526161E-03     -0.18497673E-10      0.18739523E-12     -0.14734132E-19     -0.35931375E-13     -0.19891495E-20
    0.133501000153         0.17375841E-08      0.27018982E-03     -0.18234675E-10      0.21795807E-12     -0.14709639E-19     -0.35589050E-13     -0.20122524E-20
    0.135071600154         0.17801894E-08      0.28814477E-03     -0.17765274E-10      0.23537242E-12     -0.14511649E-19     -0.35219374E-13     -0.20350444E-20
    0.136642200156         0.18233649E-08      0.30547846E-03     -0.16610277E-10      0.25264576E-12     -0.13737518E-19     -0.34822569E-13     -0.20566206E-20
    0.138212800158         0.18671131E-08      0.36072373E-03     -0.16960807E-10      0.30202282E-12     -0.14200759E-19     -0.34348212E-13     -0.20789243E-20
    0.139783400160         0.19114366E-08      0.41178182E-03     -0.16988168E-10      0.34899094E-12     -0.14397713E-19     -0.33800086E-13     -0.21015373E-20
    0.141354000162         0.19563380E-08      0.17864522E-03     -0.17782267E-10      0.15323919E-12     -0.15253363E-19     -0.33559409E-13     -0.21254943E-20
    0.142924600163         0.20018198E-08     -0.42836534E-04     -0.17353587E-10     -0.37185618E-13     -0.15064334E-19     -0.33617813E-13     -0.21491543E-20
    0.144495200165         0.20478848E-08      0.60976416E-04     -0.17383335E-10      0.53561987E-13     -0.15269608E-19     -0.33533688E-13     -0.21731367E-20
    0.146065800167         0.20945357E-08      0.15842156E-03     -0.16330490E-10      0.14079791E-12     -0.14513799E-19     -0.33312551E-13     -0.21959321E-20
    0.147636400169         0.21417752E-08      0.17577607E-03     -0.16289406E-10      0.15804576E-12     -0.14646315E-19     -0.33064324E-13     -0.22189356E-20
    0.149207000170         0.21896059E-08      0.19161914E-03     -0.16042264E-10      0.17428433E-12     -0.14591002E-19     -0.32790593E-13     -0.22418522E-20
    0.150777600172         0.22380308E-08      0.20100344E-03     -0.14917011E-10      0.18491639E-12     -0.13723148E-19     -0.32500164E-13     -0.22634058E-20
    0.152348200174         0.22870527E-08      0.19759815E-03     -0.14609407E-10      0.18385032E-12     -0.13592962E-19     -0.32211408E-13     -0.22847549E-20
    0.153918800176         0.23366743E-08      0.18754490E-03     -0.15197405E-10      0.17646332E-12     -0.14299426E-19     -0.31934255E-13     -0.23072136E-20
    0.155489400178         0.23868986E-08      0.21458544E-03     -0.14516787E-10      0.20416257E-12     -0.13811676E-19     -0.31613597E-13     -0.23289062E-20
    0.157060000179         0.24377285E-08      0.22307368E-03     -0.14371627E-10      0.21459063E-12     -0.13825102E-19     -0.31276561E-13     -0.23506199E-20
    0.158630600181         0.24891669E-08      0.20701224E-03     -0.14960149E-10      0.20132873E-12     -0.14549419E-19     -0.30960354E-13     -0.23734713E-20
    0.160201200183         0.25412168E-08      0.20054554E-03     -0.14292199E-10      0.19716582E-12     -0.14051338E-19     -0.30650686E-13     -0.23955403E-20
    0.161771800185         0.25938812E-08      0.19541655E-03     -0.13894021E-10      0.19420092E-12     -0.13807590E-19     -0.30345674E-13     -0.24172265E-20
    0.163342400187         0.26471632E-08      0.19000200E-03     -0.14020486E-10      0.19084582E-12     -0.14082752E-19     -0.30045931E-13     -0.24393449E-20
    0.164913000188         0.27010658E-08      0.18510882E-03     -0.13079312E-10      0.18791008E-12     -0.13277242E-19     -0.29750800E-13     -0.24601981E-20
    0.166483600190         0.27555922E-08      0.17382282E-03     -0.13337647E-10      0.17831709E-12     -0.13682497E-19     -0.29470735E-13     -0.24816878E-20
    0.168054200192         0.28107454E-08      0.16320534E-03     -0.13524496E-10      0.16918006E-12     -0.14019609E-19     -0.29205021E-13     -0.25037070E-20
    0.169624800194         0.28665287E-08      0.17560341E-03     -0.13987059E-10      0.18392576E-12     -0.14649946E-19     -0.28916147E-13     -0.25267162E-20
    0.171195400196         0.29229452E-08      0.18726295E-03     -0.13844429E-10      0.19816325E-12     -0.14650292E-19     -0.28604912E-13     -0.25497260E-20
    0.172766000197         0.29799981E-08      0.17814025E-03     -0.14147373E-10      0.19044187E-12     -0.15124331E-19     -0.28305804E-13     -0.25734802E-20
    0.174336600199         0.30376909E-08      0.16946421E-03     -0.13017341E-10      0.18301036E-12     -0.14057884E-19     -0.28018368E-13     -0.25955596E-20
    0.175907200201         0.30960266E-08      0.16376185E-03     -0.13330929E-10      0.17863908E-12     -0.14542001E-19     -0.27737797E-13     -0.26183992E-20
    0.177477800203         0.31550088E-08      0.15819765E-03     -0.13475621E-10      0.17430074E-12     -0.14847317E-19     -0.27464040E-13     -0.26417184E-20
    0.179048400205         0.32146406E-08      0.15398778E-03     -0.12651703E-10      0.17135268E-12     -0.14078412E-19     -0.27194914E-13     -0.26638300E-20
    0.180619000206         0.32749256E-08      0.14986437E-03     -0.12715212E-10      0.16841434E-12     -0.14289081E-19     -0.26930402E-13     -0.26862724E-20
    0.182189600208         0.33358672E-08      0.14649532E-03     -0.12900865E-10      0.16624615E-12     -0.14640188E-19     -0.26669296E-13     -0.27092663E-20
    0.183760200210         0.33974688E-08      0.14315636E-03     -0.12916989E-10      0.16404286E-12     -0.14801577E-19     -0.26411650E-13     -0.27325136E-20
    0.185330800212         0.34597339E-08      0.13841752E-03     -0.12777412E-10      0.16015070E-12     -0.14783616E-19     -0.26160118E-13     -0.27557328E-20
    0.186901400214         0.35226661E-08      0.13377258E-03     -0.12982928E-10      0.15626752E-12     -0.15166111E-19     -0.25914684E-13     -0.27795527E-20
    0.188472000215         0.35862688E-08      0.12171693E-03     -0.12133411E-10      0.14354553E-12     -0.14309405E-19     -0.25689231E-13     -0.28020270E-20
    0.190042600217         0.36505458E-08      0.11021078E-03     -0.12409811E-10      0.13121201E-12     -0.14774565E-19     -0.25483150E-13     -0.28252320E-20
    0.191613200219         0.37155006E-08      0.10262731E-03     -0.11958336E-10      0.12333817E-12     -0.14371607E-19     -0.25289435E-13     -0.28478040E-20
