 
 # Omega; pulse ft; projected flux at t=    500.250000000000     
    0.000000000000         0.10341091E-10      0.00000000E+00      0.00000000E+00      0.68017619E-09     -0.39704669E-22
    0.006276908399         0.40699280E-10      0.18171633E+00     -0.47789263E-13      0.68825394E-09     -0.18100271E-21
    0.012553816798         0.13187398E-09      0.11339365E+00     -0.20434542E-13      0.69580234E-09     -0.12538976E-21
    0.018830725196         0.28416575E-09      0.79884802E-01     -0.96984650E-14      0.70417833E-09     -0.85491217E-22
    0.025107633595         0.49807598E-09      0.61452367E-01     -0.10581880E-13      0.71210204E-09     -0.12262145E-21
    0.031384541994         0.77430759E-09      0.50013103E-01     -0.92572763E-14      0.72076772E-09     -0.13341195E-21
    0.037661450393         0.11137660E-08      0.42206239E-01      0.21133452E-14      0.72910048E-09      0.36507422E-22
    0.043938358791         0.15175606E-08      0.36582193E-01      0.15333377E-14      0.73804992E-09      0.30935262E-22
    0.050215267190         0.19870057E-08      0.32310209E-01     -0.20025247E-14      0.74682165E-09     -0.46286571E-22
    0.056492175589         0.25236231E-08      0.28974955E-01     -0.26067762E-14      0.75608873E-09     -0.68022681E-22
    0.062769083988         0.31291437E-08      0.26281521E-01     -0.36928633E-14      0.76532168E-09     -0.10753671E-21
    0.069045992387         0.38055096E-08      0.24069990E-01     -0.33159828E-14      0.77493281E-09     -0.10675800E-21
    0.075322900785         0.45548772E-08      0.22213363E-01     -0.19408921E-14      0.78465320E-09     -0.68559056E-22
    0.081599809184         0.53796196E-08      0.20634518E-01     -0.27151427E-14      0.79464025E-09     -0.10456080E-21
    0.087876717583         0.62823298E-08      0.19273662E-01     -0.96811379E-15      0.80486854E-09     -0.40428452E-22
    0.094153625982         0.72658239E-08      0.18085727E-01     -0.54382278E-14      0.81526274E-09     -0.24514273E-21
    0.100430534380         0.83331444E-08      0.17042612E-01     -0.30592960E-14      0.82602481E-09     -0.14827859E-21
    0.106707442779         0.94875639E-08      0.16113150E-01     -0.41869873E-15      0.83686276E-09     -0.21745803E-22
    0.112984351178         0.10732589E-07      0.15285870E-01     -0.95127502E-15      0.84818417E-09     -0.52784463E-22
    0.119261259577         0.12071965E-07      0.14536362E-01     -0.27197917E-14      0.85950437E-09     -0.16081554E-21
    0.125538167976         0.13509678E-07      0.13862525E-01     -0.29720456E-15      0.87141561E-09     -0.18682650E-22
    0.131815076374         0.15049961E-07      0.13243586E-01     -0.67827269E-16      0.88326227E-09     -0.45236440E-23
    0.138091984773         0.16697298E-07      0.12682865E-01     -0.34614507E-14      0.89579554E-09     -0.24448357E-21
    0.144368893172         0.18456429E-07      0.12161819E-01     -0.23081185E-14      0.90821019E-09     -0.17236376E-21
    0.150645801571         0.20332352E-07      0.11687031E-01     -0.17244493E-14      0.92140082E-09     -0.13595489E-21
    0.156922709970         0.22330332E-07      0.11241575E-01     -0.71586726E-15      0.93443771E-09     -0.59505305E-22
    0.163199618368         0.24455902E-07      0.10833770E-01     -0.14703277E-14      0.94832660E-09     -0.12870413E-21
    0.169476526767         0.26714868E-07      0.10448022E-01     -0.35091595E-16      0.96203606E-09     -0.32311743E-23
    0.175753435166         0.29113317E-07      0.10093584E-01     -0.18108493E-14      0.97666830E-09     -0.17522012E-21
    0.182030343565         0.31657619E-07      0.97559841E-02     -0.32204438E-14      0.99110428E-09     -0.32716286E-21
    0.188307251963         0.34354433E-07      0.94448655E-02     -0.38459246E-14      0.10065268E-08     -0.40985507E-21
    0.194584160362         0.37210710E-07      0.91468487E-02     -0.24356721E-14      0.10217526E-08     -0.27207780E-21
    0.200861068761         0.40233700E-07      0.88714997E-02     -0.18595150E-14      0.10380184E-08     -0.21757435E-21
    0.207137977160         0.43430955E-07      0.86065842E-02     -0.22943856E-14      0.10541060E-08     -0.28100876E-21
    0.213414885559         0.46810335E-07      0.83612718E-02     -0.11907449E-14      0.10712805E-08     -0.15256312E-21
    0.219691793957         0.50380010E-07      0.81244282E-02      0.52546016E-15      0.10883060E-08      0.70387900E-22
    0.225968702356         0.54148468E-07      0.79046629E-02     -0.47700518E-15      0.11064583E-08     -0.66768985E-22
    0.232245610755         0.58124513E-07      0.76918555E-02     -0.53664050E-15      0.11244929E-08     -0.78452911E-22
    0.238522519154         0.62317278E-07      0.74940741E-02     -0.89126802E-15      0.11436967E-08     -0.13601951E-21
    0.244799427552         0.66736218E-07      0.73020451E-02      0.49785073E-15      0.11628120E-08      0.79280092E-22
    0.251076335951         0.71391124E-07      0.71230631E-02     -0.15807514E-14      0.11830934E-08     -0.26255230E-21
    0.257353244350         0.76292116E-07      0.69502139E-02      0.87773594E-15      0.12035440E-08      0.15199444E-21
    0.263630152749         0.81449655E-07      0.67892923E-02      0.76958969E-15      0.12252719E-08      0.13888879E-21
    0.269907061148         0.86874540E-07      0.66321875E-02     -0.69911601E-15      0.12469495E-08     -0.13144417E-21
    0.276183969546         0.92577913E-07      0.64854572E-02     -0.60595494E-15      0.12698819E-08     -0.11864872E-21
    0.282460877945         0.98571259E-07      0.63429060E-02     -0.47172349E-15      0.12929868E-08     -0.96159746E-22
    0.288737786344         0.10486641E-06      0.62097929E-02     -0.22675150E-15      0.13174183E-08     -0.48105722E-22
    0.295014694743         0.11147554E-06      0.60804973E-02     -0.10083325E-14      0.13421123E-08     -0.22256328E-21
    0.301291603141         0.11841119E-06      0.59596688E-02     -0.23206458E-15      0.13681749E-08     -0.53275601E-22
    0.307568511540         0.12568621E-06      0.58425407E-02     -0.41572765E-15      0.13946375E-08     -0.99235824E-22
    0.313845419939         0.13331385E-06      0.57329892E-02     -0.55089463E-15      0.14225070E-08     -0.13669160E-21
    0.320122328338         0.14130766E-06      0.56286760E-02     -0.52591445E-15      0.14513421E-08     -0.13560592E-21
    0.326399236737         0.14968158E-06      0.55285971E-02     -0.58516258E-15      0.14809758E-08     -0.15675073E-21
    0.332676145135         0.15844985E-06      0.54296879E-02     -0.22540170E-15      0.15106326E-08     -0.62710630E-22
    0.338953053534         0.16762710E-06      0.53399253E-02     -0.94975362E-15      0.15426012E-08     -0.27436547E-21
    0.345229961933         0.17722828E-06      0.52535448E-02      0.16188538E-15      0.15753998E-08      0.48545162E-22
    0.351506870332         0.18726866E-06      0.51726991E-02      0.75420798E-16      0.16097644E-08      0.23471250E-22
    0.357783778731         0.19776389E-06      0.50951703E-02     -0.28677138E-15      0.16451248E-08     -0.92592530E-22
    0.364060687129         0.20872991E-06      0.50227443E-02     -0.46094113E-15      0.16821541E-08     -0.15437258E-21
    0.370337595528         0.22018301E-06      0.49537121E-02     -0.79164212E-15      0.17204045E-08     -0.27493416E-21
    0.376614503927         0.23213979E-06      0.48893636E-02     -0.19326761E-15      0.17604297E-08     -0.69586569E-22
    0.382891412326         0.24461718E-06      0.48284741E-02     -0.73450532E-15      0.18019181E-08     -0.27410698E-21
    0.389168320724         0.25763241E-06      0.47718626E-02     -0.21163352E-15      0.18452905E-08     -0.81839182E-22
    0.395445229123         0.27120301E-06      0.47188988E-02     -0.23461311E-15      0.18904389E-08     -0.93988397E-22
    0.401722137522         0.28534681E-06      0.46698654E-02     -0.30128368E-15      0.19376058E-08     -0.12500767E-21
    0.407999045921         0.30008192E-06      0.46246918E-02     -0.64823556E-15      0.19869058E-08     -0.27850137E-21
    0.414275954320         0.31542674E-06      0.45831268E-02     -0.74521837E-15      0.20383768E-08     -0.33144093E-21
    0.420552862718         0.33139993E-06      0.45457453E-02      0.14151591E-16      0.20924290E-08      0.65140473E-23
    0.426829771117         0.34802041E-06      0.45116562E-02     -0.29003673E-15      0.21488189E-08     -0.13813916E-21
    0.433106679516         0.36530735E-06      0.44823441E-02     -0.64217657E-16      0.22084243E-08     -0.31639658E-22
    0.439383587915         0.38328015E-06      0.44559213E-02     -0.35713855E-15      0.22705120E-08     -0.18197973E-21
    0.445660496313         0.40195843E-06      0.44357310E-02     -0.45589914E-15      0.23369854E-08     -0.24019257E-21
    0.451937404712         0.42136202E-06      0.44176115E-02     -0.55779067E-15      0.24059048E-08     -0.30378208E-21
    0.458214313111         0.44151098E-06      0.44144546E-02     -0.80206106E-15      0.24846414E-08     -0.45143382E-21
    0.464491221510         0.46242550E-06      0.43919982E-02     -0.23131808E-15      0.25541137E-08     -0.13452025E-21
    0.470768129909         0.48412598E-06      0.43522781E-02     -0.19002655E-15      0.26144586E-08     -0.11415092E-21
    0.477045038307         0.50663295E-06      0.43562369E-02     -0.11950379E-15      0.27024604E-08     -0.74136062E-22
    0.483321946706         0.52996708E-06      0.43669031E-02     -0.93952245E-16      0.27970469E-08     -0.60177390E-22
    0.489598855105         0.55414917E-06      0.43750041E-02     -0.31309370E-15      0.28925346E-08     -0.20700195E-21
    0.495875763504         0.57920011E-06      0.43866424E-02     -0.36401041E-15      0.29929660E-08     -0.24836098E-21
    0.502152671902         0.60514088E-06      0.44049910E-02     -0.64085689E-15      0.31008413E-08     -0.45112363E-21
    0.508429580301         0.63199252E-06      0.44184042E-02     -0.95978802E-16      0.32081922E-08     -0.69689967E-22
    0.514706488700         0.65977612E-06      0.44706617E-02     -0.18075872E-15      0.33475152E-08     -0.13534743E-21
    0.520983397099         0.68851279E-06      0.45689789E-02     -0.20680247E-15      0.35271269E-08     -0.15964586E-21
    0.527260305498         0.71822366E-06      0.45809308E-02     -0.18530257E-15      0.36450389E-08     -0.14744494E-21
    0.533537213896         0.74892983E-06      0.45844069E-02     -0.17326342E-15      0.37590090E-08     -0.14206827E-21
    0.539814122295         0.78065236E-06      0.46591516E-02     -0.49914916E-15      0.39358096E-08     -0.42165532E-21
    0.546091030694         0.81341227E-06      0.47707785E-02     -0.39168603E-15      0.41509618E-08     -0.34079841E-21
    0.552367939093         0.84723047E-06      0.48310748E-02     -0.26681564E-15      0.43284327E-08     -0.23905520E-21
    0.558644847491         0.88212778E-06      0.49024428E-02     -0.18944692E-15      0.45219113E-08     -0.17474190E-21
    0.564921755890         0.91812490E-06      0.49947278E-02     -0.36311876E-15      0.47417548E-08     -0.34472752E-21
    0.571198664289         0.95524236E-06      0.51226219E-02     -0.38866268E-15      0.50041750E-08     -0.37967590E-21
    0.577475572688         0.99350052E-06      0.52397140E-02     -0.61567804E-15      0.52656970E-08     -0.61873110E-21
    0.583752481087         0.10329195E-05      0.53899129E-02     -0.31971689E-15      0.55710019E-08     -0.33045865E-21
    0.590029389485         0.10735193E-05      0.55451313E-02     -0.24575009E-15      0.58933448E-08     -0.26118228E-21
    0.596306297884         0.11153196E-05      0.57433304E-02     -0.18435528E-15      0.62749103E-08     -0.20141848E-21
    0.602583206283         0.11583396E-05      0.59209969E-02     -0.15248882E-15      0.66485590E-08     -0.17122639E-21
    0.608860114682         0.12025986E-05      0.61921069E-02     -0.24196756E-15      0.71442300E-08     -0.27917346E-21
    0.615137023081         0.12481153E-05      0.63227144E-02     -0.76770858E-16      0.74937673E-08     -0.90989867E-22
    0.621413931479         0.12949080E-05      0.66979581E-02     -0.45972319E-15      0.81529383E-08     -0.55958768E-21
    0.627690839878         0.13429948E-05      0.59589849E-02     -0.42192786E-15      0.74475705E-08     -0.52732764E-21
    0.633967748277         0.13923932E-05      0.50412051E-02     -0.44616748E-15      0.64675962E-08     -0.57240898E-21
    0.640244656676         0.14431204E-05      0.90915097E-02     -0.33548352E-15      0.11970338E-07     -0.44171445E-21
    0.646521565074         0.14951931E-05      0.11593009E-01     -0.26145693E-15      0.15661171E-07     -0.35320612E-21
    0.652798473473         0.15486273E-05      0.12182905E-01     -0.72168064E-15      0.16882332E-07     -0.10000614E-20
    0.659075381872         0.16034389E-05      0.14139521E-01     -0.46448546E-15      0.20093973E-07     -0.66009013E-21
    0.665352290271         0.16596427E-05      0.15998302E-01     -0.11728809E-14      0.23310450E-07     -0.17089551E-20
    0.671629198670         0.17172535E-05      0.18560210E-01      0.38768567E-16      0.27720530E-07      0.57902643E-22
    0.677906107068         0.17762849E-05      0.38415008E-01     -0.12451622E-14      0.58797358E-07     -0.19058241E-20
    0.684183015467         0.18367504E-05      0.91991151E-01     -0.10043281E-14      0.14425727E-06     -0.15749519E-20
    0.690459923866         0.18986625E-05      0.27193667E+00      0.21752098E-14      0.43680828E-06      0.34940109E-20
    0.696736832265         0.19620330E-05      0.43208863E+00     -0.11923869E-13      0.71076197E-06     -0.19614107E-19
    0.703013740663         0.20268732E-05      0.28526756E+00     -0.19017749E-14      0.48042871E-06     -0.32028433E-20
    0.709290649062         0.20931935E-05      0.27103612E+00     -0.11639132E-13      0.46722504E-06     -0.20064093E-19
    0.715567557461         0.21610035E-05      0.47604582E+00     -0.10593425E-13      0.83978358E-06     -0.18687664E-19
    0.721844465860         0.22303120E-05      0.43222556E+00     -0.25225686E-13      0.78009274E-06     -0.45528021E-19
    0.728121374259         0.23011271E-05      0.32860186E+00     -0.12287981E-13      0.60662547E-06     -0.22684601E-19
    0.734398282657         0.23734559E-05      0.35369958E+00     -0.26359967E-13      0.66772534E-06     -0.49763186E-19
    0.740675191056         0.24473047E-05      0.43450448E+00     -0.22985306E-13      0.83862596E-06     -0.44363351E-19
    0.746952099455         0.25226788E-05      0.46352352E+00     -0.14946947E-13      0.91443910E-06     -0.29487334E-19
    0.753229007854         0.25995828E-05      0.49144636E+00     -0.33533648E-13      0.99075561E-06     -0.67603817E-19
    0.759505916252         0.26780200E-05      0.53081692E+00      0.50377886E-14      0.10933047E-05      0.10376154E-19
    0.765782824651         0.27579930E-05      0.44422211E+00     -0.11927717E-13      0.93454778E-06     -0.25093351E-19
    0.772059733050         0.28395032E-05      0.40354669E+00     -0.24149110E-14      0.86695999E-06     -0.51880768E-20
    0.778336641449         0.29225512E-05      0.48283568E+00     -0.20660729E-13      0.10590289E-05     -0.45316263E-19
    0.784613549848         0.30071363E-05      0.52834424E+00     -0.11350381E-13      0.11828457E-05     -0.25410988E-19
    0.790890458246         0.30932570E-05      0.54905444E+00     -0.31792228E-13      0.12543793E-05     -0.72633075E-19
    0.797167366645         0.31809104E-05      0.57591980E+00     -0.21440583E-13      0.13423870E-05     -0.49974944E-19
    0.803444275044         0.32700927E-05      0.58902051E+00     -0.96193551E-14      0.14003885E-05     -0.22869890E-19
    0.809721183443         0.33607990E-05      0.61020598E+00     -0.32054244E-13      0.14794398E-05     -0.77715273E-19
    0.815998091842         0.34530231E-05      0.61850557E+00     -0.19703528E-13      0.15288602E-05     -0.48704394E-19
    0.822275000240         0.35467578E-05      0.62860074E+00     -0.42989035E-13      0.15838102E-05     -0.10831434E-18
    0.828551908639         0.36419946E-05      0.62917103E+00     -0.29689948E-13      0.16154819E-05     -0.76232965E-19
    0.834828817038         0.37387238E-05      0.62689188E+00     -0.51967950E-13      0.16399568E-05     -0.13594879E-18
    0.841105725437         0.38369346E-05      0.62177316E+00     -0.38661219E-13      0.16568362E-05     -0.10302038E-18
    0.847382633835         0.39366149E-05      0.61028765E+00     -0.59812960E-13      0.16561198E-05     -0.16231269E-18
    0.853659542234         0.40377513E-05      0.60090564E+00     -0.12492784E-13      0.16602556E-05     -0.34516593E-19
    0.859936450633         0.41403294E-05      0.58188053E+00      0.75293585E-16      0.16365006E-05      0.21175824E-21
    0.866213359032         0.42443332E-05      0.56762568E+00     -0.20752708E-13      0.16246523E-05     -0.59398185E-19
    0.872490267431         0.43497456E-05      0.54248431E+00     -0.83985676E-14      0.15798078E-05     -0.24458076E-19
    0.878767175829         0.44565484E-05      0.52348869E+00     -0.26877542E-13      0.15507647E-05     -0.79621097E-19
    0.885044084228         0.45647219E-05      0.49464797E+00     -0.15111778E-13      0.14902511E-05     -0.45528021E-19
    0.891320992627         0.46742450E-05      0.47189434E+00     -0.31280073E-13      0.14455593E-05     -0.95820602E-19
    0.897597901026         0.47850957E-05      0.44103718E+00     -0.20264411E-13      0.13734024E-05     -0.63103955E-19
    0.903874809424         0.48972503E-05      0.41465003E+00     -0.10404300E-13      0.13123193E-05     -0.32928406E-19
    0.910151717823         0.50106841E-05      0.38079340E+00     -0.23507773E-13      0.12245780E-05     -0.75597691E-19
    0.916428626222         0.51253709E-05      0.34922531E+00     -0.14227690E-13      0.11408963E-05     -0.46480933E-19
    0.922705534621         0.52412834E-05      0.30714781E+00     -0.23469545E-13      0.10191444E-05     -0.77874092E-19
    0.928982443020         0.53583927E-05      0.33433094E+00     -0.18619064E-13      0.11264642E-05     -0.62733378E-19
    0.935259351418         0.54766690E-05      0.63517258E+00     -0.58223844E-13      0.21726510E-05     -0.19915862E-18
    0.941536259817         0.55960809E-05      0.72945322E+00     -0.10429793E-13      0.25325509E-05     -0.36210658E-19
    0.947813168216         0.57165958E-05      0.51277388E+00     -0.25845219E-13      0.18065686E-05     -0.91056042E-19
    0.954090076615         0.58381799E-05      0.41649657E+00     -0.12529934E-13      0.14887210E-05     -0.44786867E-19
    0.960366985013         0.59607981E-05      0.37019381E+00     -0.32999531E-14      0.13421781E-05     -0.11964340E-19
    0.966643893412         0.60844141E-05      0.33277006E+00     -0.15031931E-13      0.12235178E-05     -0.55268900E-19
    0.972920801811         0.62089900E-05      0.30747666E+00     -0.74839979E-14      0.11462238E-05     -0.27899148E-19
    0.979197710210         0.63344872E-05      0.28081776E+00     -0.16909576E-13      0.10611565E-05     -0.63898048E-19
    0.985474618609         0.64608656E-05      0.26128909E+00     -0.10395350E-13      0.10006457E-05     -0.39810549E-19
    0.991751527007         0.65880838E-05      0.23331394E+00     -0.17694987E-13      0.90533797E-06     -0.68662608E-19
    0.998028435406         0.67160994E-05      0.22780725E+00     -0.12659606E-13      0.89547928E-06     -0.49763186E-19
    1.004305343805         0.68448687E-05      0.25115832E+00     -0.22938038E-13      0.99990957E-06     -0.91320740E-19
    1.010582252204         0.69743470E-05      0.25807823E+00     -0.18253638E-13      0.10403921E-05     -0.73585987E-19
    1.016859160602         0.71044882E-05      0.23252856E+00     -0.11609608E-13      0.94899102E-06     -0.47380905E-19
