 
 # Omega; pulse ft; projected flux at t=    500.250000000000     
    0.000000000000         0.10341091E-10      0.00000000E+00      0.00000000E+00      0.11562895E-08      0.17734752E-19
    0.006276908399         0.40699280E-10      0.32906817E+00      0.47250577E-11      0.12463517E-08      0.17896242E-19
    0.012553816798         0.13187398E-09      0.21943802E+00      0.29228084E-11      0.13465083E-08      0.17934840E-19
    0.018830725196         0.28416575E-09      0.15559069E+00      0.20257643E-11      0.13715199E-08      0.17856955E-19
    0.025107633595         0.49807598E-09      0.12005605E+00      0.15486488E-11      0.13911939E-08      0.17945541E-19
    0.031384541994         0.77430759E-09      0.97539133E-01      0.12425386E-11      0.14056928E-08      0.17906942E-19
    0.037661450393         0.11137660E-08      0.82174601E-01      0.10392737E-11      0.14195423E-08      0.17953151E-19
    0.043938358791         0.15175606E-08      0.70965518E-01      0.87810888E-12      0.14317374E-08      0.17715947E-19
    0.050215267190         0.19870057E-08      0.62520877E-01      0.77338551E-12      0.14451143E-08      0.17876116E-19
    0.056492175589         0.25236231E-08      0.55829265E-01      0.67944732E-12      0.14568402E-08      0.17729880E-19
    0.062769083988         0.31291437E-08      0.50571035E-01      0.61945988E-12      0.14726358E-08      0.18038761E-19
    0.069045992387         0.38055096E-08      0.46229827E-01      0.55280786E-12      0.14883683E-08      0.17797637E-19
    0.075322900785         0.45548772E-08      0.42469998E-01      0.51102725E-12      0.15001880E-08      0.18051259E-19
    0.081599809184         0.53796196E-08      0.39295862E-01      0.46655080E-12      0.15132931E-08      0.17966983E-19
    0.087876717583         0.62823298E-08      0.36548246E-01      0.42327526E-12      0.15262555E-08      0.17675984E-19
    0.094153625982         0.72658239E-08      0.34167539E-01      0.39635870E-12      0.15401936E-08      0.17866933E-19
    0.100430534380         0.83331444E-08      0.32038479E-01      0.36194279E-12      0.15528476E-08      0.17542717E-19
    0.106707442779         0.94875639E-08      0.30167614E-01      0.34067991E-12      0.15668043E-08      0.17693768E-19
    0.112984351178         0.10732589E-07      0.28470195E-01      0.31505558E-12      0.15797576E-08      0.17481842E-19
    0.119261259577         0.12071965E-07      0.26958534E-01      0.29694093E-12      0.15940012E-08      0.17557490E-19
    0.125538167976         0.13509678E-07      0.25572100E-01      0.28727108E-12      0.16074942E-08      0.18058219E-19
    0.131815076374         0.15049961E-07      0.24324623E-01      0.26342658E-12      0.16222964E-08      0.17568864E-19
    0.138091984773         0.16697298E-07      0.23169161E-01      0.25565657E-12      0.16364466E-08      0.18057120E-19
    0.144368893172         0.18456429E-07      0.22122516E-01      0.23991764E-12      0.16520469E-08      0.17916370E-19
    0.150645801571         0.20332352E-07      0.21139416E-01      0.22373021E-12      0.16666231E-08      0.17638799E-19
    0.156922709970         0.22330332E-07      0.20245458E-01      0.21571114E-12      0.16828708E-08      0.17930639E-19
    0.163199618368         0.24455902E-07      0.19396874E-01      0.19865932E-12      0.16978921E-08      0.17389508E-19
    0.169476526767         0.26714868E-07      0.18623156E-01      0.19455005E-12      0.17147885E-08      0.17913837E-19
    0.175753435166         0.29113317E-07      0.17883452E-01      0.18196357E-12      0.17304260E-08      0.17607030E-19
    0.182030343565         0.31657619E-07      0.17207313E-01      0.17542227E-12      0.17480801E-08      0.17821038E-19
    0.188307251963         0.34354433E-07      0.16554989E-01      0.16561235E-12      0.17642432E-08      0.17649087E-19
    0.194584160362         0.37210710E-07      0.15957854E-01      0.15816191E-12      0.17825789E-08      0.17667544E-19
    0.200861068761         0.40233700E-07      0.15377857E-01      0.14949710E-12      0.17993010E-08      0.17492052E-19
    0.207137977160         0.43430955E-07      0.14845909E-01      0.14297266E-12      0.18182778E-08      0.17510819E-19
    0.213414885559         0.46810335E-07      0.14326918E-01      0.13726412E-12      0.18356236E-08      0.17586842E-19
    0.219691793957         0.50380010E-07      0.13849767E-01      0.13330517E-12      0.18552425E-08      0.17856865E-19
    0.225968702356         0.54148468E-07      0.13382805E-01      0.12679049E-12      0.18732634E-08      0.17747548E-19
    0.232245610755         0.58124513E-07      0.12952198E-01      0.12316881E-12      0.18935164E-08      0.18006378E-19
    0.238522519154         0.62317278E-07      0.12530026E-01      0.11668362E-12      0.19122508E-08      0.17807493E-19
    0.244799427552         0.66736218E-07      0.12139344E-01      0.11335706E-12      0.19331262E-08      0.18051511E-19
    0.251076335951         0.71391124E-07      0.11755970E-01      0.10666687E-12      0.19525884E-08      0.17716658E-19
    0.257353244350         0.76292116E-07      0.11399729E-01      0.10376660E-12      0.19740509E-08      0.17968896E-19
    0.263630152749         0.81449655E-07      0.11051793E-01      0.98479406E-13      0.19945306E-08      0.17772699E-19
    0.269907061148         0.86874540E-07      0.10725929E-01      0.94417646E-13      0.20166336E-08      0.17751916E-19
    0.276183969546         0.92577913E-07      0.10409037E-01      0.90921229E-13      0.20381365E-08      0.17802788E-19
    0.282460877945         0.98571259E-07      0.10110509E-01      0.86301813E-13      0.20610040E-08      0.17592426E-19
    0.288737786344         0.10486641E-06      0.98218697E-02      0.83796923E-13      0.20837267E-08      0.17777662E-19
    0.295014694743         0.11147554E-06      0.95479082E-02      0.80896140E-13      0.21074534E-08      0.17855727E-19
    0.301291603141         0.11841119E-06      0.92849232E-02      0.76528840E-13      0.21315613E-08      0.17568903E-19
    0.307568511540         0.12568621E-06      0.90326260E-02      0.74219784E-13      0.21561234E-08      0.17716554E-19
    0.313845419939         0.13331385E-06      0.87993579E-02      0.71933838E-13      0.21833545E-08      0.17848696E-19
    0.320122328338         0.14130766E-06      0.85640318E-02      0.68384718E-13      0.22082174E-08      0.17632854E-19
    0.326399236737         0.14968158E-06      0.82881501E-02      0.66509555E-13      0.22201925E-08      0.17816281E-19
    0.332676145135         0.15844985E-06      0.80720960E-02      0.63299226E-13      0.22457960E-08      0.17610934E-19
    0.338953053534         0.16762710E-06      0.78898466E-02      0.60811613E-13      0.22792242E-08      0.17567300E-19
    0.345229961933         0.17722828E-06      0.76931996E-02      0.59309354E-13      0.23069880E-08      0.17785314E-19
    0.351506870332         0.18726866E-06      0.75077533E-02      0.56911969E-13      0.23364424E-08      0.17711229E-19
    0.357783778731         0.19776389E-06      0.73242986E-02      0.54439647E-13      0.23648641E-08      0.17577433E-19
    0.364060687129         0.20872991E-06      0.71559805E-02      0.53397854E-13      0.23965906E-08      0.17883335E-19
    0.370337595528         0.22018301E-06      0.69931375E-02      0.50228487E-13      0.24286888E-08      0.17444153E-19
    0.376614503927         0.23213979E-06      0.68246866E-02      0.48837690E-13      0.24572485E-08      0.17584154E-19
    0.382891412326         0.24461718E-06      0.66633495E-02      0.47717633E-13      0.24866676E-08      0.17807544E-19
    0.389168320724         0.25763241E-06      0.65147991E-02      0.44982351E-13      0.25192882E-08      0.17394781E-19
    0.395445229123         0.27120301E-06      0.63688892E-02      0.43770444E-13      0.25514418E-08      0.17534885E-19
    0.401722137522         0.28534681E-06      0.62307428E-02      0.42732940E-13      0.25852401E-08      0.17730616E-19
    0.407999045921         0.30008192E-06      0.60952687E-02      0.41280343E-13      0.26187096E-08      0.17735269E-19
    0.414275954320         0.31542674E-06      0.59674444E-02      0.39341857E-13      0.26540614E-08      0.17497558E-19
    0.420552862718         0.33139993E-06      0.58416318E-02      0.38658105E-13      0.26889319E-08      0.17794516E-19
    0.426829771117         0.34802041E-06      0.57235138E-02      0.36599987E-13      0.27260044E-08      0.17431901E-19
    0.433106679516         0.36530735E-06      0.56062124E-02      0.35778469E-13      0.27621476E-08      0.17627839E-19
    0.439383587915         0.38328015E-06      0.54970218E-02      0.34904815E-13      0.28010042E-08      0.17785727E-19
    0.445660496313         0.40195843E-06      0.53859298E-02      0.33580318E-13      0.28376021E-08      0.17691946E-19
    0.451937404712         0.42136202E-06      0.52838455E-02      0.33118678E-13      0.28776702E-08      0.18036983E-19
    0.458214313111         0.44151098E-06      0.51605704E-02      0.31695741E-13      0.29045868E-08      0.17839701E-19
    0.464491221510         0.46242550E-06      0.50163035E-02      0.31208383E-13      0.29171709E-08      0.18148860E-19
    0.470768129909         0.48412598E-06      0.49778447E-02      0.29115889E-13      0.29902430E-08      0.17490217E-19
    0.477045038307         0.50663295E-06      0.49408174E-02      0.28436068E-13      0.30651142E-08      0.17640764E-19
    0.483321946706         0.52996708E-06      0.48475491E-02      0.27398541E-13      0.31049056E-08      0.17549050E-19
    0.489598855105         0.55414917E-06      0.47682991E-02      0.27041318E-13      0.31525616E-08      0.17878372E-19
    0.495875763504         0.57920011E-06      0.46862438E-02      0.26099486E-13      0.31973813E-08      0.17807441E-19
    0.502152671902         0.60514088E-06      0.46124301E-02      0.24944653E-13      0.32468656E-08      0.17559493E-19
    0.508429580301         0.63199252E-06      0.45304641E-02      0.24751281E-13      0.32895586E-08      0.17971843E-19
    0.514706488700         0.65977612E-06      0.44693177E-02      0.23607310E-13      0.33465088E-08      0.17676539E-19
    0.520983397099         0.68851279E-06      0.44724687E-02      0.23060083E-13      0.34526237E-08      0.17801754E-19
    0.527260305498         0.71822366E-06      0.44029887E-02      0.22388085E-13      0.35034507E-08      0.17814162E-19
    0.533537213896         0.74892983E-06      0.43203526E-02      0.22029801E-13      0.35424963E-08      0.18063453E-19
    0.539814122295         0.78065236E-06      0.42598449E-02      0.21249335E-13      0.35984960E-08      0.17950336E-19
    0.546091030694         0.81341227E-06      0.42038373E-02      0.20459416E-13      0.36576772E-08      0.17801340E-19
    0.552367939093         0.84723047E-06      0.41599414E-02      0.20051565E-13      0.37271263E-08      0.17965329E-19
    0.558644847491         0.88212778E-06      0.41056007E-02      0.19099837E-13      0.37869207E-08      0.17617293E-19
    0.564921755890         0.91812490E-06      0.40602161E-02      0.18645615E-13      0.38545743E-08      0.17701252E-19
    0.571198664289         0.95524236E-06      0.40139903E-02      0.18122138E-13      0.39211776E-08      0.17703113E-19
    0.577475572688         0.99350052E-06      0.39762568E-02      0.17852400E-13      0.39959745E-08      0.17940927E-19
    0.583752481087         0.10329195E-05      0.39322441E-02      0.17480591E-13      0.40643587E-08      0.18067899E-19
    0.590029389485         0.10735193E-05      0.39005048E-02      0.17148219E-13      0.41454420E-08      0.18225064E-19
    0.596306297884         0.11153196E-05      0.38607814E-02      0.16727498E-13      0.42181200E-08      0.18275728E-19
    0.602583206283         0.11583396E-05      0.38285004E-02      0.16122378E-13      0.42989401E-08      0.18103468E-19
    0.608860114682         0.12025986E-05      0.37947872E-02      0.15935267E-13      0.43782889E-08      0.18385537E-19
    0.615137023081         0.12481153E-05      0.37536006E-02      0.15013937E-13      0.44488186E-08      0.17794723E-19
    0.621413931479         0.12949080E-05      0.37393615E-02      0.14820212E-13      0.45516534E-08      0.18039568E-19
    0.627690839878         0.13429948E-05      0.36693738E-02      0.14104304E-13      0.45860025E-08      0.17627632E-19
    0.633967748277         0.13923932E-05      0.46930367E-02      0.13680804E-13      0.60209148E-08      0.17551739E-19
    0.640244656676         0.14431204E-05      0.51683893E-02      0.13724040E-13      0.68049608E-08      0.18069760E-19
    0.646521565074         0.14951931E-05      0.41978773E-02      0.13115862E-13      0.56709759E-08      0.17718416E-19
    0.652798473473         0.15486273E-05      0.39562075E-02      0.12965032E-13      0.54822730E-08      0.17966156E-19
    0.659075381872         0.16034389E-05      0.39356371E-02      0.12346262E-13      0.55930172E-08      0.17545535E-19
    0.665352290271         0.16596427E-05      0.39141867E-02      0.11884786E-13      0.57031959E-08      0.17316819E-19
    0.671629198670         0.17172535E-05      0.40198936E-02      0.11889766E-13      0.60038965E-08      0.17757913E-19
    0.677906107068         0.17762849E-05      0.40849941E-02      0.11204028E-13      0.62524227E-08      0.17148695E-19
    0.684183015467         0.18367504E-05      0.51295267E-02      0.11411309E-13      0.80439425E-08      0.17894812E-19
    0.690459923866         0.18986625E-05      0.74352310E-02      0.10880169E-13      0.11943114E-07      0.17476672E-19
    0.696736832265         0.19620330E-05      0.92179964E-02      0.10683308E-13      0.15163096E-07      0.17573452E-19
    0.703013740663         0.20268732E-05      0.80357157E-02      0.10558977E-13      0.13533220E-07      0.17782729E-19
    0.709290649062         0.20931935E-05      0.62672764E-02      0.10288607E-13      0.10803831E-07      0.17735993E-19
    0.715567557461         0.21610035E-05      0.66551095E-02      0.10245031E-13      0.11740155E-07      0.18073069E-19
    0.721844465860         0.22303120E-05      0.71920412E-02      0.93510114E-14      0.12980397E-07      0.16876966E-19
    0.728121374259         0.23011271E-05      0.75607993E-02      0.97393360E-14      0.13957844E-07      0.17979598E-19
    0.734398282657         0.23734559E-05      0.70166325E-02      0.88894782E-14      0.13246222E-07      0.16781840E-19
    0.740675191056         0.24473047E-05      0.70591399E-02      0.89263492E-14      0.13624665E-07      0.17228518E-19
    0.746952099455         0.25226788E-05      0.69350420E-02      0.87141608E-14      0.13681449E-07      0.17191295E-19
    0.753229007854         0.25995828E-05      0.72925276E-02      0.84162366E-14      0.14701732E-07      0.16967129E-19
    0.759505916252         0.26780200E-05      0.74242322E-02      0.87293823E-14      0.15291427E-07      0.17979598E-19
    0.765782824651         0.27579930E-05      0.65597703E-02      0.82702927E-14      0.13800346E-07      0.17398917E-19
    0.772059733050         0.28395032E-05      0.63981874E-02      0.85353551E-14      0.13745553E-07      0.18336940E-19
    0.778336641449         0.29225512E-05      0.68032700E-02      0.80008279E-14      0.14921970E-07      0.17548637E-19
    0.784613549848         0.30071363E-05      0.70687806E-02      0.78580698E-14      0.15825434E-07      0.17592477E-19
    0.790890458246         0.30932570E-05      0.69661834E-02      0.72833052E-14      0.15915063E-07      0.16639565E-19
    0.797167366645         0.31809104E-05      0.72361151E-02      0.73709102E-14      0.16866353E-07      0.17180541E-19
    0.803444275044         0.32700927E-05      0.70541533E-02      0.74156154E-14      0.16771156E-07      0.17630528E-19
    0.809721183443         0.33607990E-05      0.73446568E-02      0.66904772E-14      0.17807065E-07      0.16221012E-19
    0.815998091842         0.34530231E-05      0.71244936E-02      0.69484385E-14      0.17610762E-07      0.17175578E-19
    0.822275000240         0.35467578E-05      0.73967168E-02      0.63401473E-14      0.18636624E-07      0.15974512E-19
    0.828551908639         0.36419946E-05      0.71924482E-02      0.65397780E-14      0.18467586E-07      0.16791766E-19
    0.834828817038         0.37387238E-05      0.74228318E-02      0.61709411E-14      0.19418218E-07      0.16143257E-19
    0.841105725437         0.38369346E-05      0.72860484E-02      0.62391752E-14      0.19415102E-07      0.16625503E-19
    0.847382633835         0.39366149E-05      0.74643522E-02      0.58696100E-14      0.20255795E-07      0.15928190E-19
    0.853659542234         0.40377513E-05      0.74322837E-02      0.61793297E-14      0.20534823E-07      0.17073008E-19
    0.859936450633         0.41403294E-05      0.75563265E-02      0.63928959E-14      0.21251669E-07      0.17979598E-19
    0.866213359032         0.42443332E-05      0.76588060E-02      0.59008579E-14      0.21920955E-07      0.16889374E-19
    0.872490267431         0.43497456E-05      0.77388048E-02      0.59984088E-14      0.22536733E-07      0.17468400E-19
    0.878767175829         0.44565484E-05      0.80107197E-02      0.56845599E-14      0.23730678E-07      0.16839743E-19
    0.885044084228         0.45647219E-05      0.80672917E-02      0.58058439E-14      0.24304740E-07      0.17491561E-19
    0.891320992627         0.46742450E-05      0.85777020E-02      0.54443096E-14      0.26276172E-07      0.16677616E-19
    0.897597901026         0.47850957E-05      0.86299422E-02      0.54326726E-14      0.26873887E-07      0.16917498E-19
    0.903874809424         0.48972503E-05      0.95736554E-02      0.56344430E-14      0.30299511E-07      0.17832360E-19
    0.910151717823         0.50106841E-05      0.96022793E-02      0.51464409E-14      0.30879579E-07      0.16550230E-19
    0.916428626222         0.51253709E-05      0.11762583E-01      0.52280277E-14      0.38427592E-07      0.17079625E-19
    0.922705534621         0.52412834E-05      0.11298957E-01      0.45610852E-14      0.37490970E-07      0.15134096E-19
    0.928982443020         0.53583927E-05      0.22751428E-01      0.40714471E-14      0.76656590E-07      0.13717963E-19
    0.935259351418         0.54766690E-05      0.18594815E-01      0.35132410E-14      0.63604830E-07      0.12017280E-19
    0.941536259817         0.55960809E-05     -0.40052770E-02      0.52301447E-14     -0.13905714E-07      0.18158269E-19
    0.947813168216         0.57165958E-05      0.13159612E-02      0.51824266E-14      0.46363012E-08      0.18258358E-19
    0.954090076615         0.58381799E-05      0.61109426E-02      0.49232014E-14      0.21842890E-07      0.17597440E-19
    0.960366985013         0.59607981E-05      0.74220822E-02      0.49649875E-14      0.26909570E-07      0.18001104E-19
    0.966643893412         0.60844141E-05      0.94937145E-02      0.44410069E-14      0.34906172E-07      0.16328545E-19
    0.972920801811         0.62089900E-05      0.11257721E-01      0.44298664E-14      0.41966985E-07      0.16513834E-19
    0.979197710210         0.63344872E-05      0.13403599E-01      0.38298718E-14      0.50649635E-07      0.14472352E-19
    0.985474618609         0.64608656E-05      0.16127321E-01      0.39475027E-14      0.61761993E-07      0.15117553E-19
    0.991751527007         0.65880838E-05      0.20685178E-01      0.30952585E-14      0.80265571E-07      0.12010662E-19
    0.998028435406         0.67160994E-05      0.45651493E-02      0.42999731E-14      0.17944980E-07      0.16902609E-19
    1.004305343805         0.68448687E-05      0.57612951E-02      0.40145722E-14      0.22936823E-07      0.15982784E-19
    1.010582252204         0.69743470E-05      0.87501644E-01     -0.17334390E-14      0.35274584E-06     -0.69880218E-20
    1.016859160602         0.71044882E-05      0.19542451E+00     -0.53443112E-14      0.79756267E-06     -0.21811098E-19
