 
 # eight columns.
 # Omega (column 1); |pulse ft|^2 (2); cross section (Mb) (3); flux (5); flux in
 tegral domega (7)
 
  0.0000      0.237334E-09      0.000000E+00      0.000000E+00      0.111552E-06      0.321686E-16      0.557204E-10      0.160682E-19
  0.0063      0.268472E-09      0.308571E+01      0.965472E-09      0.102792E-06      0.321621E-16      0.107065E-09      0.321332E-19
  0.0126      0.361985E-09      0.413980E+01      0.143240E-08      0.929706E-07      0.321686E-16      0.153504E-09      0.482015E-19
  0.0188      0.518176E-09      0.428651E+01      0.150091E-08      0.918686E-07      0.321675E-16      0.199393E-09      0.642692E-19
  0.0251      0.737552E-09      0.403438E+01      0.140623E-08      0.923032E-07      0.321734E-16      0.245498E-09      0.803398E-19
  0.0314      0.102082E-08      0.367417E+01      0.126937E-08      0.930777E-07      0.321570E-16      0.291990E-09      0.964022E-19
  0.0377      0.136890E-08      0.331999E+01      0.113598E-08      0.939860E-07      0.321587E-16      0.338936E-09      0.112465E-18
  0.0439      0.178290E-08      0.300454E+01      0.101776E-08      0.949538E-07      0.321649E-16      0.386366E-09      0.128532E-18
  0.0502      0.226414E-08      0.273705E+01      0.916012E-09      0.961177E-07      0.321679E-16      0.434377E-09      0.144600E-18
  0.0565      0.281418E-08      0.250786E+01      0.829202E-09      0.973014E-07      0.321719E-16      0.482979E-09      0.160670E-18
  0.0628      0.343474E-08      0.231103E+01      0.754610E-09      0.984933E-07      0.321605E-16      0.532176E-09      0.176734E-18
  0.0690      0.412779E-08      0.214193E+01      0.690925E-09      0.997323E-07      0.321708E-16      0.581993E-09      0.192803E-18
  0.0753      0.489549E-08      0.199525E+01      0.635274E-09      0.101000E-06      0.321576E-16      0.632442E-09      0.208866E-18
  0.0816      0.574024E-08      0.186753E+01      0.587107E-09      0.102320E-06      0.321670E-16      0.683551E-09      0.224933E-18
  0.0879      0.666466E-08      0.175463E+01      0.544384E-09      0.103644E-06      0.321560E-16      0.735321E-09      0.240995E-18
  0.0942      0.767157E-08      0.165512E+01      0.506878E-09      0.105034E-06      0.321665E-16      0.787786E-09      0.257062E-18
  0.1004      0.876404E-08      0.156571E+01      0.473341E-09      0.106415E-06      0.321710E-16      0.840940E-09      0.273132E-18
  0.1067      0.994536E-08      0.148603E+01      0.443122E-09      0.107871E-06      0.321664E-16      0.894822E-09      0.289199E-18
  0.1130      0.112191E-07      0.141356E+01      0.415877E-09      0.109321E-06      0.321630E-16      0.949428E-09      0.305264E-18
  0.1193      0.125889E-07      0.134835E+01      0.391004E-09      0.110852E-06      0.321457E-16      0.100480E-08      0.321321E-18
  0.1255      0.140589E-07      0.128836E+01      0.368687E-09      0.112375E-06      0.321579E-16      0.106093E-08      0.337384E-18
  0.1318      0.156334E-07      0.123395E+01      0.348160E-09      0.113983E-06      0.321603E-16      0.111786E-08      0.353448E-18
  0.1381      0.173167E-07      0.118345E+01      0.329476E-09      0.115585E-06      0.321791E-16      0.117560E-08      0.369522E-18
  0.1444      0.191138E-07      0.113731E+01      0.312007E-09      0.117274E-06      0.321729E-16      0.123418E-08      0.385592E-18
  0.1506      0.210295E-07      0.109429E+01      0.295893E-09      0.118976E-06      0.321707E-16      0.129361E-08      0.401661E-18
  0.1569      0.230693E-07      0.105475E+01      0.281083E-09      0.120768E-06      0.321836E-16      0.135393E-08      0.417737E-18
  0.1632      0.252386E-07      0.101750E+01      0.266850E-09      0.122556E-06      0.321415E-16      0.141515E-08      0.433792E-18
  0.1695      0.275433E-07      0.983119E+00      0.254034E-09      0.124441E-06      0.321551E-16      0.147730E-08      0.449853E-18
  0.1758      0.299895E-07      0.950598E+00      0.241855E-09      0.126332E-06      0.321420E-16      0.154041E-08      0.465908E-18
  0.1820      0.325836E-07      0.920439E+00      0.230639E-09      0.128322E-06      0.321543E-16      0.160451E-08      0.481969E-18
  0.1883      0.353322E-07      0.891894E+00      0.220006E-09      0.130337E-06      0.321507E-16      0.166961E-08      0.498029E-18
  0.1946      0.382423E-07      0.865357E+00      0.209989E-09      0.132460E-06      0.321430E-16      0.173577E-08      0.514084E-18
  0.2009      0.413213E-07      0.839869E+00      0.200719E-09      0.134568E-06      0.321602E-16      0.180299E-08      0.530148E-18
  0.2071      0.445766E-07      0.816119E+00      0.191741E-09      0.136790E-06      0.321377E-16      0.187132E-08      0.546201E-18
  0.2134      0.480162E-07      0.793496E+00      0.183476E-09      0.139047E-06      0.321510E-16      0.194077E-08      0.562260E-18
  0.2197      0.516482E-07      0.772309E+00      0.175737E-09      0.141412E-06      0.321778E-16      0.201140E-08      0.578333E-18
  0.2260      0.554811E-07      0.752038E+00      0.168263E-09      0.143810E-06      0.321765E-16      0.208324E-08      0.594405E-18
  0.2322      0.595238E-07      0.733010E+00      0.161183E-09      0.146320E-06      0.321747E-16      0.215633E-08      0.610477E-18
  0.2385      0.637853E-07      0.714806E+00      0.154410E-09      0.148878E-06      0.321602E-16      0.223069E-08      0.626541E-18
  0.2448      0.682751E-07      0.697685E+00      0.148136E-09      0.151553E-06      0.321785E-16      0.230639E-08      0.642614E-18
  0.2511      0.730031E-07      0.681268E+00      0.141988E-09      0.154279E-06      0.321544E-16      0.238345E-08      0.658675E-18
  0.2574      0.779793E-07      0.665820E+00      0.136340E-09      0.157130E-06      0.321754E-16      0.246194E-08      0.674747E-18
  0.2636      0.832142E-07      0.651019E+00      0.130835E-09      0.160047E-06      0.321648E-16      0.254188E-08      0.690813E-18
  0.2699      0.887186E-07      0.637072E+00      0.125664E-09      0.163095E-06      0.321710E-16      0.262335E-08      0.706882E-18
  0.2762      0.945035E-07      0.623683E+00      0.120707E-09      0.166213E-06      0.321688E-16      0.270637E-08      0.722951E-18
  0.2825      0.100581E-06      0.611090E+00      0.115957E-09      0.169478E-06      0.321592E-16      0.279103E-08      0.739014E-18
  0.2887      0.106962E-06      0.598969E+00      0.111519E-09      0.172815E-06      0.321754E-16      0.287735E-08      0.755086E-18
  0.2950      0.113659E-06      0.587624E+00      0.107165E-09      0.176324E-06      0.321562E-16      0.296542E-08      0.771148E-18
  0.3013      0.120684E-06      0.576575E+00      0.103125E-09      0.179875E-06      0.321720E-16      0.305527E-08      0.787218E-18
  0.3076      0.128051E-06      0.566378E+00      0.991717E-10      0.183654E-06      0.321574E-16      0.314701E-08      0.803280E-18
  0.3138      0.135773E-06      0.556002E+00      0.954608E-10      0.187338E-06      0.321643E-16      0.324058E-08      0.819347E-18
  0.3201      0.143862E-06      0.547947E+00      0.918868E-10      0.191788E-06      0.321615E-16      0.333638E-08      0.835411E-18
  0.3264      0.152334E-06      0.543547E+00      0.884572E-10      0.197577E-06      0.321538E-16      0.343507E-08      0.851472E-18
  0.3327      0.161201E-06      0.534608E+00      0.852240E-10      0.201760E-06      0.321634E-16      0.353585E-08      0.867538E-18
  0.3390      0.170480E-06      0.524833E+00      0.820629E-10      0.205593E-06      0.321465E-16      0.363854E-08      0.883595E-18
  0.3452      0.180184E-06      0.517554E+00      0.791526E-10      0.210386E-06      0.321755E-16      0.374363E-08      0.899667E-18
  0.3515      0.190329E-06      0.510626E+00      0.762407E-10      0.215341E-06      0.321522E-16      0.385119E-08      0.915727E-18
  0.3578      0.200931E-06      0.504519E+00      0.735214E-10      0.220676E-06      0.321582E-16      0.396142E-08      0.931790E-18
  0.3641      0.212004E-06      0.498729E+00      0.709273E-10      0.226198E-06      0.321690E-16      0.407441E-08      0.947858E-18
  0.3703      0.223567E-06      0.493736E+00      0.683660E-10      0.232144E-06      0.321441E-16      0.419036E-08      0.963914E-18
  0.3766      0.235634E-06      0.488601E+00      0.660230E-10      0.238093E-06      0.321728E-16      0.430929E-08      0.979984E-18
  0.3829      0.248223E-06      0.484368E+00      0.636740E-10      0.244565E-06      0.321500E-16      0.443145E-08      0.996043E-18
  0.3892      0.261351E-06      0.480371E+00      0.615014E-10      0.251256E-06      0.321680E-16      0.455695E-08      0.101211E-17
  0.3954      0.275036E-06      0.477308E+00      0.593465E-10      0.258556E-06      0.321477E-16      0.468610E-08      0.102817E-17
  0.4017      0.289294E-06      0.474242E+00      0.573568E-10      0.265991E-06      0.321700E-16      0.481896E-08      0.104424E-17
  0.4080      0.304145E-06      0.472375E+00      0.554023E-10      0.274259E-06      0.321664E-16      0.495596E-08      0.106031E-17
  0.4143      0.319606E-06      0.470357E+00      0.535026E-10      0.282622E-06      0.321479E-16      0.509713E-08      0.107636E-17
  0.4206      0.335697E-06      0.470016E+00      0.517399E-10      0.292208E-06      0.321666E-16      0.524308E-08      0.109243E-17
  0.4268      0.352435E-06      0.469142E+00      0.499959E-10      0.301703E-06      0.321522E-16      0.539379E-08      0.110849E-17
  0.4331      0.369839E-06      0.471058E+00      0.483656E-10      0.313289E-06      0.321667E-16      0.555027E-08      0.112456E-17
  0.4394      0.387930E-06      0.471591E+00      0.467652E-10      0.324286E-06      0.321577E-16      0.571225E-08      0.114062E-17
  0.4457      0.406726E-06      0.478492E+00      0.452394E-10      0.340115E-06      0.321564E-16      0.588214E-08      0.115668E-17
  0.4519      0.426248E-06      0.481678E+00      0.437959E-10      0.353829E-06      0.321714E-16      0.605888E-08      0.117275E-17
  0.4582      0.446515E-06      0.520082E+00      0.423517E-10      0.394722E-06      0.321433E-16      0.625604E-08      0.118881E-17
  0.4645      0.467546E-06      0.657064E+00      0.410369E-10      0.515119E-06      0.321717E-16      0.651334E-08      0.120488E-17
  0.4708      0.489364E-06      0.593683E+00      0.397208E-10      0.480653E-06      0.321585E-16      0.675343E-08      0.122094E-17
  0.4770      0.511987E-06      0.481648E+00      0.384722E-10      0.402607E-06      0.321587E-16      0.695453E-08      0.123700E-17
  0.4833      0.535436E-06      0.494801E+00      0.372746E-10      0.426927E-06      0.321615E-16      0.716778E-08      0.125307E-17
  0.4896      0.559732E-06      0.507441E+00      0.361177E-10      0.451833E-06      0.321597E-16      0.739347E-08      0.126913E-17
  0.4959      0.584895E-06      0.523783E+00      0.350026E-10      0.481181E-06      0.321557E-16      0.763383E-08      0.128519E-17
  0.5022      0.610947E-06      0.566673E+00      0.339067E-10      0.536973E-06      0.321296E-16      0.790204E-08      0.130124E-17
  0.5084      0.637908E-06      0.653925E+00      0.329164E-10      0.639010E-06      0.321657E-16      0.822123E-08      0.131731E-17
  0.5147      0.665800E-06      0.126028E+01      0.319197E-10      0.126971E-05      0.321585E-16      0.885545E-08      0.133337E-17
  0.5210      0.694642E-06      0.218190E+01      0.308864E-10      0.226582E-05      0.320743E-16      0.998723E-08      0.134939E-17
  0.5273      0.724456E-06      0.198803E+01      0.300125E-10      0.212747E-05      0.321175E-16      0.110499E-07      0.136544E-17
  0.5335      0.755263E-06      0.198296E+01      0.291799E-10      0.218625E-05      0.321714E-16      0.121419E-07      0.138151E-17
  0.5398      0.787084E-06      0.246485E+01      0.282364E-10      0.279911E-05      0.320655E-16      0.135401E-07      0.139752E-17
  0.5461      0.819939E-06      0.298890E+01      0.274505E-10      0.349526E-05      0.321011E-16      0.152860E-07      0.141356E-17
  0.5524      0.853850E-06      0.327242E+01      0.265618E-10      0.393981E-05      0.319789E-16      0.172539E-07      0.142953E-17
  0.5586      0.888836E-06      0.352430E+01      0.258497E-10      0.436729E-05      0.320327E-16      0.194354E-07      0.144553E-17
  0.5649      0.924918E-06      0.372216E+01      0.249835E-10      0.474638E-05      0.318582E-16      0.218062E-07      0.146144E-17
  0.5712      0.962117E-06      0.395953E+01      0.243365E-10      0.519441E-05      0.319266E-16      0.244008E-07      0.147739E-17
  0.5775      0.100045E-05      0.434365E+01      0.234952E-10      0.586099E-05      0.317025E-16      0.273284E-07      0.149323E-17
  0.5838      0.103995E-05      0.476514E+01      0.231706E-10      0.661165E-05      0.321493E-16      0.306309E-07      0.150929E-17
  0.5900      0.108061E-05      0.548127E+01      0.226368E-10      0.781864E-05      0.322897E-16      0.345363E-07      0.152541E-17
  0.5963      0.112248E-05      0.605174E+01      0.218320E-10      0.887242E-05      0.320077E-16      0.389681E-07      0.154140E-17
  0.6026      0.116556E-05      0.730193E+01      0.213515E-10      0.110004E-04      0.321661E-16      0.444628E-07      0.155747E-17
  0.6089      0.120987E-05      0.827243E+01      0.204970E-10      0.128029E-04      0.317222E-16      0.508578E-07      0.157331E-17
  0.6151      0.125544E-05      0.114995E+02      0.200877E-10      0.182791E-04      0.319306E-16      0.599882E-07      0.158926E-17
  0.6214      0.130227E-05      0.148821E+02      0.189900E-10      0.242906E-04      0.309955E-16      0.721214E-07      0.160475E-17
  0.6277      0.135040E-05      0.388293E+02      0.181034E-10      0.650622E-04      0.303339E-16      0.104620E-06      0.161990E-17
  0.6340      0.139983E-05      0.654636E+02      0.144846E-10      0.112580E-03      0.249095E-16      0.160854E-06      0.163234E-17
  0.6402      0.145058E-05      0.453069E+02      0.162551E-10      0.799490E-04      0.286839E-16      0.200788E-06      0.164667E-17
  0.6465      0.150267E-05      0.148035E+02      0.174176E-10      0.267978E-04      0.315300E-16      0.214174E-06      0.166242E-17
  0.6528      0.155612E-05      0.639573E+01      0.169487E-10      0.118743E-04      0.314669E-16      0.220105E-06      0.167814E-17
  0.6591      0.161094E-05      0.605639E+01      0.166738E-10      0.115295E-04      0.317417E-16      0.225864E-06      0.169399E-17
  0.6654      0.166714E-05      0.639915E+01      0.160117E-10      0.124881E-04      0.312470E-16      0.232102E-06      0.170960E-17
  0.6716      0.172474E-05      0.764747E+01      0.161188E-10      0.152955E-04      0.322389E-16      0.239742E-06      0.172570E-17
  0.6779      0.178376E-05      0.862291E+01      0.154134E-10      0.176715E-04      0.315876E-16      0.248569E-06      0.174148E-17
  0.6842      0.184420E-05      0.156270E+02      0.151447E-10      0.328068E-04      0.317942E-16      0.264956E-06      0.175736E-17
  0.6905      0.190608E-05      0.313212E+02      0.152192E-10      0.673431E-04      0.327226E-16      0.298594E-06      0.177371E-17
  0.6967      0.196941E-05      0.337945E+02      0.136802E-10      0.743986E-04      0.301171E-16      0.335756E-06      0.178875E-17
  0.7030      0.203420E-05      0.247533E+02      0.141140E-10      0.557848E-04      0.318078E-16      0.363620E-06      0.180464E-17
  0.7093      0.210046E-05      0.250773E+02      0.128786E-10      0.578394E-04      0.297038E-16      0.392511E-06      0.181947E-17
  0.7156      0.216821E-05      0.351619E+02      0.128666E-10      0.829802E-04      0.303644E-16      0.433960E-06      0.183464E-17
  0.7218      0.223744E-05      0.455584E+02      0.106663E-10      0.109984E-03      0.257498E-16      0.488897E-06      0.184750E-17
  0.7281      0.230817E-05      0.463352E+02      0.112939E-10      0.114401E-03      0.278843E-16      0.546040E-06      0.186143E-17
  0.7344      0.238041E-05      0.429360E+02      0.956118E-11      0.108391E-03      0.241371E-16      0.600181E-06      0.187349E-17
  0.7407      0.245416E-05      0.427449E+02      0.102065E-10      0.110309E-03      0.263393E-16      0.655281E-06      0.188664E-17
  0.7470      0.252942E-05      0.430287E+02      0.108141E-10      0.113485E-03      0.285213E-16      0.711967E-06      0.190089E-17
  0.7532      0.260620E-05      0.460247E+02      0.880085E-11      0.124029E-03      0.237169E-16      0.773920E-06      0.191274E-17
  0.7595      0.268451E-05      0.471250E+02      0.121427E-10      0.129729E-03      0.334273E-16      0.838719E-06      0.192943E-17
  0.7658      0.276434E-05      0.407578E+02      0.103518E-10      0.114591E-03      0.291041E-16      0.895958E-06      0.194397E-17
  0.7721      0.284570E-05      0.394689E+02      0.109715E-10      0.113304E-03      0.314961E-16      0.952553E-06      0.195970E-17
  0.7783      0.292859E-05      0.443060E+02      0.908739E-11      0.129839E-03      0.266307E-16      0.101741E-05      0.197301E-17
  0.7846      0.301301E-05      0.449286E+02      0.979216E-11      0.134375E-03      0.292870E-16      0.108453E-05      0.198764E-17
  0.7909      0.309895E-05      0.456322E+02      0.790479E-11      0.139258E-03      0.241235E-16      0.115409E-05      0.199968E-17
  0.7972      0.318641E-05      0.459421E+02      0.863036E-11      0.143026E-03      0.268679E-16      0.122553E-05      0.201311E-17
  0.8034      0.327539E-05      0.461864E+02      0.938825E-11      0.146647E-03      0.298088E-16      0.129878E-05      0.202800E-17
  0.8097      0.336589E-05      0.462015E+02      0.750977E-11      0.149580E-03      0.243132E-16      0.137350E-05      0.204014E-17
  0.8160      0.345789E-05      0.458994E+02      0.828848E-11      0.151489E-03      0.273558E-16      0.144916E-05      0.205380E-17
  0.8223      0.355139E-05      0.454701E+02      0.645631E-11      0.152954E-03      0.217179E-16      0.152556E-05      0.206465E-17
  0.8286      0.364638E-05      0.446752E+02      0.727319E-11      0.153130E-03      0.249299E-16      0.160205E-05      0.207710E-17
  0.8348      0.374286E-05      0.439044E+02      0.557141E-11      0.153309E-03      0.194547E-16      0.167863E-05      0.208682E-17
  0.8411      0.384081E-05      0.428044E+02      0.638279E-11      0.152234E-03      0.227005E-16      0.175467E-05      0.209816E-17
  0.8474      0.394021E-05      0.418149E+02      0.479002E-11      0.151434E-03      0.173472E-16      0.183031E-05      0.210683E-17
  0.8537      0.404107E-05      0.405262E+02      0.788284E-11      0.149417E-03      0.290634E-16      0.190495E-05      0.212134E-17
  0.8599      0.414335E-05      0.393745E+02      0.857360E-11      0.147759E-03      0.321737E-16      0.197875E-05      0.213741E-17
  0.8662      0.424705E-05      0.379586E+02      0.703233E-11      0.144952E-03      0.268543E-16      0.205116E-05      0.215083E-17
  0.8725      0.435215E-05      0.366952E+02      0.771457E-11      0.142562E-03      0.299714E-16      0.212237E-05      0.216580E-17
  0.8788      0.445862E-05      0.352161E+02      0.633443E-11      0.139162E-03      0.250315E-16      0.219188E-05      0.217830E-17
  0.8850      0.456646E-05      0.339077E+02      0.697772E-11      0.136259E-03      0.280402E-16      0.225994E-05      0.219231E-17
  0.8913      0.467564E-05      0.324172E+02      0.573198E-11      0.132445E-03      0.234188E-16      0.232610E-05      0.220401E-17
  0.8976      0.478613E-05      0.311105E+02      0.632276E-11      0.129200E-03      0.262580E-16      0.239063E-05      0.221712E-17
  0.9039      0.489792E-05      0.295919E+02      0.687994E-11      0.124890E-03      0.290363E-16      0.245301E-05      0.223162E-17
  0.9102      0.501098E-05      0.282541E+02      0.576163E-11      0.121155E-03      0.247063E-16      0.251353E-05      0.224397E-17
  0.9164      0.512529E-05      0.264865E+02      0.631136E-11      0.115371E-03      0.274913E-16      0.257116E-05      0.225770E-17
