 
 # Omega; pulse ft; proj flux t=    500.250000000000     
    0.000000000000         0.23733438E-09      0.00000000E+00      0.00000000E+00      0.16985621E-08      0.20434670E-19      0.84843261E-12      0.10207128E-22
    0.006276908399         0.26847166E-09      0.45552545E-01      0.61505365E-12      0.15174621E-08      0.20488879E-19      0.16064057E-11      0.20441333E-22
    0.012553816798         0.36198451E-09      0.58545000E-01      0.91208589E-12      0.13147905E-08      0.20483420E-19      0.22631442E-11      0.30672812E-22
    0.018830725196         0.51817601E-09      0.60054616E-01      0.96112495E-12      0.12870908E-08      0.20598835E-19      0.29060467E-11      0.40961940E-22
    0.025107633595         0.73755180E-09      0.56291626E-01      0.89330752E-12      0.12879028E-08      0.20438088E-19      0.35493547E-11      0.51170775E-22
    0.031384541994         0.10208207E-08      0.51152447E-01      0.80124561E-12      0.12958437E-08      0.20297936E-19      0.41966293E-11      0.61309605E-22
    0.037661450393         0.13688958E-08      0.46151734E-01      0.72594703E-12      0.13065135E-08      0.20550898E-19      0.48492335E-11      0.71574789E-22
    0.043938358791         0.17828953E-08      0.41714176E-01      0.65003690E-12      0.13183121E-08      0.20543412E-19      0.55077310E-11      0.81836233E-22
    0.050215267190         0.22641447E-08      0.37969143E-01      0.58375970E-12      0.13333732E-08      0.20500056E-19      0.61737516E-11      0.92076021E-22
    0.056492175589         0.28141777E-08      0.34761558E-01      0.52523936E-12      0.13486989E-08      0.20378538E-19      0.68474274E-11      0.10225511E-21
    0.062769083988         0.34347388E-08      0.32003532E-01      0.48115108E-12      0.13639498E-08      0.20506046E-19      0.75287210E-11      0.11249789E-21
    0.069045992387         0.41277855E-08      0.29630849E-01      0.44027983E-12      0.13796702E-08      0.20500289E-19      0.82178669E-11      0.12273780E-21
    0.075322900785         0.48954902E-08      0.27585079E-01      0.40017503E-12      0.13963552E-08      0.20256839E-19      0.89153470E-11      0.13285610E-21
    0.081599809184         0.57402438E-08      0.25796683E-01      0.37650105E-12      0.14133756E-08      0.20628133E-19      0.96213289E-11      0.14315986E-21
    0.087876717583         0.66646579E-08      0.24222849E-01      0.34387103E-12      0.14308094E-08      0.20311976E-19      0.10336019E-10      0.15330570E-21
    0.094153625982         0.76715684E-08      0.22828727E-01      0.32221386E-12      0.14487096E-08      0.20447672E-19      0.11059650E-10      0.16351932E-21
    0.100430534380         0.87640384E-08      0.21583932E-01      0.30091585E-12      0.14669713E-08      0.20452015E-19      0.11792403E-10      0.17373512E-21
    0.106707442779         0.99453622E-08      0.20467379E-01      0.28226122E-12      0.14857326E-08      0.20489419E-19      0.12534527E-10      0.18396959E-21
    0.112984351178         0.11219069E-07      0.19459386E-01      0.26417565E-12      0.15049434E-08      0.20430728E-19      0.13286247E-10      0.19417475E-21
    0.119261259577         0.12588925E-07      0.18545217E-01      0.24526069E-12      0.15246625E-08      0.20163678E-19      0.14047817E-10      0.20424652E-21
    0.125538167976         0.14058942E-07      0.17711682E-01      0.23437394E-12      0.15448602E-08      0.20442722E-19      0.14819475E-10      0.21445767E-21
    0.131815076374         0.15633376E-07      0.16948496E-01      0.22207029E-12      0.15655660E-08      0.20513071E-19      0.15601476E-10      0.22470396E-21
    0.138091984773         0.17316734E-07      0.16248149E-01      0.20971060E-12      0.15869160E-08      0.20481910E-19      0.16394142E-10      0.23493468E-21
    0.144368893172         0.19113780E-07      0.15601761E-01      0.19952937E-12      0.16087892E-08      0.20574644E-19      0.17197733E-10      0.24521173E-21
    0.150645801571         0.21029537E-07      0.15004029E-01      0.18678885E-12      0.16312973E-08      0.20308421E-19      0.18012566E-10      0.25535579E-21
    0.156922709970         0.23069292E-07      0.14449036E-01      0.17925915E-12      0.16543976E-08      0.20524962E-19      0.18838939E-10      0.26560802E-21
    0.163199618368         0.25238602E-07      0.13932296E-01      0.16760743E-12      0.16781137E-08      0.20187937E-19      0.19677158E-10      0.27569191E-21
    0.169476526767         0.27543295E-07      0.13450125E-01      0.16243568E-12      0.17024925E-08      0.20560815E-19      0.20527553E-10      0.28596204E-21
    0.175753435166         0.29989481E-07      0.12998958E-01      0.15229984E-12      0.17275324E-08      0.20240308E-19      0.21390457E-10      0.29607209E-21
    0.182030343565         0.32583550E-07      0.12576065E-01      0.14646580E-12      0.17532826E-08      0.20419419E-19      0.22266222E-10      0.30627160E-21
    0.188307251963         0.35332181E-07      0.12179269E-01      0.13809096E-12      0.17798244E-08      0.20180002E-19      0.23155245E-10      0.31635152E-21
    0.194584160362         0.38242343E-07      0.11805937E-01      0.13154921E-12      0.18071326E-08      0.20136213E-19      0.24057909E-10      0.32640957E-21
    0.200861068761         0.41321305E-07      0.11454458E-01      0.12693768E-12      0.18352927E-08      0.20338614E-19      0.24974639E-10      0.33656871E-21
    0.207137977160         0.44576634E-07      0.11123125E-01      0.12001573E-12      0.18643477E-08      0.20115843E-19      0.25905881E-10      0.34661659E-21
    0.213414885559         0.48016203E-07      0.10809043E-01      0.11569917E-12      0.18941000E-08      0.20274300E-19      0.26851985E-10      0.35674361E-21
    0.219691793957         0.51648196E-07      0.10512653E-01      0.11215121E-12      0.19248912E-08      0.20535146E-19      0.27813469E-10      0.36700093E-21
    0.225968702356         0.55481108E-07      0.10231164E-01      0.10799097E-12      0.19564754E-08      0.20650797E-19      0.28790730E-10      0.37731601E-21
    0.232245610755         0.59523755E-07      0.99648931E-02      0.10310336E-12      0.19891521E-08      0.20581081E-19      0.29784312E-10      0.38759627E-21
    0.238522519154         0.63785271E-07      0.97128286E-02      0.98309028E-13      0.20229693E-08      0.20475615E-19      0.30794786E-10      0.39782385E-21
    0.244799427552         0.68275117E-07      0.94741027E-02      0.95015052E-13      0.20579873E-08      0.20639397E-19      0.31822752E-10      0.40813324E-21
    0.251076335951         0.73003082E-07      0.92465331E-02      0.89734864E-13      0.20939528E-08      0.20321191E-19      0.32868682E-10      0.41828368E-21
    0.257353244350         0.77979284E-07      0.90312922E-02      0.87857734E-13      0.21313365E-08      0.20733954E-19      0.33933286E-10      0.42864030E-21
    0.263630152749         0.83214178E-07      0.88259414E-02      0.83003003E-13      0.21697806E-08      0.20405563E-19      0.35017093E-10      0.43883289E-21
    0.269907061148         0.88718553E-07      0.86319479E-02      0.80167316E-13      0.22098437E-08      0.20523437E-19      0.36120911E-10      0.44908436E-21
    0.276183969546         0.94503538E-07      0.84461648E-02      0.76581429E-13      0.22509284E-08      0.20409182E-19      0.37245250E-10      0.45927876E-21
    0.282460877945         0.10058060E-06      0.82712224E-02      0.73302459E-13      0.22939195E-08      0.20329515E-19      0.38391064E-10      0.46943336E-21
    0.288737786344         0.10696156E-06      0.81026076E-02      0.70456597E-13      0.23377682E-08      0.20328170E-19      0.39558781E-10      0.47958729E-21
    0.295014694743         0.11365856E-06      0.79447540E-02      0.67889567E-13      0.23839189E-08      0.20371080E-19      0.40749549E-10      0.48976266E-21
    0.301291603141         0.12068410E-06      0.77897552E-02      0.66163991E-13      0.24301852E-08      0.20641310E-19      0.41963428E-10      0.50007300E-21
    0.307568511540         0.12805103E-06      0.76462489E-02      0.63049001E-13      0.24793747E-08      0.20444286E-19      0.43201877E-10      0.51028493E-21
    0.313845419939         0.13577253E-06      0.74921591E-02      0.60684252E-13      0.25243853E-08      0.20446767E-19      0.44462809E-10      0.52049810E-21
    0.320122328338         0.14386214E-06      0.73557183E-02      0.58431936E-13      0.25745905E-08      0.20451886E-19      0.45748818E-10      0.53071383E-21
    0.326399236737         0.15233372E-06      0.73545405E-02      0.56227164E-13      0.26733449E-08      0.20438340E-19      0.47084155E-10      0.54092279E-21
    0.332676145135         0.16120149E-06      0.72771551E-02      0.54366164E-13      0.27463860E-08      0.20517698E-19      0.48455976E-10      0.55117139E-21
    0.338953053534         0.17048002E-06      0.71209369E-02      0.51596947E-13      0.27894822E-08      0.20212055E-19      0.49849324E-10      0.56126732E-21
    0.345229961933         0.18018417E-06      0.70173207E-02      0.50563559E-13      0.28525419E-08      0.20554094E-19      0.51274170E-10      0.57153410E-21
    0.351506870332         0.19032920E-06      0.69221450E-02      0.48059579E-13      0.29192066E-08      0.20267683E-19      0.52732315E-10      0.58165782E-21
    0.357783778731         0.20093064E-06      0.68404017E-02      0.47020209E-13      0.29919867E-08      0.20566605E-19      0.54226814E-10      0.59193085E-21
    0.364060687129         0.21200438E-06      0.67649113E-02      0.44818471E-13      0.30682143E-08      0.20327343E-19      0.55759389E-10      0.60208437E-21
    0.370337595528         0.22356662E-06      0.67016778E-02      0.43181894E-13      0.31509771E-08      0.20303148E-19      0.57333303E-10      0.61222580E-21
    0.376614503927         0.23563389E-06      0.66353662E-02      0.41964699E-13      0.32333904E-08      0.20449249E-19      0.58948383E-10      0.62244021E-21
    0.382891412326         0.24822301E-06      0.65830163E-02      0.40107135E-13      0.33238689E-08      0.20250726E-19      0.60608658E-10      0.63255546E-21
    0.389168320724         0.26135112E-06      0.65361723E-02      0.39176567E-13      0.34187152E-08      0.20491125E-19      0.62316308E-10      0.64279078E-21
    0.395445229123         0.27503566E-06      0.65032757E-02      0.37072264E-13      0.35227949E-08      0.20081877E-19      0.64075945E-10      0.65282169E-21
    0.401722137522         0.28929433E-06      0.64720385E-02      0.36750401E-13      0.36300098E-08      0.20612410E-19      0.65889137E-10      0.66311760E-21
    0.407999045921         0.30414516E-06      0.64595812E-02      0.34872414E-13      0.37504093E-08      0.20246796E-19      0.67762468E-10      0.67323089E-21
    0.414275954320         0.31960641E-06      0.64466066E-02      0.33687199E-13      0.38735526E-08      0.20241523E-19      0.69697310E-10      0.68334154E-21
    0.420552862718         0.33569662E-06      0.64619003E-02      0.32692375E-13      0.40173453E-08      0.20324758E-19      0.71703976E-10      0.69349376E-21
    0.426829771117         0.35243458E-06      0.64696967E-02      0.31366874E-13      0.41606413E-08      0.20171937E-19      0.73782218E-10      0.70356966E-21
    0.433106679516         0.36983933E-06      0.65295048E-02      0.30894967E-13      0.43426118E-08      0.20547477E-19      0.75951355E-10      0.71383313E-21
    0.439383587915         0.38793013E-06      0.65642850E-02      0.29480956E-13      0.45138763E-08      0.20272336E-19      0.78206038E-10      0.72395917E-21
    0.445660496313         0.40672647E-06      0.67315920E-02      0.28859742E-13      0.47848532E-08      0.20513666E-19      0.80596075E-10      0.73420576E-21
    0.451937404712         0.42624802E-06      0.68225317E-02      0.27658988E-13      0.50116668E-08      0.20317624E-19      0.83099405E-10      0.74435442E-21
    0.458214313111         0.44651466E-06      0.77193591E-02      0.26886922E-13      0.58586946E-08      0.20406132E-19      0.86025826E-10      0.75454730E-21
    0.464491221510         0.46754647E-06      0.11120086E-01      0.26095676E-13      0.87178215E-08      0.20458244E-19      0.90380382E-10      0.76476620E-21
    0.470768129909         0.48936365E-06      0.96584790E-02      0.24904690E-13      0.78196250E-08      0.20163148E-19      0.94286289E-10      0.77483770E-21
    0.477045038307         0.51198657E-06      0.68993041E-02      0.24763367E-13      0.57670938E-08      0.20699574E-19      0.97166955E-10      0.78517715E-21
    0.483321946706         0.53543573E-06      0.71658250E-02      0.23617502E-13      0.61828622E-08      0.20377801E-19      0.10025530E-09      0.79535587E-21
    0.489598855105         0.55973174E-06      0.74700015E-02      0.23007219E-13      0.66513955E-08      0.20485955E-19      0.10357767E-09      0.80558862E-21
    0.495875763504         0.58489532E-06      0.78202969E-02      0.21853513E-13      0.71842436E-08      0.20076087E-19      0.10716621E-09      0.81561663E-21
    0.502152671902         0.61094726E-06      0.88631213E-02      0.21265906E-13      0.83986054E-08      0.20151360E-19      0.11136131E-09      0.82568225E-21
    0.508429580301         0.63790841E-06      0.10932707E-01      0.20927698E-13      0.10683357E-07      0.20450386E-19      0.11669766E-09      0.83589722E-21
    0.514706488700         0.66579967E-06      0.25774441E-01      0.20075229E-13      0.25967236E-07      0.20225393E-19      0.12966830E-09      0.84599982E-21
    0.520983397099         0.69464194E-06      0.48295116E-01      0.18032201E-13      0.50152532E-07      0.18725715E-19      0.15471952E-09      0.85535332E-21
    0.527260305498         0.72445614E-06      0.43549641E-01      0.18385786E-13      0.46604102E-07      0.19675318E-19      0.17799829E-09      0.86518115E-21
    0.533537213896         0.75526319E-06      0.43290391E-01      0.18713089E-13      0.47728485E-07      0.20631539E-19      0.20183869E-09      0.87548662E-21
    0.539814122295         0.78708392E-06      0.55069104E-01      0.16042321E-13      0.62537044E-07      0.18217826E-19      0.23307598E-09      0.88458643E-21
    0.546091030694         0.81993914E-06      0.67776500E-01      0.16602800E-13      0.79258938E-07      0.19415583E-19      0.27266586E-09      0.89428452E-21
    0.552367939093         0.85384956E-06      0.74738674E-01      0.13576313E-13      0.89981003E-07      0.16345089E-19      0.31761141E-09      0.90244890E-21
    0.558644847491         0.88883579E-06      0.80713469E-01      0.14113971E-13      0.10001941E-06      0.17489907E-19      0.36757116E-09      0.91118512E-21
    0.564921755890         0.92491828E-06      0.85607270E-01      0.10726628E-13      0.10916370E-06      0.13678259E-19      0.42209848E-09      0.91801742E-21
    0.571198664289         0.96211735E-06      0.91188084E-01      0.11621961E-13      0.11962763E-06      0.15246593E-19      0.48185254E-09      0.92563310E-21
    0.577475572688         0.10004531E-05      0.10073836E+00      0.72681329E-14      0.13592850E-06      0.98070533E-20      0.54974890E-09      0.93053173E-21
    0.583752481087         0.10399456E-05      0.11074496E+00      0.14575024E-13      0.15365913E-06      0.20222912E-19      0.62650171E-09      0.94063308E-21
    0.590029389485         0.10806144E-05      0.12864939E+00      0.16682471E-13      0.18350901E-06      0.23796332E-19      0.71816455E-09      0.95251936E-21
    0.596306297884         0.11224790E-05      0.14219956E+00      0.11554973E-13      0.20847771E-06      0.16940659E-19      0.82229927E-09      0.96098123E-21
    0.602583206283         0.11655585E-05      0.17373412E+00      0.13740023E-13      0.26173073E-06      0.20699368E-19      0.95303390E-09      0.97132057E-21
    0.608860114682         0.12098719E-05      0.19692491E+00      0.67471897E-14      0.30477200E-06      0.10442328E-19      0.11052677E-08      0.97653652E-21
    0.615137023081         0.12554376E-05      0.27879392E+00      0.92253802E-14      0.44315853E-06      0.14664258E-19      0.13266256E-08      0.98386133E-21
    0.621413931479         0.13022739E-05      0.36093893E+00     -0.50111215E-14      0.58912519E-06     -0.81791619E-20      0.16208939E-08      0.97977583E-21
    0.627690839878         0.13503983E-05      0.96417783E+00     -0.14881016E-13      0.16155700E-05     -0.24934532E-19      0.24278719E-08      0.96732102E-21
    0.633967748277         0.13998285E-05      0.16519964E+01     -0.94628942E-13      0.28409873E-05     -0.16273620E-18      0.38469465E-08      0.88603420E-21
    0.640244656676         0.14505812E-05      0.11094874E+01     -0.36840887E-13      0.19578119E-05     -0.65009779E-19      0.48248746E-08      0.85356179E-21
    0.646521565074         0.15026729E-05      0.32673376E+00      0.34654904E-14      0.59146353E-06      0.62733378E-20      0.51203109E-08      0.85669532E-21
    0.652798473473         0.15561195E-05      0.12982520E+00      0.35143976E-14      0.24103237E-06      0.65248007E-20      0.52407067E-08      0.85995446E-21
    0.659075381872         0.16109365E-05      0.11696614E+00      0.63612951E-14      0.22266709E-06      0.12109924E-19      0.53519290E-08      0.86600338E-21
    0.665352290271         0.16671388E-05      0.12328957E+00      0.14920053E-14      0.24060187E-06      0.29116758E-20      0.54721097E-08      0.86745776E-21
    0.671629198670         0.17247407E-05      0.14193610E+00      0.10799253E-13      0.28388316E-06      0.21599340E-19      0.56139095E-08      0.87824664E-21
    0.677906107068         0.17837558E-05      0.15032679E+00      0.50760337E-14      0.30807379E-06      0.10402623E-19      0.57677925E-08      0.88344276E-21
    0.684183015467         0.18441971E-05      0.24626906E+00      0.69977064E-14      0.51700821E-06      0.14690728E-19      0.60260384E-08      0.89078078E-21
    0.690459923866         0.19060772E-05      0.41964684E+00      0.13074356E-13      0.90227413E-06      0.28110906E-19      0.64767248E-08      0.90482219E-21
    0.696736832265         0.19694076E-05      0.29828643E+00      0.12384206E-14      0.65667863E-06      0.27263873E-20      0.68047361E-08      0.90618403E-21
    0.703013740663         0.20341994E-05      0.13382507E+00      0.82276576E-14      0.30159194E-06      0.18542081E-19      0.69553814E-08      0.91544580E-21
    0.709290649062         0.21004628E-05      0.14114331E+00      0.29494439E-14      0.32553944E-06      0.68027334E-20      0.71179885E-08      0.91884377E-21
    0.715567557461         0.21682073E-05      0.16071241E+00      0.51819068E-14      0.37927317E-06      0.12229038E-19      0.73074357E-08      0.92495218E-21
    0.721844465860         0.22374415E-05      0.16623790E+00     -0.11841684E-14      0.40131985E-06     -0.28587362E-20      0.75078951E-08      0.92352424E-21
    0.728121374259         0.23081733E-05      0.15452695E+00      0.26480739E-14      0.38152360E-06      0.65380356E-20      0.76984664E-08      0.92679000E-21
    0.734398282657         0.23804097E-05      0.14650094E+00     -0.27156731E-14      0.36983925E-06     -0.68556729E-20      0.78832012E-08      0.92336558E-21
    0.740675191056         0.24541568E-05      0.14927746E+00      0.12308483E-15      0.38523106E-06      0.31763736E-21      0.80756243E-08      0.92352424E-21
    0.746952099455         0.25294198E-05      0.15383913E+00      0.28001018E-14      0.40573973E-06      0.73850685E-20      0.82782915E-08      0.92721309E-21
    0.753229007854         0.26062031E-05      0.16149674E+00     -0.33690751E-14      0.43520865E-06     -0.90791344E-20      0.84956785E-08      0.92267806E-21
    0.759505916252         0.26845099E-05      0.15481503E+00      0.89422515E-14      0.42618634E-06      0.24616895E-19      0.87085588E-08      0.93497421E-21
    0.765782824651         0.27643427E-05      0.14968884E+00      0.32104499E-14      0.42085087E-06      0.90261948E-20      0.89187740E-08      0.93948280E-21
