 
 # Omega; pulse ft; proj flux t=    2000.05000000000     
    0.000000000000         0.15753149E-11      0.00000000E+00      0.00000000E+00      0.00000000E+00      0.00000000E+00      0.00000000E+00      0.00000000E+00
    0.001570600002         0.18069754E-11      0.10154798E-02     -0.55836378E-12      0.72410346E-13     -0.39814986E-22      0.11372769E-15     -0.62533416E-25
    0.003141200004         0.25019713E-11      0.23494021E-02     -0.58103864E-12      0.11598098E-12     -0.28683651E-22      0.29588742E-15     -0.10758396E-24
    0.004711800005         0.36603453E-11      0.12229206E-02     -0.14880807E-10      0.58881128E-13     -0.71648050E-21      0.38836612E-15     -0.12328882E-23
    0.006282400007         0.52821684E-11      0.64873152E-03     -0.38751293E-10      0.33806042E-13     -0.20193683E-20      0.44146189E-15     -0.44045080E-23
    0.007853000009         0.73675403E-11      0.15037854E-03     -0.13270992E-10      0.87441069E-14     -0.77167246E-21      0.45519538E-15     -0.56164968E-23
    0.009423600011         0.99165891E-11     -0.37627743E-03     -0.53911193E-11     -0.24541230E-13     -0.35161476E-21      0.41665093E-15     -0.61687429E-23
    0.010994200013         0.12929471E-10     -0.79276313E-03     -0.85171558E-11     -0.57783421E-13     -0.62080385E-21      0.32589628E-15     -0.71437775E-23
    0.012564800014         0.16406372E-10     -0.92085488E-03     -0.24987372E-11     -0.74523088E-13     -0.20221819E-21      0.20885032E-15     -0.74613814E-23
    0.014135400016         0.20347504E-10     -0.10224423E-02     -0.30902650E-11     -0.91218834E-13     -0.27570297E-21      0.65582023E-16     -0.78944005E-23
    0.015706000018         0.24753111E-10     -0.92965510E-03     -0.31465850E-11     -0.90808965E-13     -0.30735928E-21     -0.77042538E-16     -0.83771389E-23
    0.017276600020         0.29623462E-10     -0.85047589E-03     -0.14414146E-11     -0.90382054E-13     -0.15318249E-21     -0.21899659E-15     -0.86177274E-23
    0.018847200022         0.34958856E-10     -0.74276848E-03     -0.21564088E-11     -0.85389901E-13     -0.24790434E-21     -0.35310997E-15     -0.90070859E-23
    0.020417800023         0.40759620E-10     -0.64971287E-03     -0.60102621E-11     -0.80386909E-13     -0.74363063E-21     -0.47936565E-15     -0.10175032E-22
    0.021988400025         0.47026112E-10     -0.54481907E-03     -0.26850048E-11     -0.72217163E-13     -0.35590426E-21     -0.59278993E-15     -0.10734015E-22
    0.023559000027         0.53758715E-10     -0.45289869E-03     -0.28497035E-11     -0.64052452E-13     -0.40302722E-21     -0.69339071E-15     -0.11367010E-22
    0.025129600029         0.60957842E-10     -0.38219019E-03     -0.12642777E-11     -0.57460078E-13     -0.19007682E-21     -0.78363751E-15     -0.11665545E-22
    0.026700200031         0.68623934E-10     -0.31935584E-03     -0.23661716E-11     -0.50871980E-13     -0.37692073E-21     -0.86353704E-15     -0.12257536E-22
    0.028270800032         0.76757463E-10     -0.27600066E-03     -0.25856749E-11     -0.46444610E-13     -0.43511004E-21     -0.93648294E-15     -0.12940920E-22
    0.029841400034         0.85358926E-10     -0.23701194E-03     -0.22738759E-11     -0.42018703E-13     -0.40312449E-21     -0.10024775E-14     -0.13574067E-22
    0.031412000036         0.94428851E-10     -0.21102201E-03     -0.21842927E-11     -0.39316924E-13     -0.40697022E-21     -0.10642287E-14     -0.14213255E-22
    0.032982600038         0.10396779E-09     -0.18741656E-03     -0.20399019E-11     -0.36615468E-13     -0.39853447E-21     -0.11217369E-14     -0.14839193E-22
    0.034553200039         0.11397634E-09     -0.17204336E-03     -0.26352824E-11     -0.35172805E-13     -0.53876114E-21     -0.11769793E-14     -0.15685371E-22
    0.036123800041         0.12445510E-09     -0.15795277E-03     -0.24918605E-11     -0.33727891E-13     -0.53209070E-21     -0.12299524E-14     -0.16521073E-22
    0.037694400043         0.13540471E-09     -0.14650007E-03     -0.20432181E-11     -0.32616507E-13     -0.45489833E-21     -0.12811799E-14     -0.17235536E-22
    0.039265000045         0.14682586E-09     -0.13595105E-03     -0.25054590E-11     -0.31508099E-13     -0.58066671E-21     -0.13306665E-14     -0.18147531E-22
    0.040835600047         0.15871923E-09     -0.13171839E-03     -0.19491856E-11     -0.31730703E-13     -0.46955501E-21     -0.13805027E-14     -0.18885015E-22
    0.042406200048         0.17108555E-09     -0.12778278E-03     -0.12876060E-11     -0.31952068E-13     -0.32196573E-21     -0.14306866E-14     -0.19390694E-22
    0.043976800050         0.18392558E-09     -0.13085087E-03     -0.16014932E-11     -0.33918591E-13     -0.41513207E-21     -0.14839592E-14     -0.20042700E-22
    0.045547400052         0.19724011E-09     -0.13367394E-03     -0.14079979E-11     -0.35877409E-13     -0.37789951E-21     -0.15403082E-14     -0.20636229E-22
    0.047118000054         0.21102995E-09     -0.14272588E-03     -0.11052671E-11     -0.39618921E-13     -0.30680834E-21     -0.16025337E-14     -0.21118103E-22
    0.048688600056         0.22529594E-09     -0.15113492E-03     -0.14237500E-11     -0.43344457E-13     -0.40832174E-21     -0.16706105E-14     -0.21759413E-22
    0.050259200057         0.24003895E-09     -0.16797743E-03     -0.10929716E-11     -0.49723278E-13     -0.32353233E-21     -0.17487059E-14     -0.22267553E-22
    0.051829800059         0.25525989E-09     -0.18365918E-03     -0.93179437E-12     -0.56060678E-13     -0.28442371E-21     -0.18367548E-14     -0.22714268E-22
    0.053400400061         0.27095967E-09     -0.21924412E-03     -0.96107255E-12     -0.68949447E-13     -0.30224491E-21     -0.19450468E-14     -0.23188974E-22
    0.054971000063         0.28713927E-09     -0.25205126E-03     -0.70448540E-12     -0.81600063E-13     -0.22807287E-21     -0.20732079E-14     -0.23547186E-22
    0.056541600065         0.30379966E-09     -0.16698920E-03     -0.10889498E-11     -0.55609662E-13     -0.36263500E-21     -0.21605484E-14     -0.24116740E-22
    0.058112200066         0.32094187E-09     -0.86665685E-04     -0.10670750E-11     -0.29665311E-13     -0.36525544E-21     -0.22071407E-14     -0.24690410E-22
    0.059682800068         0.33856693E-09      0.11253586E-03     -0.11414697E-11      0.39566622E-13     -0.40133072E-21     -0.21449974E-14     -0.25320740E-22
    0.061253400070         0.35667593E-09      0.29939108E-03     -0.81984602E-12      0.10805009E-12     -0.29588201E-21     -0.19752939E-14     -0.25785453E-22
    0.062824000072         0.37526995E-09      0.21551017E-03     -0.10036486E-11      0.79786361E-13     -0.37157163E-21     -0.18499815E-14     -0.26369043E-22
    0.064394600074         0.39435014E-09      0.13695159E-03     -0.98314210E-12      0.51980723E-13     -0.37315694E-21     -0.17683405E-14     -0.26955123E-22
    0.065965200075         0.41391766E-09      0.11046921E-03     -0.73311498E-12      0.42961852E-13     -0.28511091E-21     -0.17008647E-14     -0.27402918E-22
    0.067535800077         0.43397368E-09      0.85300432E-04     -0.77759118E-12      0.33972167E-13     -0.30968727E-21     -0.16475080E-14     -0.27889313E-22
    0.069106400079         0.45451945E-09      0.71771326E-04     -0.41450183E-12      0.29256869E-13     -0.16896756E-21     -0.16015571E-14     -0.28154694E-22
    0.070677000081         0.47555619E-09      0.58903695E-04     -0.96865932E-12      0.24564557E-13     -0.40395917E-21     -0.15629760E-14     -0.28789152E-22
    0.072247600083         0.49708519E-09      0.56370511E-04     -0.77712798E-12      0.24038206E-13     -0.33139245E-21     -0.15252216E-14     -0.29309637E-22
    0.073818200084         0.51910775E-09      0.53909374E-04     -0.90552541E-12      0.23496384E-13     -0.39467296E-21     -0.14883182E-14     -0.29929510E-22
    0.075388800086         0.54162521E-09      0.50152792E-04     -0.93583722E-12      0.22332114E-13     -0.41671106E-21     -0.14532434E-14     -0.30583997E-22
    0.076959400088         0.56463893E-09      0.46507490E-04     -0.83768962E-12      0.21148264E-13     -0.38092103E-21     -0.14200279E-14     -0.31182271E-22
    0.078530000090         0.58815031E-09      0.43771545E-04     -0.10229430E-11      0.20318296E-13     -0.47483952E-21     -0.13881160E-14     -0.31928054E-22
    0.080100600092         0.61216077E-09      0.41205722E-04     -0.88613801E-12      0.19517758E-13     -0.41973363E-21     -0.13574614E-14     -0.32587288E-22
    0.081671200093         0.63667176E-09      0.41365944E-04     -0.86424820E-12      0.19986294E-13     -0.41756858E-21     -0.13260709E-14     -0.33243121E-22
    0.083241800095         0.66168477E-09      0.41497355E-04     -0.84990932E-12      0.20444324E-13     -0.41872119E-21     -0.12939611E-14     -0.33900765E-22
    0.084812400097         0.68720130E-09      0.42138855E-04     -0.92296960E-12      0.21161674E-13     -0.46350528E-21     -0.12607246E-14     -0.34628746E-22
    0.086383000099         0.71322290E-09      0.42736878E-04     -0.92545097E-12      0.21869682E-13     -0.47357971E-21     -0.12263760E-14     -0.35372550E-22
    0.087953600101         0.73975113E-09      0.42636916E-04     -0.82312635E-12      0.22225957E-13     -0.42908289E-21     -0.11914680E-14     -0.36046468E-22
    0.089524200102         0.76678760E-09      0.42530746E-04     -0.81310965E-12      0.22577732E-13     -0.43164471E-21     -0.11560074E-14     -0.36724409E-22
    0.091094800104         0.79433393E-09      0.41660348E-04     -0.94362430E-12      0.22515163E-13     -0.50997785E-21     -0.11206451E-14     -0.37525380E-22
    0.092665400106         0.82239179E-09      0.40817888E-04     -0.94810774E-12      0.22451965E-13     -0.52150866E-21     -0.10853820E-14     -0.38344462E-22
    0.094236000108         0.85096285E-09      0.39597508E-04     -0.76785103E-12      0.22161762E-13     -0.42974755E-21     -0.10505747E-14     -0.39019423E-22
    0.095806600109         0.88004885E-09      0.38418289E-04     -0.76892440E-12      0.21872179E-13     -0.43776161E-21     -0.10162223E-14     -0.39706972E-22
    0.097377200111         0.90965153E-09      0.37100618E-04     -0.69811731E-12      0.21480361E-13     -0.40419306E-21     -0.98248524E-15     -0.40341797E-22
    0.098947800113         0.93977266E-09      0.35826074E-04     -0.55924207E-12      0.21089125E-13     -0.32919951E-21     -0.94936266E-15     -0.40858838E-22
    0.100518400115         0.97041405E-09      0.34518167E-04     -0.63515342E-12      0.20653892E-13     -0.38004308E-21     -0.91692365E-15     -0.41455734E-22
    0.102089000117         0.10015775E-08      0.33251306E-04     -0.55661857E-12      0.20218876E-13     -0.33845895E-21     -0.88516789E-15     -0.41987317E-22
    0.103659600118         0.10332650E-08      0.31973052E-04     -0.53671695E-12      0.19752813E-13     -0.33158141E-21     -0.85414412E-15     -0.42508099E-22
    0.105230200120         0.10654783E-08      0.30733064E-04     -0.68445922E-12      0.19286471E-13     -0.42953097E-21     -0.82385279E-15     -0.43182720E-22
    0.106800800122         0.10982195E-08      0.29448717E-04     -0.54027541E-12      0.18768246E-13     -0.34432813E-21     -0.79437538E-15     -0.43723522E-22
    0.108371400124         0.11314903E-08      0.28201723E-04     -0.41511129E-12      0.18249647E-13     -0.26862311E-21     -0.76571248E-15     -0.44145422E-22
    0.109942000126         0.11652929E-08      0.26851307E-04     -0.55702455E-12      0.17639228E-13     -0.36592197E-21     -0.73800831E-15     -0.44720139E-22
    0.111512600127         0.11996293E-08      0.25539192E-04     -0.53390326E-12      0.17028365E-13     -0.35598226E-21     -0.71126356E-15     -0.45279244E-22
    0.113083200129         0.12345014E-08      0.24068234E-04     -0.54350010E-12      0.16284724E-13     -0.36773571E-21     -0.68568677E-15     -0.45856810E-22
    0.114653800131         0.12699115E-08      0.22638946E-04     -0.52150871E-12      0.15541175E-13     -0.35800511E-21     -0.66127780E-15     -0.46419093E-22
    0.116224400133         0.13058615E-08      0.20822087E-04     -0.49189366E-12      0.14499957E-13     -0.34254190E-21     -0.63850417E-15     -0.46957089E-22
    0.117795000135         0.13423536E-08      0.19064901E-04     -0.48039174E-12      0.13465339E-13     -0.33929565E-21     -0.61735551E-15     -0.47489987E-22
    0.119365600136         0.13793901E-08      0.17651111E-04     -0.64332406E-12      0.12642199E-13     -0.46076595E-21     -0.59749967E-15     -0.48213666E-22
    0.120936200138         0.14169730E-08      0.16280262E-04     -0.48676542E-12      0.11822500E-13     -0.35348228E-21     -0.57893125E-15     -0.48768845E-22
    0.122506800140         0.14551046E-08      0.15495038E-04     -0.51518094E-12      0.11406945E-13     -0.37925952E-21     -0.56101551E-15     -0.49364510E-22
    0.124077400142         0.14937873E-08      0.14726050E-04     -0.38217701E-12      0.10988161E-13     -0.28516965E-21     -0.54375750E-15     -0.49812398E-22
    0.125648000144         0.15330232E-08      0.14079412E-04     -0.51087456E-12      0.10646830E-13     -0.38632258E-21     -0.52703559E-15     -0.50419156E-22
    0.127218600145         0.15728147E-08      0.13431639E-04     -0.52483248E-12      0.10291973E-13     -0.40215207E-21     -0.51087102E-15     -0.51050776E-22
    0.128789200147         0.16131641E-08      0.10501977E-04     -0.53445953E-12      0.81529134E-14     -0.41491258E-21     -0.49806605E-15     -0.51702438E-22
    0.130359800149         0.16540739E-08      0.76990368E-05     -0.50407218E-12      0.60546673E-14     -0.39641184E-21     -0.48855659E-15     -0.52325042E-22
    0.131930400151         0.16955464E-08      0.81023260E-05     -0.44784358E-12      0.64538249E-14     -0.35672522E-21     -0.47842021E-15     -0.52885315E-22
    0.133501000153         0.17375841E-08      0.84676873E-05     -0.53619074E-12      0.68307563E-14     -0.43253703E-21     -0.46769183E-15     -0.53564657E-22
    0.135071600154         0.17801894E-08      0.78946080E-05     -0.48132841E-12      0.64487481E-14     -0.39317540E-21     -0.45756342E-15     -0.54182179E-22
    0.136642200156         0.18233649E-08      0.73432232E-05     -0.41579706E-12      0.60732080E-14     -0.34388469E-21     -0.44802484E-15     -0.54722284E-22
    0.138212800158         0.18671131E-08      0.74595799E-05     -0.48809241E-12      0.62456754E-14     -0.40866468E-21     -0.43821538E-15     -0.55364133E-22
    0.139783400160         0.19114366E-08      0.75626599E-05     -0.47940670E-12      0.64094615E-14     -0.40630398E-21     -0.42814868E-15     -0.56002274E-22
    0.141354000162         0.19563380E-08      0.75108272E-05     -0.43669310E-12      0.64426751E-14     -0.37458880E-21     -0.41802982E-15     -0.56590603E-22
    0.142924600163         0.20018198E-08      0.74518634E-05     -0.45827565E-12      0.64688274E-14     -0.39782077E-21     -0.40786988E-15     -0.57215420E-22
    0.144495200165         0.20478848E-08      0.73277171E-05     -0.44935296E-12      0.64367032E-14     -0.39471387E-21     -0.39776039E-15     -0.57835358E-22
    0.146065800167         0.20945357E-08      0.71952923E-05     -0.39042717E-12      0.63948498E-14     -0.34699398E-21     -0.38771664E-15     -0.58380347E-22
    0.147636400169         0.21417752E-08      0.69982092E-05     -0.42929184E-12      0.62923088E-14     -0.38598972E-21     -0.37783394E-15     -0.58986582E-22
    0.149207000170         0.21896059E-08      0.67705831E-05     -0.39505360E-12      0.61580826E-14     -0.35931510E-21     -0.36816206E-15     -0.59550922E-22
    0.150777600172         0.22380308E-08      0.66344147E-05     -0.36104926E-12      0.61034379E-14     -0.33215315E-21     -0.35857600E-15     -0.60072602E-22
    0.152348200174         0.22870527E-08      0.64013433E-05     -0.37619875E-12      0.59559718E-14     -0.35002484E-21     -0.34922155E-15     -0.60622351E-22
    0.153918800176         0.23366743E-08      0.53343619E-05     -0.35544742E-12      0.50191672E-14     -0.33444488E-21     -0.34133844E-15     -0.61147630E-22
    0.155489400178         0.23868986E-08      0.49871261E-05     -0.39150869E-12      0.47448906E-14     -0.37249227E-21     -0.33388612E-15     -0.61732667E-22
    0.157060000179         0.24377285E-08      0.55999718E-05     -0.36634558E-12      0.53870158E-14     -0.35241418E-21     -0.32542527E-15     -0.62286168E-22
    0.158630600181         0.24891669E-08      0.55439785E-05     -0.34081525E-12      0.53917688E-14     -0.33145818E-21     -0.31695696E-15     -0.62806757E-22
    0.160201200183         0.25412168E-08      0.53317398E-05     -0.32507998E-12      0.52418861E-14     -0.31960153E-21     -0.30872405E-15     -0.63308723E-22
    0.161771800185         0.25938812E-08      0.52156593E-05     -0.34643183E-12      0.51832142E-14     -0.34427678E-21     -0.30058330E-15     -0.63849444E-22
    0.163342400187         0.26471632E-08      0.50642315E-05     -0.35686609E-12      0.50867221E-14     -0.35845096E-21     -0.29259409E-15     -0.64412427E-22
    0.164913000188         0.27010658E-08      0.49367923E-05     -0.30821801E-12      0.50115008E-14     -0.31288228E-21     -0.28472303E-15     -0.64903840E-22
    0.166483600190         0.27555922E-08      0.47717134E-05     -0.34673658E-12      0.48950881E-14     -0.35570160E-21     -0.27703480E-15     -0.65462505E-22
    0.168054200192         0.28107454E-08      0.46179066E-05     -0.27778137E-12      0.47869618E-14     -0.28795056E-21     -0.26951640E-15     -0.65914760E-22
    0.169624800194         0.28665287E-08      0.44571720E-05     -0.37168221E-12      0.46684102E-14     -0.38929730E-21     -0.26218419E-15     -0.66526190E-22
    0.171195400196         0.29229452E-08      0.43077030E-05     -0.33864641E-12      0.45584480E-14     -0.35835852E-21     -0.25502470E-15     -0.67089028E-22
    0.172766000197         0.29799981E-08      0.43859039E-05     -0.33986600E-12      0.46887762E-14     -0.36333573E-21     -0.24766050E-15     -0.67659683E-22
    0.174336600199         0.30376909E-08      0.44634126E-05     -0.33293127E-12      0.48201961E-14     -0.35954418E-21     -0.24008990E-15     -0.68224383E-22
    0.175907200201         0.30960266E-08      0.46677712E-05     -0.33163147E-12      0.50918231E-14     -0.36175912E-21     -0.23209269E-15     -0.68792562E-22
    0.177477800203         0.31550088E-08      0.48655227E-05     -0.35289509E-12      0.53607889E-14     -0.38881662E-21     -0.22367303E-15     -0.69403238E-22
    0.179048400205         0.32146406E-08      0.49201265E-05     -0.33319495E-12      0.54749597E-14     -0.37076871E-21     -0.21507406E-15     -0.69985567E-22
    0.180619000206         0.32749256E-08      0.49773915E-05     -0.36609792E-12      0.55934851E-14     -0.41141294E-21     -0.20628893E-15     -0.70631732E-22
    0.182189600208         0.33358672E-08      0.51252261E-05     -0.34269795E-12      0.58162206E-14     -0.38890126E-21     -0.19715398E-15     -0.71242540E-22
    0.183760200210         0.33974688E-08      0.52698734E-05     -0.36425548E-12      0.60387476E-14     -0.41740033E-21     -0.18766952E-15     -0.71898109E-22
    0.185330800212         0.34597339E-08      0.54382995E-05     -0.36537878E-12      0.62921764E-14     -0.42274754E-21     -0.17778703E-15     -0.72562077E-22
    0.186901400214         0.35226661E-08      0.56037002E-05     -0.33970300E-12      0.65460073E-14     -0.39682679E-21     -0.16750587E-15     -0.73185333E-22
    0.188472000215         0.35862688E-08      0.57801919E-05     -0.31479029E-12      0.68168060E-14     -0.37124448E-21     -0.15679939E-15     -0.73768409E-22
    0.190042600217         0.36505458E-08      0.59531921E-05     -0.35315007E-12      0.70876035E-14     -0.42044462E-21     -0.14566760E-15     -0.74428760E-22
    0.191613200219         0.37155006E-08      0.61312528E-05     -0.35071903E-12      0.73685801E-14     -0.42149645E-21     -0.13409451E-15     -0.75090762E-22
