 
 # Omega; pulse ft; proj flux t=    500.250000000000     
    0.000000000000         0.23733438E-09      0.00000000E+00      0.00000000E+00      0.75905155E-23     -0.58304520E-34      0.37914663E-26     -0.29123137E-37
    0.006276908399         0.26847166E-09      0.22150271E-15     -0.17444739E-26      0.73787747E-23     -0.58112518E-34      0.74771679E-26     -0.58150368E-37
    0.012553816798         0.36198451E-09      0.31877880E-15     -0.25979052E-26      0.71590627E-23     -0.58343171E-34      0.11053123E-25     -0.87292811E-37
    0.018830725196         0.51817601E-09      0.33567313E-15     -0.27384831E-26      0.71941481E-23     -0.58691182E-34      0.14646604E-25     -0.11660909E-36
    0.025107633595         0.73755180E-09      0.31798589E-15     -0.25814486E-26      0.72752367E-23     -0.59061267E-34      0.18280588E-25     -0.14611022E-36
    0.031384541994         0.10208207E-08      0.29084636E-15     -0.23407878E-26      0.73680041E-23     -0.59299121E-34      0.21960910E-25     -0.17573016E-36
    0.037661450393         0.13688958E-08      0.26374954E-15     -0.20605519E-26      0.74665089E-23     -0.58332346E-34      0.25690435E-25     -0.20486720E-36
    0.043938358791         0.17828953E-08      0.23956056E-15     -0.18323472E-26      0.75709412E-23     -0.57908502E-34      0.29472124E-25     -0.23379252E-36
    0.050215267190         0.22641447E-08      0.21859546E-15     -0.16500286E-26      0.76764791E-23     -0.57944525E-34      0.33306529E-25     -0.26273584E-36
    0.056492175589         0.28141777E-08      0.20074727E-15     -0.14849233E-26      0.77887078E-23     -0.57612907E-34      0.37196992E-25     -0.29151352E-36
    0.062769083988         0.34347388E-08      0.18533574E-15     -0.13603071E-26      0.78987734E-23     -0.57974555E-34      0.41142434E-25     -0.32047183E-36
    0.069045992387         0.41277855E-08      0.17217221E-15     -0.12605905E-26      0.80166741E-23     -0.58695555E-34      0.45146766E-25     -0.34979029E-36
    0.075322900785         0.48954902E-08      0.16067498E-15     -0.11724259E-26      0.81333590E-23     -0.59348138E-34      0.49209383E-25     -0.37943472E-36
    0.081599809184         0.57402438E-08      0.15074712E-15     -0.10627466E-26      0.82592908E-23     -0.58226873E-34      0.53334903E-25     -0.40851907E-36
    0.087876717583         0.66646579E-08      0.14188164E-15     -0.97548204E-27      0.83807479E-23     -0.57620345E-34      0.57521091E-25     -0.43730046E-36
    0.094153625982         0.76715684E-08      0.13415369E-15     -0.90540393E-27      0.85133847E-23     -0.57456878E-34      0.61773531E-25     -0.46600020E-36
    0.100430534380         0.87640384E-08      0.12713103E-15     -0.86172626E-27      0.86405743E-23     -0.58567996E-34      0.66089502E-25     -0.49525494E-36
    0.106707442779         0.99453622E-08      0.12095811E-15     -0.79921884E-27      0.87803825E-23     -0.58015513E-34      0.70475307E-25     -0.52423372E-36
    0.112984351178         0.11219069E-07      0.11526221E-15     -0.74616517E-27      0.89141098E-23     -0.57706671E-34      0.74927910E-25     -0.55305823E-36
    0.119261259577         0.12588925E-07      0.11022281E-15     -0.72893347E-27      0.90617748E-23     -0.59927988E-34      0.79454271E-25     -0.58299229E-36
    0.125538167976         0.14058942E-07      0.10550261E-15     -0.66358325E-27      0.92022200E-23     -0.57879505E-34      0.84050784E-25     -0.61190313E-36
    0.131815076374         0.15633376E-07      0.10130492E-15     -0.63056740E-27      0.93577355E-23     -0.58246755E-34      0.88724978E-25     -0.64099742E-36
    0.138091984773         0.17316734E-07      0.97331528E-16     -0.59843074E-27      0.95061268E-23     -0.58447232E-34      0.93473293E-25     -0.67019184E-36
    0.144368893172         0.19113780E-07      0.93782302E-16     -0.57752877E-27      0.96704435E-23     -0.59552381E-34      0.98303684E-25     -0.69993828E-36
    0.150645801571         0.21029537E-07      0.90385818E-16     -0.53876387E-27      0.98271032E-23     -0.58576537E-34      0.10321233E-24     -0.72919729E-36
    0.156922709970         0.23069292E-07      0.87341890E-16     -0.51149289E-27      0.10000543E-22     -0.58565333E-34      0.10820760E-24     -0.75845071E-36
    0.163199618368         0.25238602E-07      0.84404261E-16     -0.49626938E-27      0.10166303E-22     -0.59774531E-34      0.11328568E-24     -0.78830811E-36
    0.169476526767         0.27543295E-07      0.81760946E-16     -0.46549610E-27      0.10349153E-22     -0.58921654E-34      0.11845508E-24     -0.81773951E-36
    0.175753435166         0.29989481E-07      0.79198064E-16     -0.44870514E-27      0.10525246E-22     -0.59631910E-34      0.12371245E-24     -0.84752568E-36
    0.182030343565         0.32583550E-07      0.76882031E-16     -0.42231843E-27      0.10718450E-22     -0.58877206E-34      0.12906632E-24     -0.87693487E-36
    0.188307251963         0.35332181E-07      0.74626735E-16     -0.41457310E-27      0.10905621E-22     -0.60583877E-34      0.13451368E-24     -0.90719655E-36
    0.194584160362         0.38242343E-07      0.72579381E-16     -0.38257417E-27      0.11109712E-22     -0.58560557E-34      0.14006299E-24     -0.93644758E-36
    0.200861068761         0.41321305E-07      0.70582579E-16     -0.36164084E-27      0.11309107E-22     -0.57943974E-34      0.14571190E-24     -0.96539062E-36
    0.207137977160         0.44576634E-07      0.68759793E-16     -0.36467681E-27      0.11524833E-22     -0.61123502E-34      0.15146856E-24     -0.99592184E-36
    0.213414885559         0.48016203E-07      0.66985093E-16     -0.34095283E-27      0.11737992E-22     -0.59746153E-34      0.15733169E-24     -0.10257651E-35
    0.219691793957         0.51648196E-07      0.65355700E-16     -0.31873986E-27      0.11966781E-22     -0.58362009E-34      0.16330910E-24     -0.10549169E-35
    0.225968702356         0.55481108E-07      0.63769938E-16     -0.30689172E-27      0.12194538E-22     -0.58686004E-34      0.16940028E-24     -0.10842306E-35
    0.232245610755         0.59523755E-07      0.62306615E-16     -0.30144932E-27      0.12437397E-22     -0.60174107E-34      0.17561276E-24     -0.11142876E-35
    0.238522519154         0.63785271E-07      0.60884166E-16     -0.27839446E-27      0.12680837E-22     -0.57983463E-34      0.18194685E-24     -0.11432504E-35
    0.244799427552         0.68275117E-07      0.59564782E-16     -0.25878367E-27      0.12938805E-22     -0.56213609E-34      0.18840979E-24     -0.11713291E-35
    0.251076335951         0.73003082E-07      0.58285377E-16     -0.26531859E-27      0.13199199E-22     -0.60083557E-34      0.19500279E-24     -0.12013409E-35
    0.257353244350         0.77979284E-07      0.57094280E-16     -0.24886584E-27      0.13473944E-22     -0.58731004E-34      0.20173304E-24     -0.12306770E-35
    0.263630152749         0.83214178E-07      0.55942667E-16     -0.23465597E-27      0.13753016E-22     -0.57688120E-34      0.20860268E-24     -0.12594923E-35
    0.269907061148         0.88718553E-07      0.54864559E-16     -0.22764058E-27      0.14045740E-22     -0.58277704E-34      0.21561853E-24     -0.12886020E-35
    0.276183969546         0.94503538E-07      0.53826361E-16     -0.21937304E-27      0.14344888E-22     -0.58463579E-34      0.22278381E-24     -0.13178046E-35
    0.282460877945         0.10058060E-06      0.52851459E-16     -0.21362167E-27      0.14657687E-22     -0.59245283E-34      0.23010533E-24     -0.13473977E-35
    0.288737786344         0.10696156E-06      0.51917455E-16     -0.19631349E-27      0.14979248E-22     -0.56640461E-34      0.23758747E-24     -0.13756896E-35
    0.295014694743         0.11365856E-06      0.51038976E-16     -0.19638451E-27      0.15314858E-22     -0.58927532E-34      0.24523725E-24     -0.14051239E-35
    0.301291603141         0.12068410E-06      0.50196527E-16     -0.18199899E-27      0.15659909E-22     -0.56778581E-34      0.25305938E-24     -0.14334849E-35
    0.307568511540         0.12805103E-06      0.49404179E-16     -0.18552420E-27      0.16019812E-22     -0.60158127E-34      0.26106129E-24     -0.14635339E-35
    0.313845419939         0.13577253E-06      0.48652034E-16     -0.17975978E-27      0.16392668E-22     -0.60567714E-34      0.26924943E-24     -0.14937875E-35
    0.320122328338         0.14386214E-06      0.47946372E-16     -0.17131188E-27      0.16781811E-22     -0.59961232E-34      0.27763196E-24     -0.15237381E-35
    0.326399236737         0.15233372E-06      0.47269935E-16     -0.16691160E-27      0.17182425E-22     -0.60671672E-34      0.28621459E-24     -0.15540437E-35
    0.332676145135         0.16120149E-06      0.46642163E-16     -0.15594974E-27      0.17602673E-22     -0.58855165E-34      0.29500713E-24     -0.15834419E-35
    0.338953053534         0.17048002E-06      0.46039509E-16     -0.15576390E-27      0.18035042E-22     -0.61017340E-34      0.30401564E-24     -0.16139200E-35
    0.345229961933         0.18018417E-06      0.45486481E-16     -0.14391216E-27      0.18490261E-22     -0.58500313E-34      0.31325154E-24     -0.16431410E-35
    0.351506870332         0.19032920E-06      0.44952810E-16     -0.13803287E-27      0.18957496E-22     -0.58211215E-34      0.32272082E-24     -0.16722175E-35
    0.357783778731         0.20093064E-06      0.44473097E-16     -0.13385917E-27      0.19452500E-22     -0.58549904E-34      0.33243735E-24     -0.17014632E-35
    0.364060687129         0.21200438E-06      0.44001872E-16     -0.12746988E-27      0.19956976E-22     -0.57813751E-34      0.34240587E-24     -0.17303412E-35
    0.370337595528         0.22356662E-06      0.43589706E-16     -0.12611953E-27      0.20494892E-22     -0.59298547E-34      0.35264308E-24     -0.17599609E-35
    0.376614503927         0.23563389E-06      0.43187701E-16     -0.11770407E-27      0.21045214E-22     -0.57356777E-34      0.36315517E-24     -0.17886106E-35
    0.382891412326         0.24822301E-06      0.42851593E-16     -0.11767381E-27      0.21636446E-22     -0.59415362E-34      0.37396259E-24     -0.18182886E-35
    0.389168320724         0.26135112E-06      0.42506362E-16     -0.11127599E-27      0.22232759E-22     -0.58202399E-34      0.38506786E-24     -0.18473607E-35
    0.395445229123         0.27503566E-06      0.42240711E-16     -0.10867772E-27      0.22881601E-22     -0.58870226E-34      0.39649723E-24     -0.18767665E-35
    0.401722137522         0.28929433E-06      0.41952470E-16     -0.10464426E-27      0.23530125E-22     -0.58692433E-34      0.40825054E-24     -0.19060834E-35
    0.407999045921         0.30414516E-06      0.41759159E-16     -0.10199973E-27      0.24245215E-22     -0.59220671E-34      0.42036104E-24     -0.19356641E-35
    0.414275954320         0.31960641E-06      0.41527961E-16     -0.10178421E-27      0.24952778E-22     -0.61158767E-34      0.43282497E-24     -0.19662129E-35
    0.420552862718         0.33569662E-06      0.41411883E-16     -0.92335194E-28      0.25745652E-22     -0.57404532E-34      0.44568493E-24     -0.19948865E-35
    0.426829771117         0.35243458E-06      0.41235868E-16     -0.90419928E-28      0.26518655E-22     -0.58148767E-34      0.45893101E-24     -0.20239319E-35
    0.433106679516         0.36983933E-06      0.41204025E-16     -0.89036943E-28      0.27403775E-22     -0.59216263E-34      0.47261921E-24     -0.20535104E-35
    0.439383587915         0.38793013E-06      0.41082981E-16     -0.86406669E-28      0.28250372E-22     -0.59416831E-34      0.48673029E-24     -0.20831892E-35
    0.445660496313         0.40672647E-06      0.41153996E-16     -0.83643547E-28      0.29252490E-22     -0.59454300E-34      0.50134192E-24     -0.21128866E-35
    0.451937404712         0.42624802E-06      0.41092367E-16     -0.79881760E-28      0.30185458E-22     -0.58679209E-34      0.51641957E-24     -0.21421969E-35
    0.458214313111         0.44651466E-06      0.41385502E-16     -0.81094276E-28      0.31409993E-22     -0.61547415E-34      0.53210888E-24     -0.21729399E-35
    0.464491221510         0.46754647E-06      0.41302776E-16     -0.74335182E-28      0.32380164E-22     -0.58276602E-34      0.54828279E-24     -0.22020491E-35
    0.470768129909         0.48936365E-06      0.41080178E-16     -0.70940921E-28      0.33259024E-22     -0.57434654E-34      0.56489569E-24     -0.22307377E-35
    0.477045038307         0.51198657E-06      0.41102285E-16     -0.70675633E-28      0.34357194E-22     -0.59077407E-34      0.58205712E-24     -0.22602469E-35
    0.483321946706         0.53543573E-06      0.41558775E-16     -0.68830672E-28      0.35858004E-22     -0.59388913E-34      0.59996821E-24     -0.22899117E-35
    0.489598855105         0.55973174E-06      0.41626978E-16     -0.66552856E-28      0.37065253E-22     -0.59259609E-34      0.61848233E-24     -0.23195119E-35
    0.495875763504         0.58489532E-06      0.42127799E-16     -0.64717256E-28      0.38701391E-22     -0.59453566E-34      0.63781369E-24     -0.23492090E-35
    0.502152671902         0.61094726E-06      0.42211299E-16     -0.65596587E-28      0.39999006E-22     -0.62158672E-34      0.65779321E-24     -0.23802573E-35
    0.508429580301         0.63790841E-06      0.42870632E-16     -0.60946467E-28      0.41892854E-22     -0.59556421E-34      0.67871872E-24     -0.24100057E-35
    0.514706488700         0.66579967E-06      0.42891405E-16     -0.57126363E-28      0.43212236E-22     -0.57553673E-34      0.70030325E-24     -0.24387538E-35
    0.520983397099         0.69464194E-06      0.43589851E-16     -0.58656727E-28      0.45266304E-22     -0.60912648E-34      0.72291379E-24     -0.24691797E-35
    0.527260305498         0.72445614E-06      0.43689160E-16     -0.56632053E-28      0.46753406E-22     -0.60604081E-34      0.74626714E-24     -0.24994515E-35
    0.533537213896         0.75526319E-06      0.44798827E-16     -0.53666649E-28      0.49391564E-22     -0.59168508E-34      0.77093825E-24     -0.25290062E-35
    0.539814122295         0.78708392E-06      0.44798173E-16     -0.54094141E-28      0.50873268E-22     -0.61429865E-34      0.79634947E-24     -0.25596904E-35
    0.546091030694         0.81993914E-06      0.46128084E-16     -0.52431105E-28      0.53942930E-22     -0.61313785E-34      0.82329399E-24     -0.25903167E-35
    0.552367939093         0.85384956E-06      0.45889673E-16     -0.52091862E-28      0.55248489E-22     -0.62715562E-34      0.85089064E-24     -0.26216432E-35
    0.558644847491         0.88883579E-06      0.47555819E-16     -0.49386391E-28      0.58930747E-22     -0.61199175E-34      0.88032658E-24     -0.26522122E-35
    0.564921755890         0.92491828E-06      0.46865409E-16     -0.50260720E-28      0.59761296E-22     -0.64090891E-34      0.91017738E-24     -0.26842256E-35
    0.571198664289         0.96211735E-06      0.49067035E-16     -0.48206924E-28      0.64369957E-22     -0.63241596E-34      0.94233020E-24     -0.27158148E-35
    0.577475572688         0.10004531E-05      0.47363118E-16     -0.48223833E-28      0.63908108E-22     -0.65069490E-34      0.97425233E-24     -0.27483171E-35
    0.583752481087         0.10399456E-05      0.50297233E-16     -0.44162436E-28      0.69787640E-22     -0.61275582E-34      0.10091113E-23     -0.27789242E-35
    0.590029389485         0.10806144E-05      0.46382713E-16     -0.41020787E-28      0.66161568E-22     -0.58513170E-34      0.10421590E-23     -0.28081516E-35
    0.596306297884         0.11224790E-05      0.50357280E-16     -0.42043722E-28      0.73828429E-22     -0.61639985E-34      0.10790364E-23     -0.28389408E-35
    0.602583206283         0.11655585E-05      0.40733547E-16     -0.39800174E-28      0.61365155E-22     -0.59959028E-34      0.11096883E-23     -0.28688904E-35
    0.608860114682         0.12098719E-05      0.46312612E-16     -0.40139373E-28      0.71675988E-22     -0.62121938E-34      0.11454905E-23     -0.28999203E-35
    0.615137023081         0.12554376E-05      0.17266620E-16     -0.36656644E-28      0.27446258E-22     -0.58267786E-34      0.11591999E-23     -0.29290251E-35
    0.621413931479         0.13022739E-05      0.24260043E-16     -0.36907002E-28      0.39597287E-22     -0.60239677E-34      0.11789788E-23     -0.29591148E-35
    0.627690839878         0.13503983E-05     -0.14435263E-15     -0.31281630E-28     -0.24187631E-21     -0.52415293E-34      0.10581614E-23     -0.29852963E-35
    0.633967748277         0.13998285E-05     -0.53356766E-15      0.12030205E-29     -0.91759216E-21      0.20688701E-35      0.59982369E-24     -0.29842629E-35
    0.640244656676         0.14505812E-05     -0.41755590E-16     -0.30874380E-28     -0.73682311E-22     -0.54481224E-34      0.56301934E-24     -0.30114763E-35
    0.646521565074         0.15026729E-05      0.34083316E-15     -0.39753915E-28      0.61698671E-21     -0.71963764E-34      0.87120451E-24     -0.30474222E-35
    0.652798473473         0.15561195E-05      0.24754095E-15     -0.45637198E-28      0.45958242E-21     -0.84729633E-34      0.11007662E-23     -0.30897447E-35
    0.659075381872         0.16109365E-05      0.28873166E-15     -0.40914392E-28      0.54965513E-21     -0.77888256E-34      0.13753192E-23     -0.31286500E-35
    0.665352290271         0.16671388E-05      0.30714415E-15     -0.52874159E-28      0.59939747E-21     -0.10318489E-33      0.16747185E-23     -0.31801909E-35
    0.671629198670         0.17247407E-05      0.40714790E-15     -0.27999194E-28      0.81432727E-21     -0.56000551E-34      0.20814754E-23     -0.32081632E-35
    0.677906107068         0.17837558E-05      0.49900679E-15     -0.43615843E-28      0.10226448E-20     -0.89384590E-34      0.25922870E-23     -0.32528108E-35
    0.684183015467         0.18441971E-05      0.10459028E-14     -0.39642973E-28      0.21957298E-20     -0.83225000E-34      0.36890551E-23     -0.32943817E-35
    0.690459923866         0.19060772E-05      0.24863239E-14     -0.73479344E-29      0.53457945E-20     -0.15798644E-34      0.63592821E-23     -0.33022732E-35
    0.696736832265         0.19694076E-05      0.42047984E-14     -0.14318422E-27      0.92568785E-20     -0.31522057E-33      0.10983098E-22     -0.34597260E-35
    0.703013740663         0.20341994E-05      0.44104447E-14     -0.55915611E-28      0.99395022E-20     -0.12601299E-33      0.15947884E-22     -0.35226696E-35
    0.709290649062         0.21004628E-05      0.47083580E-14     -0.22702122E-27      0.10859574E-19     -0.52361220E-33      0.21372246E-22     -0.37842141E-35
    0.715567557461         0.21682073E-05      0.69992739E-14     -0.17788201E-27      0.16517933E-19     -0.41979254E-33      0.29622962E-22     -0.39939007E-35
    0.721844465860         0.22374415E-05      0.96099311E-14     -0.58274898E-27      0.23199620E-19     -0.14068316E-32      0.41211184E-22     -0.46966138E-35
    0.728121374259         0.23081733E-05      0.99246332E-14     -0.39611993E-27      0.24503699E-19     -0.97801130E-33      0.53450794E-22     -0.51851309E-35
    0.734398282657         0.23804097E-05      0.91325429E-14     -0.70031879E-27      0.23054957E-19     -0.17679435E-32      0.64966756E-22     -0.60682196E-35
    0.740675191056         0.24541568E-05      0.89940363E-14     -0.49908812E-27      0.23210350E-19     -0.12879657E-32      0.76560338E-22     -0.67115591E-35
    0.746952099455         0.25294198E-05      0.89383180E-14     -0.30920684E-27      0.23574175E-19     -0.81551096E-33      0.88335650E-22     -0.71189072E-35
    0.753229007854         0.26062031E-05      0.95320146E-14     -0.67167995E-27      0.25687300E-19     -0.18100732E-32      0.10116647E-21     -0.80230397E-35
    0.759505916252         0.26845099E-05      0.97613482E-14      0.73786667E-28      0.26871765E-19      0.20312542E-33      0.11458893E-21     -0.79215784E-35
    0.765782824651         0.27643427E-05      0.82871054E-14     -0.24136164E-27      0.23299235E-19     -0.67858938E-33      0.12622691E-21     -0.82605342E-35
