 
 # Omega; pulse ft; proj flux t=    500.250000000000     
    0.000000000000         0.19000442E-09      0.00000000E+00      0.00000000E+00     -0.69644916E-35      0.67020327E-44     -0.43715476E-37      0.42068046E-46
    0.006276908399         0.22160172E-09      0.26389039E-26      0.30684751E-35      0.57742234E-35      0.67141742E-44     -0.74712044E-38      0.84212302E-46
    0.012553816798         0.31649624E-09      0.44015281E-26      0.42881810E-35      0.68776319E-35      0.67005207E-44      0.35699061E-37      0.12627086E-45
    0.018830725196         0.47499603E-09      0.28056115E-26      0.42937982E-35      0.43862476E-35      0.67128546E-44      0.63231135E-37      0.16840683E-45
    0.025107633595         0.69761494E-09      0.11653102E-26      0.38950000E-35      0.20067543E-35      0.67074915E-44      0.75827348E-37      0.21050914E-45
    0.031384541994         0.98507334E-09     -0.18032096E-27      0.34456669E-35     -0.35078552E-36      0.67029925E-44      0.73625500E-37      0.25258321E-45
    0.037661450393         0.13382991E-08     -0.52374203E-28      0.30417573E-35     -0.11534964E-36      0.66992065E-44      0.72901460E-37      0.29463352E-45
    0.043938358791         0.17584287E-08      0.61133821E-28      0.27044884E-35      0.15163699E-36      0.67082422E-44      0.73853272E-37      0.33674054E-45
    0.050215267190         0.22468091E-08     -0.60097086E-29      0.24195678E-35     -0.16665812E-37      0.67098200E-44      0.73748662E-37      0.37885746E-45
    0.056492175589         0.28049990E-08     -0.82026944E-28      0.21773563E-35     -0.25243154E-36      0.67006447E-44      0.72164173E-37      0.42091680E-45
    0.062769083988         0.34347712E-08     -0.32962191E-28      0.19780437E-35     -0.11179201E-36      0.67085797E-44      0.71462464E-37      0.46302594E-45
    0.069045992387         0.41381150E-08      0.24962523E-28      0.18070517E-35      0.92724656E-37      0.67123923E-44      0.72044488E-37      0.50515901E-45
    0.075322900785         0.49172381E-08      0.53482815E-28      0.16560108E-35      0.21639695E-36      0.67003893E-44      0.73402792E-37      0.54721674E-45
    0.081599809184         0.57745703E-08      0.72378966E-28      0.15277548E-35      0.31745749E-36      0.67008032E-44      0.75395444E-37      0.58927707E-45
    0.087876717583         0.67127654E-08      0.57956169E-28      0.14161019E-35      0.27439108E-36      0.67044757E-44      0.77117772E-37      0.63136044E-45
    0.094153625982         0.77347054E-08      0.58445961E-28      0.13201587E-35      0.29758011E-36      0.67216445E-44      0.78985655E-37      0.67355159E-45
    0.100430534380         0.88435030E-08      0.44502105E-28      0.12302332E-35      0.24287443E-36      0.67141136E-44      0.80510155E-37      0.71569547E-45
    0.106707442779         0.10042506E-07      0.14717969E-28      0.11535876E-35      0.85849536E-37      0.67288466E-44      0.81049025E-37      0.75793182E-45
    0.112984351178         0.11335300E-07      0.16376189E-28      0.10795720E-35      0.10182871E-36      0.67128821E-44      0.81688194E-37      0.80006797E-45
    0.119261259577         0.12725715E-07      0.17289836E-28      0.10122346E-35      0.11434477E-36      0.66943225E-44      0.82405926E-37      0.84208762E-45
    0.125538167976         0.14217824E-07     -0.87589134E-29      0.95592336E-36     -0.61482319E-37      0.67100087E-44      0.82020007E-37      0.88420573E-45
    0.131815076374         0.15815953E-07      0.34903220E-29      0.90147852E-36      0.25956041E-37      0.67039125E-44      0.82182931E-37      0.92628557E-45
    0.138091984773         0.17524683E-07     -0.52902760E-29      0.85240227E-36     -0.41610479E-37      0.67045399E-44      0.81921746E-37      0.96836935E-45
    0.144368893172         0.19348855E-07     -0.41922426E-28      0.80768814E-36     -0.34823363E-36      0.67091579E-44      0.79735915E-37      0.10104821E-44
    0.150645801571         0.21293571E-07     -0.38933143E-28      0.76591401E-36     -0.34107792E-36      0.67098708E-44      0.77595000E-37      0.10525994E-44
    0.156922709970         0.23364205E-07     -0.17313001E-28      0.72627574E-36     -0.15976449E-36      0.67020772E-44      0.76592173E-37      0.10946677E-44
    0.163199618368         0.25566403E-07     -0.47285153E-29      0.68949928E-36     -0.45911128E-37      0.66946363E-44      0.76303993E-37      0.11366893E-44
    0.169476526767         0.27906088E-07     -0.15762381E-28      0.65732246E-36     -0.16086216E-36      0.67082704E-44      0.75294276E-37      0.11787965E-44
    0.175753435166         0.30389467E-07     -0.25180229E-28      0.62074061E-36     -0.26984950E-36      0.66523042E-44      0.73600456E-37      0.12205524E-44
    0.182030343565         0.33023034E-07     -0.40621813E-28      0.59385142E-36     -0.45674643E-36      0.66771889E-44      0.70733500E-37      0.12624645E-44
    0.188307251963         0.35813574E-07     -0.57363789E-28      0.56411952E-36     -0.67617814E-36      0.66495832E-44      0.66489192E-37      0.13042033E-44
    0.194584160362         0.38768170E-07      0.28891789E-29      0.54085596E-36      0.35676721E-37      0.66787027E-44      0.66713131E-37      0.13461249E-44
    0.200861068761         0.41894206E-07      0.10079201E-27      0.51564823E-36      0.13029477E-35      0.66658326E-44      0.74891615E-37      0.13879658E-44
    0.207137977160         0.45199371E-07      0.18724723E-27      0.49197200E-36      0.25323909E-35      0.66535853E-44      0.90787200E-37      0.14297297E-44
    0.213414885559         0.48691666E-07      0.37015374E-27      0.47300290E-36      0.52342534E-35      0.66886180E-44      0.12364213E-36      0.14717136E-44
    0.219691793957         0.52379403E-07     -0.52690092E-28      0.45390011E-36     -0.77860707E-36      0.67073299E-44      0.11875488E-36      0.15138149E-44
    0.225968702356         0.56271216E-07     -0.12211693E-26      0.43664443E-36     -0.18847623E-34      0.67392040E-44      0.45008355E-39      0.15561162E-44
    0.232245610755         0.60376060E-07     -0.14075580E-26      0.41636943E-36     -0.22679122E-34      0.67087062E-44     -0.14190469E-36      0.15982262E-44
    0.238522519154         0.64703218E-07     -0.65915946E-27      0.40033789E-36     -0.11082294E-34      0.67307872E-44     -0.21146723E-36      0.16404747E-44
    0.244799427552         0.69262300E-07     -0.32519437E-27      0.38323331E-36     -0.57025908E-35      0.67203584E-44     -0.24726187E-36      0.16826578E-44
    0.251076335951         0.74063251E-07     -0.26103831E-27      0.36689214E-36     -0.47724777E-35      0.67077685E-44     -0.27721828E-36      0.17247618E-44
    0.257353244350         0.79116352E-07     -0.20561434E-27      0.35261602E-36     -0.39177136E-35      0.67186392E-44     -0.30180940E-36      0.17669341E-44
    0.263630152749         0.84432224E-07     -0.19142293E-27      0.33780138E-36     -0.37997043E-35      0.67052850E-44     -0.32565980E-36      0.18090226E-44
    0.269907061148         0.90021830E-07     -0.17037164E-27      0.32476347E-36     -0.35218719E-35      0.67134140E-44     -0.34776627E-36      0.18511620E-44
    0.276183969546         0.95896474E-07     -0.17536120E-27      0.31196142E-36     -0.37738129E-35      0.67134807E-44     -0.37145415E-36      0.18933019E-44
    0.282460877945         0.10206781E-06     -0.17604707E-27      0.29947822E-36     -0.39427747E-35      0.67071560E-44     -0.39620258E-36      0.19354021E-44
    0.288737786344         0.10854784E-06     -0.17539321E-27      0.28767990E-36     -0.40867023E-35      0.67030080E-44     -0.42185444E-36      0.19774763E-44
    0.295014694743         0.11534890E-06     -0.18347600E-27      0.27594810E-36     -0.44462281E-35      0.66871320E-44     -0.44976300E-36      0.20194508E-44
    0.301291603141         0.12248370E-06     -0.17095736E-27      0.26626963E-36     -0.43074650E-35      0.67089659E-44     -0.47680057E-36      0.20615624E-44
    0.307568511540         0.12996528E-06     -0.15429095E-27      0.25624303E-36     -0.40408115E-35      0.67108915E-44     -0.50216437E-36      0.21036860E-44
    0.313845419939         0.13780704E-06     -0.15249767E-27      0.24662965E-36     -0.41501282E-35      0.67118705E-44     -0.52821434E-36      0.21458158E-44
    0.320122328338         0.14602273E-06     -0.15190343E-27      0.23784759E-36     -0.42945210E-35      0.67242819E-44     -0.55517066E-36      0.21880235E-44
    0.326399236737         0.15462643E-06     -0.14884289E-27      0.22804922E-36     -0.43702407E-35      0.66958520E-44     -0.58260226E-36      0.22300528E-44
    0.332676145135         0.16363259E-06     -0.15051191E-27      0.21983896E-36     -0.45884044E-35      0.67018621E-44     -0.61140325E-36      0.22721198E-44
    0.338953053534         0.17305599E-06     -0.14981517E-27      0.21189664E-36     -0.47407336E-35      0.67052325E-44     -0.64116040E-36      0.23142079E-44
    0.345229961933         0.18291177E-06     -0.14637806E-27      0.20403987E-36     -0.48067533E-35      0.67002478E-44     -0.67133195E-36      0.23562647E-44
    0.351506870332         0.19321538E-06     -0.14620576E-27      0.19703117E-36     -0.49809826E-35      0.67125183E-44     -0.70259713E-36      0.23983986E-44
    0.357783778731         0.20398262E-06     -0.14868380E-27      0.19003364E-36     -0.52538644E-35      0.67149950E-44     -0.73557515E-36      0.24405480E-44
    0.364060687129         0.21522964E-06     -0.14988943E-27      0.18329155E-36     -0.54921448E-35      0.67160421E-44     -0.77004884E-36      0.24827040E-44
    0.370337595528         0.22697289E-06     -0.15265836E-27      0.17645621E-36     -0.57988177E-35      0.67027931E-44     -0.80644749E-36      0.25247768E-44
    0.376614503927         0.23922915E-06     -0.15556058E-27      0.17052982E-36     -0.61243400E-35      0.67136712E-44     -0.84488941E-36      0.25669179E-44
    0.382891412326         0.25201552E-06     -0.15906859E-27      0.16443732E-36     -0.64890148E-35      0.67080260E-44     -0.88562036E-36      0.26090236E-44
    0.389168320724         0.26534940E-06     -0.16238363E-27      0.15905856E-36     -0.68622345E-35      0.67217193E-44     -0.92869398E-36      0.26512152E-44
    0.395445229123         0.27924851E-06     -0.16224554E-27      0.15345021E-36     -0.71010072E-35      0.67160617E-44     -0.97326635E-36      0.26933713E-44
    0.401722137522         0.29373083E-06     -0.16149840E-27      0.14826091E-36     -0.73187122E-35      0.67188218E-44     -0.10192052E-35      0.27355447E-44
    0.407999045921         0.30881467E-06     -0.16557241E-27      0.14317242E-36     -0.77672880E-35      0.67164658E-44     -0.10679598E-35      0.27777034E-44
    0.414275954320         0.32451858E-06     -0.16841955E-27      0.13830116E-36     -0.81768311E-35      0.67145720E-44     -0.11192850E-35      0.28198501E-44
    0.420552862718         0.34086139E-06     -0.16907644E-27      0.13372832E-36     -0.84934274E-35      0.67177411E-44     -0.11725975E-35      0.28620168E-44
    0.426829771117         0.35786219E-06     -0.17225213E-27      0.12910545E-36     -0.89509347E-35      0.67088544E-44     -0.12287817E-35      0.29041276E-44
    0.433106679516         0.37554031E-06     -0.17606165E-27      0.12514362E-36     -0.94616986E-35      0.67253216E-44     -0.12881719E-35      0.29463418E-44
    0.439383587915         0.39391532E-06     -0.17648336E-27      0.12088988E-36     -0.98063068E-35      0.67172525E-44     -0.13497252E-35      0.29885054E-44
    0.445660496313         0.41300701E-06     -0.18151367E-27      0.11698733E-36     -0.10425702E-34      0.67194662E-44     -0.14151664E-35      0.30306829E-44
    0.451937404712         0.43283537E-06     -0.18858098E-27      0.11325753E-36     -0.11193993E-34      0.67228621E-44     -0.14854300E-35      0.30728817E-44
    0.458214313111         0.45342059E-06     -0.19021646E-27      0.10936443E-36     -0.11666037E-34      0.67073560E-44     -0.15586567E-35      0.31149831E-44
    0.464491221510         0.47478305E-06     -0.19904095E-27      0.10585803E-36     -0.12609644E-34      0.67063185E-44     -0.16378062E-35      0.31570781E-44
    0.470768129909         0.49694328E-06     -0.20899553E-27      0.10247365E-36     -0.13673492E-34      0.67043187E-44     -0.17236335E-35      0.31991605E-44
    0.477045038307         0.51992196E-06     -0.21160572E-27      0.99396561E-37     -0.14293838E-34      0.67141774E-44     -0.18133546E-35      0.32413048E-44
    0.483321946706         0.54373993E-06     -0.22516641E-27      0.96185755E-37     -0.15700049E-34      0.67066886E-44     -0.19119024E-35      0.32834020E-44
    0.489598855105         0.56841810E-06     -0.23737005E-27      0.93360013E-37     -0.17080324E-34      0.67178621E-44     -0.20191140E-35      0.33255694E-44
    0.495875763504         0.59397753E-06     -0.24350733E-27      0.90311341E-37     -0.18078061E-34      0.67047424E-44     -0.21325883E-35      0.33676545E-44
    0.502152671902         0.62043932E-06     -0.25290289E-27      0.87367057E-37     -0.19366895E-34      0.66904283E-44     -0.22541526E-35      0.34096497E-44
    0.508429580301         0.64782466E-06     -0.26719742E-27      0.84683794E-37     -0.21100931E-34      0.66875901E-44     -0.23866012E-35      0.34516271E-44
    0.514706488700         0.67615476E-06     -0.28932358E-27      0.82329204E-37     -0.23556620E-34      0.67032136E-44     -0.25344639E-35      0.34937026E-44
    0.520983397099         0.70545086E-06     -0.30885513E-27      0.79986312E-37     -0.25920321E-34      0.67127618E-44     -0.26971634E-35      0.35358379E-44
    0.527260305498         0.73573422E-06     -0.32166589E-27      0.77540594E-37     -0.27819131E-34      0.67060637E-44     -0.28717816E-35      0.35779313E-44
    0.533537213896         0.76702604E-06     -0.35585470E-27      0.75229000E-37     -0.31707410E-34      0.67030639E-44     -0.30708061E-35      0.36200058E-44
    0.539814122295         0.79934752E-06     -0.40237243E-27      0.72957817E-37     -0.36928553E-34      0.66958528E-44     -0.33026032E-35      0.36620351E-44
    0.546091030694         0.83271978E-06     -0.42040767E-27      0.70839092E-37     -0.39732614E-34      0.66949833E-44     -0.35520012E-35      0.37040589E-44
    0.552367939093         0.86716384E-06     -0.44846820E-27      0.68673704E-37     -0.43636210E-34      0.66819904E-44     -0.38259017E-35      0.37460011E-44
    0.558644847491         0.90270064E-06     -0.48503656E-27      0.66824039E-37     -0.48576375E-34      0.66924225E-44     -0.41308111E-35      0.37880088E-44
    0.564921755890         0.93935095E-06     -0.53356778E-27      0.65127438E-37     -0.54988497E-34      0.67119118E-44     -0.44759689E-35      0.38301389E-44
    0.571198664289         0.97713540E-06     -0.60083564E-27      0.63196766E-37     -0.63703887E-34      0.67004673E-44     -0.48758324E-35      0.38721971E-44
    0.577475572688         0.10160745E-05     -0.68882864E-27      0.61612583E-37     -0.75118306E-34      0.67189902E-44     -0.53473431E-35      0.39143716E-44
    0.583752481087         0.10561883E-05     -0.77690764E-27      0.59672428E-37     -0.87121371E-34      0.66915853E-44     -0.58941959E-35      0.39563741E-44
    0.590029389485         0.10974971E-05     -0.93108138E-27      0.57986549E-37     -0.10733962E-33      0.66849731E-44     -0.65679569E-35      0.39983350E-44
    0.596306297884         0.11400204E-05     -0.10806556E-26      0.56457096E-37     -0.12804812E-33      0.66896660E-44     -0.73717032E-35      0.40403254E-44
    0.602583206283         0.11837778E-05     -0.14057537E-26      0.54955772E-37     -0.17116110E-33      0.66912790E-44     -0.84460657E-35      0.40823260E-44
    0.608860114682         0.12287883E-05     -0.16830347E-26      0.53696152E-37     -0.21052093E-33      0.67165366E-44     -0.97674864E-35      0.41244851E-44
    0.615137023081         0.12750709E-05     -0.26274621E-26      0.52392187E-37     -0.33755271E-33      0.67308772E-44     -0.11886274E-34      0.41667342E-44
    0.621413931479         0.13226439E-05     -0.31101384E-26      0.51068216E-37     -0.41028378E-33      0.67368257E-44     -0.14461587E-34      0.42090206E-44
    0.627690839878         0.13715254E-05     -0.14280193E-25      0.49945411E-37     -0.19339036E-32      0.67638869E-44     -0.26600523E-34      0.42514769E-44
    0.633967748277         0.14217330E-05     -0.23778999E-25      0.49779893E-37     -0.33051193E-32      0.69190669E-44     -0.47346454E-34      0.42949073E-44
    0.640244656676         0.14732840E-05     -0.39652810E-26      0.47246201E-37     -0.56553195E-33      0.67382958E-44     -0.50896246E-34      0.43372029E-44
    0.646521565074         0.15261949E-05      0.11084978E-25      0.45563398E-37      0.16218269E-32      0.66663141E-44     -0.40716187E-34      0.43790468E-44
    0.652798473473         0.15804821E-05      0.73781956E-26      0.44393240E-37      0.11071419E-32      0.66614681E-44     -0.33766759E-34      0.44208602E-44
    0.659075381872         0.16361611E-05      0.56004191E-26      0.43435348E-37      0.86169618E-33      0.66830844E-44     -0.28357971E-34      0.44628093E-44
    0.665352290271         0.16932470E-05      0.62339210E-26      0.41857029E-37      0.98326965E-33      0.66020642E-44     -0.22186077E-34      0.45042498E-44
    0.671629198670         0.17517545E-05      0.70924091E-26      0.41462500E-37      0.11465160E-32      0.67025772E-44     -0.14989502E-34      0.45463213E-44
    0.677906107068         0.18116973E-05      0.10146771E-25      0.40022864E-37      0.16806862E-32      0.66292887E-44     -0.44399883E-35      0.45879327E-44
    0.684183015467         0.18730887E-05      0.35623948E-25      0.39100336E-37      0.60446448E-32      0.66345158E-44      0.33501694E-34      0.46295770E-44
    0.690459923866         0.19359414E-05      0.10529952E-24      0.39303432E-37      0.18298807E-31      0.68300971E-44      0.14836163E-33      0.46724489E-44
    0.696736832265         0.20002671E-05      0.17808584E-24      0.32725429E-37      0.31687742E-31      0.58230062E-44      0.34726268E-33      0.47089994E-44
    0.703013740663         0.20660771E-05      0.19098019E-24      0.35536467E-37      0.34786737E-31      0.64729109E-44      0.56561585E-33      0.47496292E-44
    0.709290649062         0.21333816E-05      0.20893382E-24      0.27049070E-37      0.38948949E-31      0.50424237E-44      0.81009483E-33      0.47812801E-44
    0.715567557461         0.22021904E-05      0.31822308E-24      0.28244467E-37      0.60698587E-31      0.53874133E-44      0.11910943E-32      0.48150964E-44
    0.721844465860         0.22725123E-05      0.44025616E-24      0.87689383E-38      0.85903473E-31      0.17110090E-44      0.17303025E-32      0.48258362E-44
    0.728121374259         0.23443551E-05      0.45870914E-24      0.16344979E-37      0.91537634E-31      0.32617198E-44      0.23048759E-32      0.48463097E-44
    0.734398282657         0.24177260E-05      0.42073090E-24      0.16737045E-38      0.85846483E-31      0.34150485E-45      0.28437264E-32      0.48484533E-44
    0.740675191056         0.24926312E-05      0.40453650E-24      0.10692466E-37      0.84378270E-31      0.22302358E-44      0.33733611E-32      0.48624523E-44
    0.746952099455         0.25690760E-05      0.40685733E-24      0.18423318E-37      0.86729935E-31      0.39273058E-44      0.39177569E-32      0.48871036E-44
    0.753229007854         0.26470648E-05      0.43573150E-24      0.11519221E-38      0.94907202E-31      0.25090152E-45      0.45134807E-32      0.48886785E-44
    0.759505916252         0.27266009E-05      0.43840729E-24      0.34518293E-37      0.97546311E-31      0.76803744E-44      0.51257700E-32      0.49368875E-44
    0.765782824651         0.28076868E-05      0.37372527E-24      0.19490844E-37      0.84925513E-31      0.44291089E-44      0.56588397E-32      0.49646887E-44
