 
 # Omega; pulse ft; projected flux at t=    500.250000000000     
    0.000000000000         0.61823026E-09      0.00000000E+00      0.00000000E+00      0.11547239E-07      0.00000000E+00
    0.006276908399         0.61747610E-09      0.20374596E+00      0.31105608E-14      0.11707850E-07      0.17874210E-21
    0.012553816798         0.61521579E-09      0.41438229E+00      0.17166819E-13      0.11862239E-07      0.49142283E-21
    0.018830725196         0.61145675E-09      0.63421397E+00     -0.27105088E-13      0.12029520E-07     -0.51411860E-21
    0.025107633595         0.60621417E-09      0.86444248E+00      0.57139529E-13      0.12191867E-07      0.80588071E-21
    0.031384541994         0.59951527E-09      0.11082390E+01      0.72854932E-13      0.12366070E-07      0.81293760E-21
    0.037661450393         0.59140524E-09      0.13667858E+01      0.36386640E-13      0.12537253E-07      0.33376738E-21
    0.043938358791         0.58195487E-09      0.16438997E+01      0.15429257E-12      0.12718462E-07      0.11937250E-20
    0.050215267190         0.57126980E-09      0.19411076E+01      0.72747678E-13      0.12899382E-07      0.48343537E-21
    0.056492175589         0.55950140E-09      0.22622441E+01      0.22084965E-12      0.13087785E-07      0.12776839E-20
    0.062769083988         0.54685933E-09      0.26093495E+01      0.10151556E-12      0.13279321E-07      0.51662599E-21
    0.069045992387         0.53362554E-09      0.29848625E+01      0.28060002E-12      0.13475232E-07      0.12667754E-20
    0.075322900785         0.52016993E-09      0.33907540E+01      0.50776508E-12      0.13678179E-07      0.20483060E-20
    0.081599809184         0.50696746E-09      0.38251779E+01      0.40716294E-12      0.13882139E-07      0.14776548E-20
    0.087876717583         0.49461670E-09      0.42876853E+01      0.25328719E-12      0.14097161E-07      0.83276408E-21
    0.094153625982         0.48385983E-09      0.47669774E+01     -0.20873086E-13      0.14309993E-07     -0.62658931E-22
    0.100430534380         0.47560399E-09      0.52553119E+01      0.32287175E-12      0.14537577E-07      0.89314827E-21
    0.106707442779         0.47094388E-09      0.57254494E+01      0.34736828E-12      0.14760390E-07      0.89552641E-21
    0.112984351178         0.47118573E-09      0.61578537E+01      0.66926689E-12      0.15000889E-07      0.16303730E-20
    0.119261259577         0.47787234E-09      0.65090494E+01      0.69325025E-12      0.15235050E-07      0.16226182E-20
    0.125538167976         0.49280933E-09      0.67546150E+01      0.60729056E-12      0.15488791E-07      0.13925586E-20
    0.131815076374         0.51809239E-09      0.68538171E+01      0.39180835E-13      0.15735786E-07      0.89955892E-22
    0.138091984773         0.55613556E-09      0.68026682E+01     -0.19892937E-12      0.16003143E-07     -0.46797743E-21
    0.144368893172         0.60970041E-09      0.65930238E+01     -0.70238606E-12      0.16264522E-07     -0.17327366E-20
    0.150645801571         0.68192607E-09      0.62574949E+01     -0.37156203E-12      0.16546059E-07     -0.98248377E-21
    0.156922709970         0.77635999E-09      0.58213246E+01     -0.59177242E-13      0.16823369E-07     -0.17101959E-21
    0.163199618368         0.89698941E-09      0.53323514E+01      0.10949828E-12      0.17119881E-07      0.35155176E-21
    0.169476526767         0.10482735E-08      0.48198663E+01      0.15522126E-12      0.17414613E-07      0.56082846E-21
    0.175753435166         0.12351757E-08      0.43181768E+01     -0.27176473E-12      0.17727158E-07     -0.11156599E-20
    0.182030343565         0.14631970E-08      0.38422233E+01     -0.28367486E-12      0.18040784E-07     -0.13319676E-20
    0.188307251963         0.17384091E-08      0.34066431E+01     -0.48168801E-12      0.18370686E-07     -0.25975539E-20
    0.194584160362         0.20674879E-08      0.30137088E+01     -0.44923914E-12      0.18704693E-07     -0.27882190E-20
    0.200861068761         0.24577476E-08      0.26657565E+01      0.87260236E-13      0.19053545E-07      0.62369418E-21
    0.207137977160         0.29171738E-08      0.23593776E+01     -0.88735763E-13      0.19409477E-07     -0.72998689E-21
    0.213414885559         0.34544578E-08      0.20918832E+01      0.11320501E-12      0.19779095E-07      0.10703717E-20
    0.219691793957         0.40790298E-08      0.18586792E+01      0.10014015E-12      0.20158642E-07      0.10860881E-20
    0.225968702356         0.48010926E-08      0.16558808E+01     -0.52652845E-14      0.20551080E-07     -0.65347268E-22
    0.232245610755         0.56316541E-08      0.14794767E+01     -0.10137895E-12      0.20956096E-07     -0.14359855E-20
    0.238522519154         0.65825603E-08      0.13258650E+01     -0.18652004E-13      0.21373644E-07     -0.30068015E-21
    0.244799427552         0.76665268E-08      0.11920053E+01      0.10415653E-12      0.21806213E-07      0.19054105E-20
    0.251076335951         0.88971707E-08      0.10749739E+01     -0.86955948E-13      0.22251427E-07     -0.17999450E-20
    0.257353244350         0.10289041E-07      0.97260185E+00      0.14123489E-12      0.22714027E-07      0.32983827E-20
    0.263630152749         0.11857647E-07      0.88262546E+00      0.11153032E-12      0.23189624E-07      0.29302873E-20
    0.269907061148         0.13619491E-07      0.80354228E+00      0.74648579E-13      0.23684770E-07      0.22003004E-20
    0.276183969546         0.15592091E-07      0.73364273E+00      0.58192717E-14      0.24193813E-07      0.19190590E-21
    0.282460877945         0.17794010E-07      0.67189743E+00     -0.46677001E-13      0.24724773E-07     -0.17176405E-20
    0.288737786344         0.20244883E-07      0.61701139E+00      0.53338807E-13      0.25270779E-07      0.21845840E-20
    0.295014694743         0.22965437E-07      0.56828422E+00     -0.15062110E-13      0.25841068E-07     -0.68490555E-21
    0.301291603141         0.25977515E-07      0.52473217E+00      0.11963160E-12      0.26427864E-07      0.60251836E-20
    0.307568511540         0.29304101E-07      0.48588172E+00     -0.26292256E-13      0.27041507E-07     -0.14632825E-20
    0.313845419939         0.32969333E-07      0.45097834E+00     -0.34792063E-13      0.27673484E-07     -0.21349532E-20
    0.320122328338         0.36998524E-07      0.41970257E+00     -0.27690229E-13      0.28335042E-07     -0.18694282E-20
    0.326399236737         0.41418179E-07      0.39147161E+00     -0.63363632E-13      0.29017230E-07     -0.46967315E-20
    0.332676145135         0.46256007E-07      0.36606788E+00     -0.33303342E-13      0.29731848E-07     -0.27048806E-20
    0.338953053534         0.51540931E-07      0.34304024E+00     -0.37846658E-13      0.30469939E-07     -0.33616620E-20
    0.345229961933         0.57303105E-07      0.32223882E+00      0.15083396E-13      0.31243619E-07      0.14624553E-20
    0.351506870332         0.63573913E-07      0.30331315E+00      0.23222692E-13      0.32044254E-07      0.24534177E-20
    0.357783778731         0.70385980E-07      0.28615616E+00      0.20565121E-13      0.32883832E-07      0.23632550E-20
    0.364060687129         0.77773174E-07      0.27049731E+00      0.16571832E-13      0.33754586E-07      0.20679515E-20
    0.370337595528         0.85770606E-07      0.25625608E+00     -0.57107447E-14      0.34667989E-07     -0.77258669E-21
    0.376614503927         0.94414629E-07      0.24322563E+00      0.19826745E-13      0.35617660E-07      0.29034040E-20
    0.382891412326         0.10374284E-06      0.23134093E+00      0.15888308E-14      0.36614134E-07      0.25146291E-21
    0.389168320724         0.11379405E-06      0.22044606E+00      0.24969934E-13      0.37652880E-07      0.42649432E-20
    0.395445229123         0.12460831E-06      0.21048523E+00     -0.35052620E-15      0.38743253E-07     -0.64520088E-22
    0.401722137522         0.13622687E-06      0.20134343E+00      0.13120661E-13      0.39883043E-07      0.25990015E-20
    0.407999045921         0.14869219E-06      0.19296933E+00      0.30696200E-14      0.41080063E-07      0.65347268E-21
    0.414275954320         0.16204789E-06      0.18528095E+00     -0.12518661E-13      0.42334870E-07     -0.28603906E-20
    0.420552862718         0.17633876E-06      0.17822970E+00      0.76865528E-14      0.43653701E-07      0.18826631E-20
    0.426829771117         0.19161071E-06      0.17175938E+00     -0.15015106E-14      0.45040099E-07     -0.39373797E-21
    0.433106679516         0.20791078E-06      0.16582311E+00      0.29262814E-14      0.46498719E-07      0.82056317E-21
    0.439383587915         0.22528707E-06      0.16038544E+00     -0.32644617E-14      0.48036482E-07     -0.97772748E-21
    0.445660496313         0.24378875E-06      0.15540136E+00      0.18741985E-14      0.49656731E-07      0.59887876E-21
    0.451937404712         0.26346597E-06      0.15085035E+00      0.54265458E-14      0.51369623E-07      0.18479215E-20
    0.458214313111         0.28436989E-06      0.14669649E+00     -0.14366015E-13      0.53180019E-07     -0.52079291E-20
    0.464491221510         0.30655259E-06      0.14292112E+00      0.29395418E-14      0.55098235E-07      0.11332374E-20
    0.470768129909         0.33006704E-06      0.13945742E+00      0.23630739E-14      0.57115045E-07      0.96780132E-21
    0.477045038307         0.35496707E-06      0.13635552E+00      0.20362995E-14      0.59267307E-07      0.88508326E-21
    0.483321946706         0.38130728E-06      0.13356713E+00     -0.24734161E-14      0.61553390E-07     -0.11398549E-20
    0.489598855105         0.40914305E-06      0.13108816E+00      0.10573928E-14      0.63989990E-07      0.51616070E-21
    0.495875763504         0.43853041E-06      0.12888809E+00     -0.12041416E-14      0.66581479E-07     -0.62203982E-21
    0.502152671902         0.46952606E-06      0.12697736E+00     -0.12527752E-13      0.69352802E-07     -0.68424380E-20
    0.508429580301         0.50218725E-06      0.12532623E+00     -0.16860055E-14      0.72308716E-07     -0.97276440E-21
    0.514706488700         0.53657174E-06      0.12394928E+00      0.25265700E-14      0.75478969E-07      0.15385559E-20
    0.520983397099         0.57273772E-06      0.12286855E+00     -0.23031496E-14      0.78901712E-07     -0.14789989E-20
    0.527260305498         0.61074378E-06      0.12203067E+00     -0.52567948E-14      0.82568953E-07     -0.35568766E-20
    0.533537213896         0.65064880E-06      0.12144390E+00      0.57130724E-15      0.86511018E-07      0.40697286E-21
    0.539814122295         0.69251188E-06      0.12112652E+00     -0.56957807E-14      0.90768685E-07     -0.42682520E-20
    0.546091030694         0.73639228E-06      0.12112611E+00     -0.79641730E-14      0.95410408E-07     -0.62733378E-20
    0.552367939093         0.78234932E-06      0.12137996E+00     -0.76864830E-14      0.10042296E-06     -0.63593645E-20
    0.558644847491         0.83044233E-06      0.12198285E+00     -0.35513115E-14      0.10592202E-06     -0.30837293E-20
    0.564921755890         0.88073054E-06      0.12281999E+00     -0.10005890E-13      0.11185042E-06     -0.91122216E-20
    0.571198664289         0.93327299E-06      0.12412931E+00     -0.77308969E-14      0.11847034E-06     -0.73784511E-20
    0.577475572688         0.98812849E-06      0.12564266E+00     -0.11208660E-13      0.12558296E-06     -0.11203334E-19
    0.583752481087         0.10453555E-05      0.12778682E+00     -0.48142200E-14      0.13367036E-06     -0.50358756E-20
    0.590029389485         0.11050119E-05      0.13006606E+00     -0.75612436E-15      0.14228893E-06     -0.82718061E-21
    0.596306297884         0.11671553E-05      0.13327928E+00     -0.54579429E-14      0.15238271E-06     -0.62402505E-20
    0.602583206283         0.12318424E-05      0.13638760E+00      0.13299939E-15      0.16286464E-06      0.15881868E-21
    0.608860114682         0.12991293E-05      0.14103406E+00     -0.57287929E-14      0.17578130E-06     -0.71402230E-20
    0.615137023081         0.13690713E-05      0.14468486E+00      0.11198117E-15      0.18810100E-06      0.14558379E-21
    0.621413931479         0.14417228E-05      0.15116216E+00     -0.43652916E-14      0.20486024E-06     -0.59159957E-20
    0.627690839878         0.15171371E-05      0.14982899E+00     -0.46776534E-14      0.21153814E-06     -0.66042100E-20
    0.633967748277         0.15953663E-05      0.81787545E-01     -0.42496707E-14      0.12022484E-06     -0.62468680E-20
    0.640244656676         0.16764615E-05      0.11175000E+00     -0.43004639E-14      0.17092633E-06     -0.65777402E-20
    0.646521565074         0.17604722E-05      0.19305384E+00     -0.22216295E-14      0.30707072E-06     -0.35337156E-20
    0.652798473473         0.18474468E-05      0.20612088E+00     -0.11192340E-13      0.34074429E-06     -0.18502376E-19
    0.659075381872         0.19374318E-05      0.23050398E+00     -0.67517958E-14      0.39580709E-06     -0.11593763E-19
    0.665352290271         0.20304724E-05      0.25292920E+00     -0.17640363E-13      0.45087712E-06     -0.31446098E-19
    0.671629198670         0.21266118E-05      0.29778011E+00     -0.20035764E-15      0.55076730E-06     -0.37057691E-21
    0.677906107068         0.22258916E-05      0.33197863E+00     -0.86116554E-14      0.63673452E-06     -0.16517142E-19
    0.684183015467         0.23283513E-05      0.44888638E+00     -0.44474060E-14      0.89233194E-06     -0.88409064E-20
    0.690459923866         0.24340282E-05      0.34885145E+00      0.38434441E-14      0.71835889E-06      0.79144641E-20
    0.696736832265         0.25429579E-05      0.74639749E+00     -0.18672994E-13      0.15913085E-05     -0.39810549E-19
    0.703013740663         0.26551734E-05      0.18843479E+01     -0.10942141E-13      0.41572292E-05     -0.24140439E-19
    0.709290649062         0.27707053E-05      0.49349307E+01     -0.21066203E-12      0.11260586E-04     -0.48069120E-18
    0.715567557461         0.28895822E-05      0.11153826E+02     -0.24489870E-12      0.26310075E-04     -0.57767647E-18
    0.721844465860         0.30118296E-05      0.14462039E+02     -0.84103701E-12      0.35247644E-04     -0.20498197E-17
    0.728121374259         0.31374707E-05      0.12634731E+02     -0.47449290E-12      0.31802093E-04     -0.11943165E-17
    0.734398282657         0.32665259E-05      0.12053475E+02     -0.89261769E-12      0.31317027E-04     -0.23191762E-17
    0.740675191056         0.33990128E-05      0.13841353E+02     -0.73244484E-12      0.37103712E-04     -0.19634224E-17
    0.746952099455         0.35349461E-05      0.14263084E+02     -0.45776971E-12      0.39429139E-04     -0.12654672E-17
    0.753229007854         0.36743374E-05      0.14350309E+02     -0.97798097E-12      0.40890935E-04     -0.27867384E-17
    0.759505916252         0.38171952E-05      0.14077079E+02      0.13675765E-12      0.41327540E-04      0.40149362E-18
    0.765782824651         0.39635250E-05      0.11754394E+02     -0.31490302E-12      0.35537757E-04     -0.95206503E-18
    0.772059733050         0.41133290E-05      0.11413366E+02     -0.69131769E-13      0.35519766E-04     -0.21514637E-18
    0.778336641449         0.42666060E-05      0.12857404E+02     -0.54810175E-12      0.41170122E-04     -0.17550523E-17
    0.784613549848         0.44233513E-05      0.13171193E+02     -0.28190412E-12      0.43374507E-04     -0.92834811E-18
    0.790890458246         0.45835571E-05      0.13164877E+02     -0.75962974E-12      0.44567362E-04     -0.25715920E-17
    0.797167366645         0.47472116E-05      0.13061575E+02     -0.48115429E-12      0.45435826E-04     -0.16737371E-17
    0.803444275044         0.49142998E-05      0.12859485E+02     -0.20388208E-12      0.45945528E-04     -0.72844833E-18
    0.809721183443         0.50848028E-05      0.12674766E+02     -0.66318138E-12      0.46493514E-04     -0.24326786E-17
    0.815998091842         0.52586980E-05      0.12403545E+02     -0.39331349E-12      0.46692672E-04     -0.14806136E-17
    0.822275000240         0.54359592E-05      0.12078343E+02     -0.82473656E-12      0.46642333E-04     -0.31848439E-17
    0.828551908639         0.56165561E-05      0.11671458E+02     -0.54932725E-12      0.46215676E-04     -0.21751806E-17
    0.834828817038         0.58004548E-05      0.11185178E+02     -0.92746159E-12      0.45396392E-04     -0.37642144E-17
    0.841105725437         0.59876175E-05      0.10677064E+02     -0.66323500E-12      0.44398583E-04     -0.27579393E-17
    0.847382633835         0.61780022E-05      0.10104198E+02     -0.98968816E-12      0.43031268E-04     -0.42148359E-17
    0.853659542234         0.63715632E-05      0.95496313E+01     -0.19738717E-12      0.41635300E-04     -0.86058547E-18
    0.859936450633         0.65682506E-05      0.89425000E+01      0.75938696E-15      0.39898458E-04      0.33881318E-20
    0.866213359032         0.67680107E-05      0.83621858E+01     -0.30510699E-12      0.38165396E-04     -0.13925222E-17
    0.872490267431         0.69707857E-05      0.77509307E+01     -0.11978689E-12      0.36173356E-04     -0.55904175E-18
    0.878767175829         0.71765137E-05      0.71645019E+01     -0.36648525E-12      0.34177437E-04     -0.17482760E-17
    0.885044084228         0.73851287E-05      0.65813878E+01     -0.19984403E-12      0.32079268E-04     -0.97408789E-18
    0.891320992627         0.75965609E-05      0.60124910E+01     -0.39778474E-12      0.29933061E-04     -0.19803630E-17
    0.897597901026         0.78107362E-05      0.54812156E+01     -0.25129144E-12      0.27861265E-04     -0.12773257E-17
    0.903874809424         0.80275766E-05      0.49381876E+01     -0.12408632E-12      0.25618728E-04     -0.64374504E-18
    0.910151717823         0.82470002E-05      0.44625169E+01     -0.27493336E-12      0.23619782E-04     -0.14552026E-17
    0.916428626222         0.84689209E-05      0.39182542E+01     -0.15942293E-12      0.21151241E-04     -0.86058547E-18
    0.922705534621         0.86932488E-05      0.34864025E+01     -0.26657254E-12      0.19187143E-04     -0.14670611E-17
    0.928982443020         0.89198899E-05      0.29598096E+01     -0.16446080E-12      0.16600821E-04     -0.92241888E-18
    0.935259351418         0.91487464E-05      0.34633521E+01     -0.31633801E-12      0.19789735E-04     -0.18075683E-17
    0.941536259817         0.93797169E-05      0.42898469E+01     -0.61134042E-13      0.24963661E-04     -0.35575384E-18
    0.947813168216         0.96126957E-05      0.35765294E+01     -0.18015013E-12      0.21188395E-04     -0.10672615E-17
    0.954090076615         0.98475739E-05      0.28856717E+01     -0.86542083E-13      0.17398051E-04     -0.52177230E-18
    0.960366985013         0.10084238E-04      0.25812056E+01     -0.23338198E-13      0.15832237E-04     -0.14314857E-18
    0.966643893412         0.10322573E-04      0.22477293E+01     -0.10129870E-12      0.14021009E-04     -0.63188658E-18
    0.972920801811         0.10562458E-04      0.20435453E+01     -0.49419771E-13      0.12959420E-04     -0.31340219E-18
    0.979197710210         0.10803769E-04      0.18168032E+01     -0.10908366E-12      0.11709183E-04     -0.70303735E-18
    0.985474618609         0.11046380E-04      0.16807055E+01     -0.66622234E-13      0.11004744E-04     -0.43622197E-18
    0.991751527007         0.11290161E-04      0.16000740E+01     -0.12113503E-12      0.10640233E-04     -0.80552833E-18
    0.998028435406         0.11534978E-04      0.20340347E+01     -0.11266499E-12      0.13732386E-04     -0.76063559E-18
    1.004305343805         0.11780695E-04      0.22149312E+01     -0.20211526E-12      0.15176764E-04     -0.13848989E-17
    1.010582252204         0.12027173E-04      0.15355639E+01     -0.10843878E-12      0.10675140E-04     -0.75385932E-18
    1.016859160602         0.12274269E-04      0.11154675E+01     -0.55800408E-13      0.78651238E-05     -0.39344680E-18
