 
 # Omega; pulse ft; proj flux t=    500.100000000000     
    0.000000000000         0.76130340E-13      0.00000000E+00      0.00000000E+00      0.00000000E+00      0.00000000E+00      0.00000000E+00      0.00000000E+00
    0.006280045285         0.34874077E-10      0.89841529E-03      0.93037795E-11      0.30921444E-12      0.32021527E-20      0.19418807E-14      0.20109664E-22
    0.012560090569         0.13937409E-09      0.20509939E-02      0.36751467E-11      0.14105754E-11      0.25275900E-20      0.10800358E-13      0.35983043E-22
    0.018840135854         0.31389481E-09     -0.20575979E-02     -0.22664884E-11     -0.21247278E-11     -0.23404333E-20     -0.25430284E-14      0.21285016E-22
    0.025120181138         0.55896774E-09     -0.17035429E-02     -0.23348236E-11     -0.23494149E-11     -0.32200360E-20     -0.17297460E-13      0.10630441E-23
    0.031400226423         0.87533792E-09     -0.14884085E-02     -0.18541599E-11     -0.25716258E-11     -0.32035597E-20     -0.33447387E-13     -0.19055456E-22
    0.037680271707         0.12639648E-08     -0.12541510E-02     -0.17776767E-11     -0.26074348E-11     -0.36958678E-20     -0.49822195E-13     -0.42265673E-22
    0.043960316992         0.17260235E-08     -0.10856231E-02     -0.14233184E-11     -0.26418470E-11     -0.34636232E-20     -0.66413114E-13     -0.64017384E-22
    0.050240362276         0.22629062E-08     -0.88321563E-03     -0.15118766E-11     -0.24656033E-11     -0.42205864E-20     -0.81897215E-13     -0.90522857E-22
    0.056520407561         0.28762236E-08     -0.72581117E-03     -0.11336943E-11     -0.22891997E-11     -0.35756580E-20     -0.96273493E-13     -0.11297815E-21
    0.062800452845         0.35678072E-08     -0.60372677E-03     -0.10599927E-11     -0.21257966E-11     -0.37323654E-20     -0.10962359E-12     -0.13641758E-21
    0.069080498130         0.43397112E-08     -0.50463500E-03     -0.80959372E-12     -0.19648320E-11     -0.31522102E-20     -0.12196283E-12     -0.15621360E-21
    0.075360543414         0.51942150E-08     -0.45889716E-03     -0.76143656E-12     -0.19603515E-11     -0.32527621E-20     -0.13427392E-12     -0.17664109E-21
    0.081640588699         0.61338257E-08     -0.41998034E-03     -0.71450143E-12     -0.19556761E-11     -0.33271400E-20     -0.14655566E-12     -0.19753568E-21
    0.087920633984         0.71612808E-08     -0.36612096E-03     -0.49530492E-12     -0.18482774E-11     -0.25004329E-20     -0.15816292E-12     -0.21323851E-21
    0.094200679268         0.82795515E-08     -0.31988345E-03     -0.88209971E-12     -0.17425579E-11     -0.48052184E-20     -0.16910626E-12     -0.24341550E-21
    0.100480724553         0.94918457E-08     -0.28841248E-03     -0.73290267E-12     -0.16885916E-11     -0.42909840E-20     -0.17971070E-12     -0.27036308E-21
    0.106760769837         0.10801611E-07     -0.26091739E-03     -0.59404951E-12     -0.16361479E-11     -0.37251362E-20     -0.18998578E-12     -0.29375710E-21
    0.113040815122         0.12212540E-07     -0.23465509E-03     -0.61364673E-12     -0.15712430E-11     -0.41089590E-20     -0.19985326E-12     -0.31956155E-21
    0.119320860406         0.13728570E-07     -0.21157395E-03     -0.56104814E-12     -0.15087378E-11     -0.40008449E-20     -0.20932820E-12     -0.34468704E-21
    0.125600905691         0.15353891E-07     -0.18818329E-03     -0.26286965E-12     -0.14257698E-11     -0.19916307E-20     -0.21828210E-12     -0.35719457E-21
    0.131880950975         0.17092949E-07     -0.16778477E-03     -0.29860126E-12     -0.13478146E-11     -0.23986630E-20     -0.22674643E-12     -0.37225828E-21
    0.138160996260         0.18950447E-07     -0.21005940E-03     -0.25891734E-12     -0.17857423E-11     -0.22010901E-20     -0.23796098E-12     -0.38608122E-21
    0.144441041544         0.20931352E-07     -0.24685559E-03     -0.25197133E-12     -0.22171359E-11     -0.22630830E-20     -0.25188469E-12     -0.40029349E-21
    0.150721086829         0.23040899E-07     -0.20211747E-03     -0.19145779E-12     -0.19150139E-11     -0.18140161E-20     -0.26391106E-12     -0.41168559E-21
    0.157001132113         0.25284593E-07     -0.16263176E-03     -0.24901303E-12     -0.16233091E-11     -0.24855238E-20     -0.27410552E-12     -0.42729479E-21
    0.163281177398         0.27668217E-07     -0.15515995E-03     -0.24943836E-12     -0.16295487E-11     -0.26196964E-20     -0.28433916E-12     -0.44374660E-21
    0.169561222683         0.30197832E-07     -0.14837509E-03     -0.30215404E-12     -0.16377699E-11     -0.33351879E-20     -0.29462443E-12     -0.46469174E-21
    0.175841267967         0.32879785E-07     -0.14394499E-03     -0.25603535E-12     -0.16681972E-11     -0.29672270E-20     -0.30510078E-12     -0.48332606E-21
    0.182121313252         0.35720711E-07     -0.13976005E-03     -0.21178173E-12     -0.16989674E-11     -0.25744858E-20     -0.31577037E-12     -0.49949394E-21
    0.188401358536         0.38727539E-07     -0.67956260E-04     -0.20664806E-12     -0.86578094E-12     -0.26327516E-20     -0.32120752E-12     -0.51602774E-21
    0.194681403821         0.41907495E-07     -0.40974736E-05     -0.16985850E-12     -0.54667104E-13     -0.22661945E-20     -0.32155083E-12     -0.53025955E-21
    0.200961449105         0.45268105E-07     -0.60824066E-04     -0.18245466E-12     -0.84917594E-12     -0.25472830E-20     -0.32688369E-12     -0.54625660E-21
    0.207241494390         0.48817202E-07     -0.11223217E-03     -0.17291070E-12     -0.16385368E-11     -0.25244148E-20     -0.33717378E-12     -0.56211004E-21
    0.213521539674         0.52562928E-07     -0.11060471E-03     -0.16254493E-12     -0.16875403E-11     -0.24800130E-20     -0.34777161E-12     -0.57768463E-21
    0.219801584959         0.56513737E-07     -0.10953891E-03     -0.19978503E-12     -0.17455581E-11     -0.31836758E-20     -0.35873379E-12     -0.59767826E-21
    0.226081630243         0.60678401E-07     -0.10648469E-03     -0.18492067E-12     -0.17713268E-11     -0.30760755E-20     -0.36985780E-12     -0.61699615E-21
    0.232361675528         0.65066012E-07     -0.10428179E-03     -0.19923843E-12     -0.18098427E-11     -0.34578446E-20     -0.38122370E-12     -0.63871157E-21
    0.238641720812         0.69685984E-07     -0.10377651E-03     -0.17451470E-12     -0.18781955E-11     -0.31584482E-20     -0.39301885E-12     -0.65854677E-21
    0.244921766097         0.74548059E-07     -0.10400126E-03     -0.16725092E-12     -0.19619603E-11     -0.31551511E-20     -0.40534005E-12     -0.67836126E-21
    0.251201811381         0.79662308E-07     -0.97709466E-04     -0.16110005E-12     -0.19204784E-11     -0.31664196E-20     -0.41740074E-12     -0.69824652E-21
    0.257481856666         0.85039131E-07     -0.92811250E-04     -0.16127851E-12     -0.18998332E-11     -0.33013484E-20     -0.42933178E-12     -0.71897914E-21
    0.263761901951         0.90689267E-07     -0.84431502E-04     -0.15497047E-12     -0.17992480E-11     -0.33024439E-20     -0.44063114E-12     -0.73971864E-21
    0.270041947235         0.96623785E-07     -0.78179637E-04     -0.14473546E-12     -0.17337606E-11     -0.32097443E-20     -0.45151923E-12     -0.75987598E-21
    0.276321992520         0.10285409E-06     -0.62564142E-04     -0.13091678E-12     -0.14433588E-11     -0.30202587E-20     -0.46058359E-12     -0.77884334E-21
    0.282602037804         0.10939194E-06     -0.50749630E-04     -0.12663127E-12     -0.12175467E-11     -0.30380414E-20     -0.46822984E-12     -0.79792238E-21
    0.288882083089         0.11624942E-06     -0.23470648E-04     -0.11939778E-12     -0.58538008E-12     -0.29778932E-20     -0.47190606E-12     -0.81662368E-21
    0.295162128373         0.12343895E-06     -0.38652513E-05     -0.11145784E-12     -0.10018714E-12     -0.28889822E-20     -0.47253523E-12     -0.83476662E-21
    0.301442173658         0.13097330E-06      0.56134210E-04     -0.10719511E-12      0.15116424E-11     -0.28866652E-20     -0.46304205E-12     -0.85289501E-21
    0.307722218942         0.13886558E-06      0.90195619E-04     -0.10698635E-12      0.25226899E-11     -0.29923114E-20     -0.44719945E-12     -0.87168686E-21
    0.314002264227         0.14712923E-06      0.53627565E-03     -0.10214526E-12      0.15573884E-10     -0.29663820E-20     -0.34939475E-12     -0.89031587E-21
    0.320282309511         0.15577804E-06      0.15011678E-02     -0.98120580E-13      0.45252773E-10     -0.29578494E-20     -0.65205284E-13     -0.90889130E-21
    0.326562354796         0.16482612E-06      0.93805800E-03     -0.94156580E-13      0.29344876E-10     -0.29454610E-20      0.11908187E-12     -0.92738893E-21
    0.332842400080         0.17428793E-06     -0.46952409E-03     -0.93194140E-13     -0.15238044E-10     -0.30245443E-20      0.23386261E-13     -0.94638320E-21
    0.339122445365         0.18417826E-06     -0.60716729E-03     -0.90193089E-13     -0.20437740E-10     -0.30359720E-20     -0.10496367E-12     -0.96544924E-21
    0.345402490650         0.19451221E-06     -0.38488633E-03     -0.87892668E-13     -0.13433729E-10     -0.30677272E-20     -0.18932810E-12     -0.98471471E-21
    0.351682535934         0.20530523E-06     -0.34199879E-03     -0.85379182E-13     -0.12374181E-10     -0.30891847E-20     -0.26703852E-12     -0.10041149E-20
    0.357962581219         0.21657306E-06     -0.29153404E-03     -0.79765676E-13     -0.10931978E-10     -0.29910629E-20     -0.33569183E-12     -0.10228989E-20
    0.364242626503         0.22833179E-06     -0.26367152E-03     -0.77047241E-13     -0.10244282E-10     -0.29934732E-20     -0.40002639E-12     -0.10416981E-20
    0.370522671788         0.24059779E-06     -0.23599542E-03     -0.72246377E-13     -0.94978017E-11     -0.29076062E-20     -0.45967301E-12     -0.10599580E-20
    0.376802717072         0.25338774E-06     -0.22500027E-03     -0.66574724E-13     -0.93777206E-11     -0.27747485E-20     -0.51856552E-12     -0.10773835E-20
    0.383082762357         0.26671863E-06     -0.21429029E-03     -0.62788569E-13     -0.92471075E-11     -0.27094679E-20     -0.57663777E-12     -0.10943991E-20
    0.389362807641         0.28060773E-06     -0.20073316E-03     -0.62282139E-13     -0.89661696E-11     -0.27819630E-20     -0.63294573E-12     -0.11118700E-20
    0.395642852926         0.29507259E-06     -0.18862113E-03     -0.60756035E-13     -0.87188372E-11     -0.28083914E-20     -0.68770042E-12     -0.11295068E-20
    0.401922898210         0.31013104E-06     -0.17642164E-03     -0.58433534E-13     -0.84371740E-11     -0.27945206E-20     -0.74068625E-12     -0.11470565E-20
    0.408202943495         0.32580116E-06     -0.16578687E-03     -0.55796200E-13     -0.82010470E-11     -0.27600935E-20     -0.79218920E-12     -0.11643900E-20
    0.414482988779         0.34210131E-06     -0.14927612E-03     -0.56732711E-13     -0.76362656E-11     -0.29021793E-20     -0.84014529E-12     -0.11826158E-20
    0.420763034064         0.35905007E-06     -0.13452976E-03     -0.54832906E-13     -0.71150587E-11     -0.29000225E-20     -0.88482818E-12     -0.12008281E-20
    0.427043079349         0.37666626E-06     -0.10695954E-03     -0.52776386E-13     -0.58471904E-11     -0.28851431E-20     -0.92154880E-12     -0.12189469E-20
    0.433323124633         0.39496893E-06     -0.80799485E-04     -0.52031207E-13     -0.45645959E-11     -0.29393929E-20     -0.95021467E-12     -0.12374065E-20
    0.439603169918         0.41397733E-06     -0.17646784E-04     -0.52295252E-13     -0.10299686E-11     -0.30522541E-20     -0.95668292E-12     -0.12565748E-20
    0.445883215202         0.43371092E-06      0.48139297E-04     -0.50382915E-13      0.29021620E-11     -0.30374224E-20     -0.93845721E-12     -0.12756499E-20
    0.452163260487         0.45418931E-06      0.30822422E-03     -0.47715293E-13      0.19188944E-10     -0.29705845E-20     -0.81794978E-12     -0.12943053E-20
    0.458443305771         0.47543232E-06      0.72945516E-03     -0.46732107E-13      0.46886125E-10     -0.30037315E-20     -0.52350279E-12     -0.13131689E-20
    0.464723351056         0.49745989E-06     -0.38157333E-03     -0.45353703E-13     -0.25315369E-10     -0.30089779E-20     -0.68248445E-12     -0.13320654E-20
    0.471003396340         0.52029212E-06     -0.18702983E-02     -0.44918531E-13     -0.12804917E-09     -0.30753279E-20     -0.14866390E-11     -0.13513786E-20
    0.477283441625         0.54394922E-06     -0.14972609E-02     -0.42073738E-13     -0.10576017E-09     -0.29719107E-20     -0.21508177E-11     -0.13700423E-20
    0.483563486909         0.56845152E-06     -0.88729019E-03     -0.38997390E-13     -0.64646986E-10     -0.28413069E-20     -0.25568037E-11     -0.13878859E-20
    0.489843532194         0.59381941E-06     -0.79061286E-03     -0.38544886E-13     -0.59402341E-10     -0.28960526E-20     -0.29298531E-11     -0.14060732E-20
    0.496123577478         0.62007337E-06     -0.71296444E-03     -0.39844806E-13     -0.55228565E-10     -0.30865094E-20     -0.32766910E-11     -0.14254566E-20
    0.502403622763         0.64723393E-06     -0.68449399E-03     -0.36673706E-13     -0.54653859E-10     -0.29282354E-20     -0.36199197E-11     -0.14438461E-20
    0.508683668048         0.67532166E-06     -0.51258733E-03     -0.34525223E-13     -0.42176781E-10     -0.28408091E-20     -0.38847918E-11     -0.14616865E-20
    0.514963713332         0.70435711E-06     -0.22720146E-03     -0.32209002E-13     -0.19260611E-10     -0.27304625E-20     -0.40057493E-11     -0.14788339E-20
    0.521243758617         0.73436086E-06     -0.45626463E-03     -0.30771688E-13     -0.39840807E-10     -0.26869690E-20     -0.42559514E-11     -0.14957082E-20
    0.527523803901         0.76535344E-06     -0.92837787E-03     -0.35259855E-13     -0.83480960E-10     -0.31706126E-20     -0.47802156E-11     -0.15156198E-20
    0.533803849186         0.79735534E-06     -0.89593457E-03     -0.30570119E-13     -0.82944802E-10     -0.28301537E-20     -0.53011127E-11     -0.15333933E-20
    0.540083894470         0.83038696E-06     -0.69499040E-03     -0.29768091E-13     -0.66227868E-10     -0.28366971E-20     -0.57170267E-11     -0.15512079E-20
    0.546363939755         0.86446862E-06     -0.83348547E-03     -0.28379359E-13     -0.81734971E-10     -0.27829952E-20     -0.62303260E-11     -0.15686852E-20
    0.552643985039         0.89962053E-06     -0.10807715E-02     -0.27369549E-13     -0.10904116E-09     -0.27613676E-20     -0.69151095E-11     -0.15860267E-20
    0.558924030324         0.93586274E-06     -0.11530687E-02     -0.29153632E-13     -0.11966227E-09     -0.30254830E-20     -0.76665939E-11     -0.16050269E-20
    0.565204075608         0.97321515E-06     -0.12730876E-02     -0.27183197E-13     -0.13586404E-09     -0.29009936E-20     -0.85198263E-11     -0.16232453E-20
    0.571484120893         0.10116975E-05     -0.15622030E-02     -0.27387170E-13     -0.17140624E-09     -0.30049436E-20     -0.95962653E-11     -0.16421164E-20
    0.577764166177         0.10513292E-05     -0.18395177E-02     -0.26373575E-13     -0.20746019E-09     -0.29744028E-20     -0.10899125E-10     -0.16607958E-20
    0.584044211462         0.10921295E-05     -0.21905150E-02     -0.25334199E-13     -0.25387348E-09     -0.29361503E-20     -0.12493462E-10     -0.16792350E-20
    0.590324256747         0.11341175E-05     -0.27254867E-02     -0.25862965E-13     -0.32452950E-09     -0.30795582E-20     -0.14531522E-10     -0.16985747E-20
    0.596604302031         0.11773119E-05     -0.34859596E-02     -0.23637082E-13     -0.42635383E-09     -0.28909574E-20     -0.17209043E-10     -0.17167301E-20
    0.602884347316         0.12217310E-05     -0.45721348E-02     -0.22632191E-13     -0.57425300E-09     -0.28425678E-20     -0.20815378E-10     -0.17345815E-20
    0.609164392600         0.12673928E-05     -0.64289623E-02     -0.21465816E-13     -0.82901098E-09     -0.27680046E-20     -0.26021604E-10     -0.17519647E-20
    0.615444437885         0.13143151E-05     -0.95055596E-02     -0.21775839E-13     -0.12581459E-08     -0.28822274E-20     -0.33922818E-10     -0.17700653E-20
    0.621724483169         0.13625152E-05     -0.15341350E-01     -0.21945688E-13     -0.20837693E-08     -0.29808167E-20     -0.47008983E-10     -0.17887849E-20
    0.628004528454         0.14120099E-05     -0.41950881E-01     -0.19266136E-13     -0.58459987E-08     -0.26848019E-20     -0.83722120E-10     -0.18056456E-20
    0.634284573738         0.14628155E-05     -0.11985157E-01     -0.18836154E-13     -0.17131360E-08     -0.26924047E-20     -0.94480691E-10     -0.18225540E-20
    0.640564619023         0.15149482E-05      0.72734111E-01     -0.25629260E-13      0.10661435E-07     -0.37567611E-20     -0.27526399E-10     -0.18461467E-20
    0.646844664307         0.15684233E-05      0.74384392E-01     -0.22752894E-13      0.11178609E-07     -0.34193424E-20      0.42675773E-10     -0.18676203E-20
    0.653124709592         0.16232557E-05      0.40544794E-01     -0.22350739E-13      0.62455198E-08     -0.34429077E-20      0.81897920E-10     -0.18892419E-20
    0.659404754876         0.16794598E-05      0.37813095E-01     -0.21412665E-13      0.59690116E-08     -0.33801108E-20      0.11938358E-09     -0.19104691E-20
    0.665684800161         0.17370493E-05      0.28768720E-01     -0.20530769E-13      0.46527179E-08     -0.33204075E-20      0.14860286E-09     -0.19313215E-20
    0.671964845445         0.17960375E-05      0.77235296E-01     -0.26357369E-13      0.12794618E-07     -0.43663000E-20      0.22895365E-09     -0.19587420E-20
    0.678244890730         0.18564368E-05      0.23161149E+00     -0.31116104E-13      0.39291303E-07     -0.52786337E-20      0.47570480E-09     -0.19918921E-20
    0.684524936015         0.19182592E-05      0.12523800E+01     -0.99738510E-13      0.21751880E-06     -0.17323018E-19      0.18417327E-08     -0.21006814E-20
    0.690804981299         0.19815157E-05      0.33869361E+01     -0.91279236E-13      0.60213205E-06     -0.16227691E-19      0.56231493E-08     -0.22025920E-20
    0.697085026584         0.20462170E-05      0.37627236E+01     -0.15148596E-12      0.68455906E-06     -0.27560113E-19      0.99222112E-08     -0.23756708E-20
    0.703365071868         0.21123726E-05      0.18965598E+01     -0.33043871E-14      0.35301971E-06     -0.61506825E-21      0.12139191E-07     -0.23795335E-20
    0.709645117153         0.21799915E-05      0.11124680E+01     -0.24383486E-13      0.21180870E-06     -0.46425015E-20      0.13469359E-07     -0.24086886E-20
    0.715925162437         0.22490820E-05      0.16601180E+01     -0.14580942E-12      0.32323567E-06     -0.28390034E-19      0.15499294E-07     -0.25869793E-20
    0.722205207722         0.23196512E-05      0.20714638E+01     -0.88797591E-13      0.41236529E-06     -0.17676893E-19      0.18088966E-07     -0.26979910E-20
    0.728485253006         0.23917059E-05      0.20982451E+01     -0.11863024E-12      0.42695873E-06     -0.24139323E-19      0.20770287E-07     -0.28495870E-20
    0.734765298291         0.24652514E-05      0.20174523E+01     -0.28078793E-13      0.41952566E-06     -0.58389356E-20      0.23404927E-07     -0.28862558E-20
    0.741045343575         0.25402927E-05      0.21278532E+01     -0.59049129E-13      0.45208834E-06     -0.12545707E-19      0.26244062E-07     -0.29650434E-20
    0.747325388860         0.26168335E-05      0.23547122E+01     -0.23088162E-12      0.51103055E-06     -0.50106999E-19      0.29453357E-07     -0.32797176E-20
    0.753605434144         0.26948767E-05      0.27444388E+01     -0.14864136E-12      0.60826258E-06     -0.32944067E-19      0.33273274E-07     -0.34866079E-20
    0.759885479429         0.27744242E-05      0.29639356E+01     -0.20035310E-12      0.67071211E-06     -0.45338113E-19      0.37485376E-07     -0.37713333E-20
    0.766165524714         0.28554769E-05      0.24763372E+01     -0.63795719E-13      0.57201644E-06     -0.14736361E-19      0.41077665E-07     -0.38638783E-20
