 
 # eight columns.
 # Omega (column 1); |pulse ft|^2 (2); cross section (Mb) (3); flux (5); flux in
 tegral domega (7)
 
  0.0000      0.237334E-09      0.000000E+00      0.000000E+00      0.986228E-07      0.309379E-16      0.492621E-10      0.154535E-19
  0.0063      0.268472E-09      0.270294E+01      0.928583E-09      0.900414E-07      0.309333E-16      0.942378E-10      0.309047E-19
  0.0126      0.361985E-09      0.355789E+01      0.137774E-08      0.799023E-07      0.309409E-16      0.134149E-09      0.463597E-19
  0.0188      0.518176E-09      0.366592E+01      0.144419E-08      0.785679E-07      0.309519E-16      0.173394E-09      0.618201E-19
  0.0251      0.737552E-09      0.344075E+01      0.135312E-08      0.787213E-07      0.309583E-16      0.212715E-09      0.772838E-19
  0.0314      0.102082E-08      0.312687E+01      0.122107E-08      0.792130E-07      0.309334E-16      0.252282E-09      0.927351E-19
  0.0377      0.136890E-08      0.282326E+01      0.109341E-08      0.799239E-07      0.309534E-16      0.292204E-09      0.108196E-18
  0.0439      0.178290E-08      0.255330E+01      0.979267E-09      0.806930E-07      0.309482E-16      0.332510E-09      0.123655E-18
  0.0502      0.226414E-08      0.232204E+01      0.880927E-09      0.815436E-07      0.309358E-16      0.373241E-09      0.139107E-18
  0.0565      0.281418E-08      0.212422E+01      0.797427E-09      0.824167E-07      0.309390E-16      0.414409E-09      0.154561E-18
  0.0628      0.343474E-08      0.195534E+01      0.725984E-09      0.833343E-07      0.309405E-16      0.456034E-09      0.170016E-18
  0.0690      0.412779E-08      0.180971E+01      0.664812E-09      0.842639E-07      0.309549E-16      0.498124E-09      0.185478E-18
  0.0753      0.489549E-08      0.168423E+01      0.611065E-09      0.852557E-07      0.309321E-16      0.540709E-09      0.200929E-18
  0.0816      0.574024E-08      0.157441E+01      0.564817E-09      0.862603E-07      0.309458E-16      0.583796E-09      0.216386E-18
  0.0879      0.666466E-08      0.147771E+01      0.523787E-09      0.872865E-07      0.309393E-16      0.627396E-09      0.231841E-18
  0.0942      0.767157E-08      0.139193E+01      0.487406E-09      0.883318E-07      0.309308E-16      0.671518E-09      0.247290E-18
  0.1004      0.876404E-08      0.131555E+01      0.455097E-09      0.894127E-07      0.309310E-16      0.716179E-09      0.262741E-18
  0.1067      0.994536E-08      0.124687E+01      0.426362E-09      0.905104E-07      0.309497E-16      0.761389E-09      0.278200E-18
  0.1130      0.112191E-07      0.118503E+01      0.400181E-09      0.916476E-07      0.309490E-16      0.807167E-09      0.293659E-18
  0.1193      0.125889E-07      0.112879E+01      0.376227E-09      0.928016E-07      0.309308E-16      0.853522E-09      0.309109E-18
  0.1255      0.140589E-07      0.107769E+01      0.354766E-09      0.939994E-07      0.309436E-16      0.900475E-09      0.324565E-18
  0.1318      0.156334E-07      0.103080E+01      0.334925E-09      0.952166E-07      0.309377E-16      0.948035E-09      0.340019E-18
  0.1381      0.173167E-07      0.987779E+00      0.316658E-09      0.964739E-07      0.309272E-16      0.996224E-09      0.355467E-18
  0.1444      0.191138E-07      0.948010E+00      0.300058E-09      0.977549E-07      0.309407E-16      0.104505E-08      0.370922E-18
  0.1506      0.210295E-07      0.911242E+00      0.284682E-09      0.990738E-07      0.309517E-16      0.109454E-08      0.386382E-18
  0.1569      0.230693E-07      0.877028E+00      0.270360E-09      0.100419E-06      0.309559E-16      0.114470E-08      0.401845E-18
  0.1632      0.252386E-07      0.845280E+00      0.256771E-09      0.101812E-06      0.309274E-16      0.119555E-08      0.417293E-18
  0.1695      0.275433E-07      0.815567E+00      0.244550E-09      0.103233E-06      0.309547E-16      0.124712E-08      0.432755E-18
  0.1758      0.299895E-07      0.787831E+00      0.232740E-09      0.104701E-06      0.309306E-16      0.129942E-08      0.448205E-18
  0.1820      0.325836E-07      0.761754E+00      0.221787E-09      0.106199E-06      0.309202E-16      0.135246E-08      0.463649E-18
  0.1883      0.353322E-07      0.737359E+00      0.211565E-09      0.107754E-06      0.309171E-16      0.140629E-08      0.479092E-18
  0.1946      0.382423E-07      0.714337E+00      0.202136E-09      0.109343E-06      0.309410E-16      0.146090E-08      0.494547E-18
  0.2009      0.413213E-07      0.692682E+00      0.193136E-09      0.110985E-06      0.309453E-16      0.151634E-08      0.510005E-18
  0.2071      0.445766E-07      0.672196E+00      0.184428E-09      0.112667E-06      0.309121E-16      0.157262E-08      0.525445E-18
  0.2134      0.480162E-07      0.652893E+00      0.176586E-09      0.114408E-06      0.309437E-16      0.162977E-08      0.540902E-18
  0.2197      0.516482E-07      0.634579E+00      0.169040E-09      0.116193E-06      0.309515E-16      0.168780E-08      0.556362E-18
  0.2260      0.554811E-07      0.617294E+00      0.161828E-09      0.118043E-06      0.309459E-16      0.174677E-08      0.571819E-18
  0.2322      0.595238E-07      0.600865E+00      0.155013E-09      0.119942E-06      0.309431E-16      0.180668E-08      0.587275E-18
  0.2385      0.637853E-07      0.585327E+00      0.148636E-09      0.121911E-06      0.309577E-16      0.186757E-08      0.602739E-18
  0.2448      0.682751E-07      0.570540E+00      0.142487E-09      0.123934E-06      0.309513E-16      0.192948E-08      0.618199E-18
  0.2511      0.730031E-07      0.556544E+00      0.136608E-09      0.126034E-06      0.309360E-16      0.199243E-08      0.633652E-18
  0.2574      0.779793E-07      0.543212E+00      0.131228E-09      0.128195E-06      0.309691E-16      0.205647E-08      0.649121E-18
  0.2636      0.832142E-07      0.530589E+00      0.125862E-09      0.130441E-06      0.309420E-16      0.212162E-08      0.664576E-18
  0.2699      0.887186E-07      0.518557E+00      0.120794E-09      0.132755E-06      0.309241E-16      0.218793E-08      0.680023E-18
  0.2762      0.945035E-07      0.507169E+00      0.116086E-09      0.135162E-06      0.309373E-16      0.225545E-08      0.695476E-18
  0.2825      0.100581E-06      0.496308E+00      0.111558E-09      0.137645E-06      0.309393E-16      0.232420E-08      0.710930E-18
  0.2887      0.106962E-06      0.486062E+00      0.107292E-09      0.140239E-06      0.309560E-16      0.239425E-08      0.726393E-18
  0.2950      0.113659E-06      0.476287E+00      0.103072E-09      0.142916E-06      0.309281E-16      0.246563E-08      0.741841E-18
  0.3013      0.120684E-06      0.467076E+00      0.992416E-10      0.145715E-06      0.309606E-16      0.253842E-08      0.757306E-18
  0.3076      0.128051E-06      0.458291E+00      0.954355E-10      0.148605E-06      0.309460E-16      0.261265E-08      0.772764E-18
  0.3138      0.135773E-06      0.450066E+00      0.917801E-10      0.151644E-06      0.309241E-16      0.268839E-08      0.788210E-18
  0.3201      0.143862E-06      0.442219E+00      0.883740E-10      0.154782E-06      0.309320E-16      0.276571E-08      0.803661E-18
  0.3264      0.152334E-06      0.434920E+00      0.851209E-10      0.158092E-06      0.309411E-16      0.284467E-08      0.819116E-18
  0.3327      0.161201E-06      0.427948E+00      0.819953E-10      0.161507E-06      0.309449E-16      0.292535E-08      0.834573E-18
  0.3390      0.170480E-06      0.421570E+00      0.789299E-10      0.165142E-06      0.309192E-16      0.300784E-08      0.850017E-18
  0.3452      0.180184E-06      0.415449E+00      0.761735E-10      0.168880E-06      0.309645E-16      0.309219E-08      0.865484E-18
  0.3515      0.190329E-06      0.409989E+00      0.733713E-10      0.172900E-06      0.309421E-16      0.317855E-08      0.880939E-18
  0.3578      0.200931E-06      0.404664E+00      0.707137E-10      0.177000E-06      0.309301E-16      0.326697E-08      0.896389E-18
  0.3641      0.212004E-06      0.400253E+00      0.681939E-10      0.181534E-06      0.309292E-16      0.335764E-08      0.911838E-18
  0.3703      0.223567E-06      0.395636E+00      0.657969E-10      0.186019E-06      0.309362E-16      0.345056E-08      0.927291E-18
  0.3766      0.235634E-06      0.392856E+00      0.635152E-10      0.191437E-06      0.309507E-16      0.354618E-08      0.942751E-18
  0.3829      0.248223E-06      0.385020E+00      0.612290E-10      0.194403E-06      0.309155E-16      0.364329E-08      0.958193E-18
  0.3892      0.261351E-06      0.376695E+00      0.591735E-10      0.197028E-06      0.309504E-16      0.374170E-08      0.973653E-18
  0.3954      0.275036E-06      0.378512E+00      0.571002E-10      0.205038E-06      0.309309E-16      0.384412E-08      0.989103E-18
  0.4017      0.289294E-06      0.379342E+00      0.551452E-10      0.212764E-06      0.309296E-16      0.395039E-08      0.100455E-17
  0.4080      0.304145E-06      0.377711E+00      0.532842E-10      0.219298E-06      0.309366E-16      0.405993E-08      0.102001E-17
  0.4143      0.319606E-06      0.377634E+00      0.514782E-10      0.226908E-06      0.309315E-16      0.417327E-08      0.103546E-17
  0.4206      0.335697E-06      0.376983E+00      0.497876E-10      0.234369E-06      0.309528E-16      0.429034E-08      0.105092E-17
  0.4268      0.352435E-06      0.378258E+00      0.480859E-10      0.243256E-06      0.309239E-16      0.441185E-08      0.106636E-17
  0.4331      0.369839E-06      0.378701E+00      0.465359E-10      0.251864E-06      0.309499E-16      0.453765E-08      0.108182E-17
  0.4394      0.387930E-06      0.382180E+00      0.449784E-10      0.262803E-06      0.309291E-16      0.466893E-08      0.109727E-17
  0.4457      0.406726E-06      0.383652E+00      0.435099E-10      0.272702E-06      0.309271E-16      0.480514E-08      0.111272E-17
  0.4519      0.426248E-06      0.390938E+00      0.421021E-10      0.287174E-06      0.309272E-16      0.494858E-08      0.112817E-17
  0.4582      0.446515E-06      0.392502E+00      0.407597E-10      0.297893E-06      0.309351E-16      0.509738E-08      0.114362E-17
  0.4645      0.467546E-06      0.409294E+00      0.394698E-10      0.320874E-06      0.309432E-16      0.525766E-08      0.115908E-17
  0.4708      0.489364E-06      0.402984E+00      0.382024E-10      0.326261E-06      0.309291E-16      0.542063E-08      0.117452E-17
  0.4770      0.511987E-06      0.536664E+00      0.370266E-10      0.448595E-06      0.309504E-16      0.564470E-08      0.118998E-17
  0.4833      0.535436E-06      0.688533E+00      0.358342E-10      0.594085E-06      0.309187E-16      0.594144E-08      0.120543E-17
  0.4896      0.559732E-06      0.573176E+00      0.347221E-10      0.510364E-06      0.309170E-16      0.619637E-08      0.122087E-17
  0.4959      0.584895E-06      0.543396E+00      0.336538E-10      0.499200E-06      0.309166E-16      0.644572E-08      0.123631E-17
  0.5022      0.610947E-06      0.627430E+00      0.326202E-10      0.594546E-06      0.309106E-16      0.674270E-08      0.125175E-17
  0.5084      0.637908E-06      0.747354E+00      0.316700E-10      0.730309E-06      0.309477E-16      0.710749E-08      0.126721E-17
  0.5147      0.665800E-06      0.149696E+01      0.306931E-10      0.150815E-05      0.309227E-16      0.786081E-08      0.128266E-17
  0.5210      0.694642E-06      0.372416E+01      0.296679E-10      0.386739E-05      0.308089E-16      0.979257E-08      0.129805E-17
  0.5273      0.724456E-06      0.463667E+01      0.288350E-10      0.496187E-05      0.308574E-16      0.122710E-07      0.131346E-17
  0.5335      0.755263E-06      0.363715E+01      0.280647E-10      0.401002E-05      0.309419E-16      0.142740E-07      0.132892E-17
  0.5398      0.787084E-06      0.389540E+01      0.271047E-10      0.442365E-05      0.307803E-16      0.164837E-07      0.134429E-17
  0.5461      0.819939E-06      0.501636E+01      0.263859E-10      0.586622E-05      0.308561E-16      0.194138E-07      0.135970E-17
  0.5524      0.853850E-06      0.618478E+01      0.254062E-10      0.744611E-05      0.305876E-16      0.231332E-07      0.137498E-17
  0.5586      0.888836E-06      0.718002E+01      0.247451E-10      0.889741E-05      0.306639E-16      0.275774E-07      0.139030E-17
  0.5649      0.924918E-06      0.796249E+01      0.237540E-10      0.101535E-04      0.302903E-16      0.326491E-07      0.140543E-17
  0.5712      0.962117E-06      0.972458E+01      0.231532E-10      0.127575E-04      0.303742E-16      0.390215E-07      0.142060E-17
  0.5775      0.100045E-05      0.127035E+02      0.219065E-10      0.171411E-04      0.295589E-16      0.475834E-07      0.143537E-17
  0.5838      0.103995E-05      0.206075E+02      0.222346E-10      0.285930E-04      0.308506E-16      0.618657E-07      0.145078E-17
  0.5900      0.108061E-05      0.362518E+02      0.223298E-10      0.517106E-04      0.318518E-16      0.876951E-07      0.146669E-17
  0.5963      0.112248E-05      0.382108E+02      0.204107E-10      0.560205E-04      0.299240E-16      0.115677E-06      0.148163E-17
  0.6026      0.116556E-05      0.195297E+02      0.205660E-10      0.294215E-04      0.309828E-16      0.130373E-06      0.149711E-17
  0.6089      0.120987E-05      0.604293E+01      0.198005E-10      0.935237E-05      0.306444E-16      0.135045E-06      0.151242E-17
  0.6151      0.125544E-05      0.348572E+01      0.194246E-10      0.554074E-05      0.308765E-16      0.137813E-06      0.152784E-17
  0.6214      0.130227E-05      0.293450E+01      0.188152E-10      0.478970E-05      0.307102E-16      0.140205E-06      0.154318E-17
  0.6277      0.135040E-05      0.299263E+01      0.183804E-10      0.501444E-05      0.307981E-16      0.142710E-06      0.155856E-17
  0.6340      0.139983E-05      0.385835E+01      0.177471E-10      0.663532E-05      0.305203E-16      0.146024E-06      0.157381E-17
  0.6402      0.145058E-05      0.484462E+01      0.173380E-10      0.854886E-05      0.305948E-16      0.150294E-06      0.158909E-17
  0.6465      0.150267E-05      0.599397E+01      0.169560E-10      0.108505E-04      0.306944E-16      0.155714E-06      0.160442E-17
  0.6528      0.155612E-05      0.575527E+01      0.163392E-10      0.106852E-04      0.303352E-16      0.161051E-06      0.161957E-17
  0.6591      0.161094E-05      0.876249E+01      0.159201E-10      0.166810E-04      0.303068E-16      0.169384E-06      0.163471E-17
  0.6654      0.166714E-05      0.144336E+02      0.147799E-10      0.281675E-04      0.288432E-16      0.183453E-06      0.164912E-17
  0.6716      0.172474E-05      0.115516E+02      0.155073E-10      0.231041E-04      0.310158E-16      0.194994E-06      0.166461E-17
  0.6779      0.178376E-05      0.620191E+01      0.148976E-10      0.127099E-04      0.305305E-16      0.201342E-06      0.167986E-17
  0.6842      0.184420E-05      0.687241E+01      0.146634E-10      0.144277E-04      0.307837E-16      0.208549E-06      0.169524E-17
  0.6905      0.190608E-05      0.129268E+02      0.144928E-10      0.277936E-04      0.311606E-16      0.222432E-06      0.171080E-17
  0.6967      0.196941E-05      0.200455E+02      0.135110E-10      0.441302E-04      0.297444E-16      0.244475E-06      0.172566E-17
  0.7030      0.203420E-05      0.201341E+02      0.135946E-10      0.453749E-04      0.306372E-16      0.267140E-06      0.174096E-17
  0.7093      0.210046E-05      0.172581E+02      0.126744E-10      0.398049E-04      0.292328E-16      0.287022E-06      0.175556E-17
  0.7156      0.216821E-05      0.172784E+02      0.127352E-10      0.407762E-04      0.300544E-16      0.307390E-06      0.177058E-17
  0.7218      0.223744E-05      0.185878E+02      0.117378E-10      0.448734E-04      0.283366E-16      0.329804E-06      0.178473E-17
  0.7281      0.230817E-05      0.196653E+02      0.118002E-10      0.485531E-04      0.291345E-16      0.354057E-06      0.179928E-17
  0.7344      0.238041E-05      0.198456E+02      0.107892E-10      0.500998E-04      0.272372E-16      0.379082E-06      0.181289E-17
  0.7407      0.245416E-05      0.197100E+02      0.109575E-10      0.508645E-04      0.282773E-16      0.404488E-06      0.182701E-17
  0.7470      0.252942E-05      0.195378E+02      0.111031E-10      0.515296E-04      0.292836E-16      0.430227E-06      0.184164E-17
  0.7532      0.260620E-05      0.195260E+02      0.101486E-10      0.526195E-04      0.273490E-16      0.456511E-06      0.185530E-17
  0.7595      0.268451E-05      0.196591E+02      0.114338E-10      0.541191E-04      0.314757E-16      0.483543E-06      0.187102E-17
  0.7658      0.276434E-05      0.198478E+02      0.104771E-10      0.558022E-04      0.294564E-16      0.511417E-06      0.188574E-17
  0.7721      0.284570E-05      0.200374E+02      0.106646E-10      0.575218E-04      0.306152E-16      0.540149E-06      0.190103E-17
  0.7783      0.292859E-05      0.201658E+02      0.970015E-11      0.590961E-04      0.284264E-16      0.569667E-06      0.191523E-17
  0.7846      0.301301E-05      0.202494E+02      0.991450E-11      0.605631E-04      0.296529E-16      0.599919E-06      0.193004E-17
  0.7909      0.309895E-05      0.203008E+02      0.895950E-11      0.619531E-04      0.273422E-16      0.630864E-06      0.194370E-17
  0.7972      0.318641E-05      0.203399E+02      0.917996E-11      0.633218E-04      0.285789E-16      0.662494E-06      0.195797E-17
  0.8034      0.327539E-05      0.203946E+02      0.940959E-11      0.647553E-04      0.298765E-16      0.694839E-06      0.197290E-17
  0.8097      0.336589E-05      0.204513E+02      0.847570E-11      0.662119E-04      0.274405E-16      0.727912E-06      0.198660E-17
  0.8160      0.345789E-05      0.205293E+02      0.872271E-11      0.677562E-04      0.287890E-16      0.761756E-06      0.200098E-17
  0.8223      0.355139E-05      0.205975E+02      0.778585E-11      0.692863E-04      0.261903E-16      0.796365E-06      0.201406E-17
  0.8286      0.364638E-05      0.206745E+02      0.805112E-11      0.708648E-04      0.275963E-16      0.831762E-06      0.202785E-17
  0.8348      0.374286E-05      0.207308E+02      0.714328E-11      0.723892E-04      0.249434E-16      0.867920E-06      0.204031E-17
  0.8411      0.384081E-05      0.207893E+02      0.740499E-11      0.739374E-04      0.263359E-16      0.904852E-06      0.205346E-17
  0.8474      0.394021E-05      0.208286E+02      0.649834E-11      0.754314E-04      0.235340E-16      0.942530E-06      0.206522E-17
  0.8537      0.404107E-05      0.208712E+02      0.796003E-11      0.769506E-04      0.293480E-16      0.980967E-06      0.207988E-17
  0.8599      0.414335E-05      0.209027E+02      0.824947E-11      0.784406E-04      0.309574E-16      0.102015E-05      0.209534E-17
  0.8662      0.424705E-05      0.209383E+02      0.733311E-11      0.799571E-04      0.280029E-16      0.106009E-05      0.210933E-17
  0.8725      0.435215E-05      0.209697E+02      0.763957E-11      0.814682E-04      0.296800E-16      0.110078E-05      0.212415E-17
  0.8788      0.445862E-05      0.210019E+02      0.675456E-11      0.829922E-04      0.266917E-16      0.114223E-05      0.213749E-17
  0.8850      0.456646E-05      0.210340E+02      0.706034E-11      0.845258E-04      0.283722E-16      0.118446E-05      0.215166E-17
  0.8913      0.467564E-05      0.210609E+02      0.617647E-11      0.860469E-04      0.252348E-16      0.122744E-05      0.216426E-17
  0.8976      0.478613E-05      0.210912E+02      0.648266E-11      0.875907E-04      0.269221E-16      0.127119E-05      0.217771E-17
  0.9039      0.489792E-05      0.211097E+02      0.680608E-11      0.890921E-04      0.287246E-16      0.131569E-05      0.219206E-17
  0.9102      0.501098E-05      0.211360E+02      0.591333E-11      0.906326E-04      0.253568E-16      0.136096E-05      0.220472E-17
  0.9164      0.512529E-05      0.211459E+02      0.624758E-11      0.921084E-04      0.272135E-16      0.140697E-05      0.221832E-17
