 
 # Omega; pulse ft; projected flux at t=    500.250000000000     
    0.000000000000         0.10341091E-10      0.00000000E+00      0.00000000E+00      0.23972485E-08     -0.50345521E-19
    0.006276908399         0.40699280E-10      0.58382881E+00     -0.13318939E-10      0.22112623E-08     -0.50445724E-19
    0.012553816798         0.13187398E-09      0.32668488E+00     -0.82762278E-11      0.20045929E-08     -0.50784313E-19
    0.018830725196         0.28416575E-09      0.22331487E+00     -0.57275793E-11      0.19685033E-08     -0.50488167E-19
    0.025107633595         0.49807598E-09      0.17093046E+00     -0.43455044E-11      0.19807200E-08     -0.50355140E-19
    0.031384541994         0.77430759E-09      0.13835294E+00     -0.35104276E-11      0.19938842E-08     -0.50590799E-19
    0.037661450393         0.11137660E-08      0.11673242E+00     -0.29140207E-11      0.20165185E-08     -0.50338858E-19
    0.043938358791         0.15175606E-08      0.10100115E+00     -0.24864356E-11      0.20377098E-08     -0.50164123E-19
    0.050215267190         0.19870057E-08      0.89265964E-01     -0.21671634E-11      0.20633031E-08     -0.50092048E-19
    0.056492175589         0.25236231E-08      0.80027580E-01     -0.19387723E-11      0.20882846E-08     -0.50591413E-19
    0.062769083988         0.31291437E-08      0.72624535E-01     -0.17283235E-11      0.21148369E-08     -0.50329029E-19
    0.069045992387         0.38055096E-08      0.66521875E-01     -0.15600238E-11      0.21416704E-08     -0.50224933E-19
    0.075322900785         0.45548772E-08      0.61404175E-01     -0.14343641E-11      0.21690089E-08     -0.50666725E-19
    0.081599809184         0.53796196E-08      0.57047137E-01     -0.13123449E-11      0.21968990E-08     -0.50538719E-19
    0.087876717583         0.62823298E-08      0.53303735E-01     -0.12091624E-11      0.22259651E-08     -0.50494646E-19
    0.094153625982         0.72658239E-08      0.50040006E-01     -0.11195102E-11      0.22556877E-08     -0.50464932E-19
    0.100430534380         0.83331444E-08      0.47161726E-01     -0.10504435E-11      0.22858442E-08     -0.50913109E-19
    0.106707442779         0.94875639E-08      0.44609439E-01     -0.97154629E-12      0.23168641E-08     -0.50458845E-19
    0.112984351178         0.10732589E-07      0.42324948E-01     -0.90902248E-12      0.23485318E-08     -0.50439949E-19
    0.119261259577         0.12071965E-07      0.40271166E-01     -0.85956086E-12      0.23811490E-08     -0.50824019E-19
    0.125538167976         0.13509678E-07      0.38407021E-01     -0.80822122E-12      0.24143133E-08     -0.50805795E-19
    0.131815076374         0.15049961E-07      0.36717699E-01     -0.75524230E-12      0.24488351E-08     -0.50369819E-19
    0.138091984773         0.16697298E-07      0.35136367E-01     -0.71044427E-12      0.24816949E-08     -0.50178947E-19
    0.144368893172         0.18456429E-07      0.33679524E-01     -0.68256444E-12      0.25150915E-08     -0.50971981E-19
    0.150645801571         0.20332352E-07      0.32388665E-01     -0.63524522E-12      0.25535093E-08     -0.50082477E-19
    0.156922709970         0.22330332E-07      0.31180091E-01     -0.60561904E-12      0.25917945E-08     -0.50341101E-19
    0.163199618368         0.24455902E-07      0.30049035E-01     -0.58060553E-12      0.26303217E-08     -0.50822907E-19
    0.169476526767         0.26714868E-07      0.28991946E-01     -0.54897936E-12      0.26695290E-08     -0.50549085E-19
    0.175753435166         0.29113317E-07      0.28011190E-01     -0.52368526E-12      0.27103990E-08     -0.50672464E-19
    0.182030343565         0.31657619E-07      0.27082651E-01     -0.49978519E-12      0.27513095E-08     -0.50772863E-19
    0.188307251963         0.34354433E-07      0.26250341E-01     -0.48153242E-12      0.27974640E-08     -0.51316269E-19
    0.194584160362         0.37210710E-07      0.25471911E-01     -0.45474488E-12      0.28453508E-08     -0.50797472E-19
    0.200861068761         0.40233700E-07      0.24665650E-01     -0.43213167E-12      0.28860282E-08     -0.50561984E-19
    0.207137977160         0.43430955E-07      0.23916775E-01     -0.41667275E-12      0.29292476E-08     -0.51032701E-19
    0.213414885559         0.46810335E-07      0.23237305E-01     -0.39653217E-12      0.29772588E-08     -0.50805330E-19
    0.219691793957         0.50380010E-07      0.22585936E-01     -0.37493386E-12      0.30254941E-08     -0.50224184E-19
    0.225968702356         0.54148468E-07      0.21976683E-01     -0.35791898E-12      0.30761947E-08     -0.50099848E-19
    0.232245610755         0.58124513E-07      0.21393431E-01     -0.34460312E-12      0.31275629E-08     -0.50378453E-19
    0.238522519154         0.62317278E-07      0.20844107E-01     -0.32933996E-12      0.31810917E-08     -0.50261717E-19
    0.244799427552         0.66736218E-07      0.20317092E-01     -0.31460952E-12      0.32353894E-08     -0.50099900E-19
    0.251076335951         0.71391124E-07      0.19824026E-01     -0.30553402E-12      0.32926389E-08     -0.50747169E-19
    0.257353244350         0.76292116E-07      0.19351967E-01     -0.29050791E-12      0.33511119E-08     -0.50306230E-19
    0.263630152749         0.81449655E-07      0.18908523E-01     -0.27787502E-12      0.34124444E-08     -0.50148445E-19
    0.269907061148         0.86874540E-07      0.18482825E-01     -0.26970205E-12      0.34750450E-08     -0.50707981E-19
    0.276183969546         0.92577913E-07      0.18082055E-01     -0.26016880E-12      0.35405481E-08     -0.50942228E-19
    0.282460877945         0.98571259E-07      0.17701297E-01     -0.24644661E-12      0.36083686E-08     -0.50237574E-19
    0.288737786344         0.10486641E-06      0.17340986E-01     -0.23718036E-12      0.36789203E-08     -0.50318224E-19
    0.295014694743         0.11147554E-06      0.17007175E-01     -0.22957424E-12      0.37538933E-08     -0.50672567E-19
    0.301291603141         0.11841119E-06      0.16688363E-01     -0.21931938E-12      0.38311862E-08     -0.50349657E-19
    0.307568511540         0.12568621E-06      0.16421737E-01     -0.21118575E-12      0.39199331E-08     -0.50410868E-19
    0.313845419939         0.13331385E-06      0.16199861E-01     -0.20432649E-12      0.40196159E-08     -0.50698830E-19
    0.320122328338         0.14130766E-06      0.16497869E-01     -0.19626012E-12      0.42539405E-08     -0.50605256E-19
    0.326399236737         0.14968158E-06      0.16029408E-01     -0.18829150E-12      0.42938860E-08     -0.50438682E-19
    0.332676145135         0.15844985E-06      0.14961690E-01     -0.18106427E-12      0.41625996E-08     -0.50375196E-19
    0.338953053534         0.16762710E-06      0.14737032E-01     -0.17693658E-12      0.42572439E-08     -0.51113558E-19
    0.345229961933         0.17722828E-06      0.14560222E-01     -0.16770325E-12      0.43662273E-08     -0.50289790E-19
    0.351506870332         0.18726866E-06      0.14353752E-01     -0.16264645E-12      0.44669441E-08     -0.50616216E-19
    0.357783778731         0.19776389E-06      0.14164611E-01     -0.15621402E-12      0.45734590E-08     -0.50438268E-19
    0.364060687129         0.20872991E-06      0.13976867E-01     -0.15135325E-12      0.46809556E-08     -0.50689318E-19
    0.370337595528         0.22018301E-06      0.13804761E-01     -0.14591938E-12      0.47943385E-08     -0.50677220E-19
    0.376614503927         0.23213979E-06      0.13631568E-01     -0.13956506E-12      0.49080861E-08     -0.50250809E-19
    0.382891412326         0.24461718E-06      0.13475588E-01     -0.13677426E-12      0.50288984E-08     -0.51042214E-19
    0.389168320724         0.25763241E-06      0.13325979E-01     -0.13067053E-12      0.51531877E-08     -0.50530602E-19
    0.395445229123         0.27120301E-06      0.13193826E-01     -0.12622185E-12      0.52855809E-08     -0.50565758E-19
    0.401722137522         0.28534681E-06      0.13063514E-01     -0.12219508E-12      0.54202719E-08     -0.50700795E-19
    0.407999045921         0.30008192E-06      0.12954655E-01     -0.11826021E-12      0.55657070E-08     -0.50808122E-19
    0.414275954320         0.31542674E-06      0.12845423E-01     -0.11386741E-12      0.57130893E-08     -0.50643306E-19
    0.420552862718         0.33139993E-06      0.12763787E-01     -0.10907597E-12      0.58752340E-08     -0.50208209E-19
    0.426829771117         0.34802041E-06      0.12676172E-01     -0.10652163E-12      0.60374278E-08     -0.50734296E-19
    0.433106679516         0.36530735E-06      0.12629266E-01     -0.10244353E-12      0.62223643E-08     -0.50473320E-19
    0.439383587915         0.38328015E-06      0.12566629E-01     -0.99821037E-13      0.64033184E-08     -0.50863749E-19
    0.445660496313         0.40195843E-06      0.12581285E-01     -0.96274594E-13      0.66285084E-08     -0.50722715E-19
    0.451937404712         0.42136202E-06      0.12555349E-01     -0.94181189E-13      0.68378522E-08     -0.51292643E-19
    0.458214313111         0.44151098E-06      0.12834042E-01     -0.89801813E-13      0.72235403E-08     -0.50544251E-19
    0.464491221510         0.46242550E-06      0.12350108E-01     -0.87019694E-13      0.71820566E-08     -0.50605256E-19
    0.470768129909         0.48412598E-06      0.11463911E-01     -0.84062653E-13      0.68864903E-08     -0.50497308E-19
    0.477045038307         0.50663295E-06      0.11749021E-01     -0.81503915E-13      0.72886909E-08     -0.50562242E-19
    0.483321946706         0.52996708E-06      0.12028362E-01     -0.78948620E-13      0.77042911E-08     -0.50567412E-19
    0.489598855105         0.55414917E-06      0.12079594E-01     -0.76311664E-13      0.79864256E-08     -0.50453468E-19
    0.495875763504         0.57920011E-06      0.12201014E-01     -0.74785499E-13      0.83246404E-08     -0.51025463E-19
    0.502152671902         0.60514088E-06      0.12258035E-01     -0.72541533E-13      0.86288988E-08     -0.51064754E-19
    0.508429580301         0.63199252E-06      0.12427871E-01     -0.69494918E-13      0.90238456E-08     -0.50460085E-19
    0.514706488700         0.65977612E-06      0.12669181E-01     -0.67772506E-13      0.94863536E-08     -0.50746290E-19
    0.520983397099         0.68851279E-06      0.12716147E-01     -0.65900875E-13      0.98165182E-08     -0.50873676E-19
    0.527260305498         0.71822366E-06      0.12542252E-01     -0.63881308E-13      0.99798488E-08     -0.50830249E-19
    0.533537213896         0.74892983E-06      0.12803364E-01     -0.61720616E-13      0.10498187E-07     -0.50608151E-19
    0.539814122295         0.78065236E-06      0.13033077E-01     -0.61096444E-13      0.11009667E-07     -0.51611107E-19
    0.546091030694         0.81341227E-06      0.13268302E-01     -0.58789507E-13      0.11544492E-07     -0.51151608E-19
    0.552367939093         0.84723047E-06      0.13294119E-01     -0.56760642E-13      0.11910952E-07     -0.50855064E-19
    0.558644847491         0.88212778E-06      0.13680157E-01     -0.55010006E-13      0.12618292E-07     -0.50740086E-19
    0.564921755890         0.91812490E-06      0.13818107E-01     -0.54119725E-13      0.13118247E-07     -0.51378669E-19
    0.571198664289         0.95524236E-06      0.14229326E-01     -0.52496558E-13      0.13900311E-07     -0.51282716E-19
    0.577475572688         0.99350052E-06      0.14318328E-01     -0.51369607E-13      0.14389330E-07     -0.51624342E-19
    0.583752481087         0.10329195E-05      0.14940478E-01     -0.49437274E-13      0.15442444E-07     -0.51098255E-19
    0.590029389485         0.10735193E-05      0.14901871E-01     -0.47973998E-13      0.15837653E-07     -0.50986586E-19
    0.596306297884         0.11153196E-05      0.15717596E-01     -0.46513557E-13      0.17172354E-07     -0.50818668E-19
    0.602583206283         0.11583396E-05      0.15332483E-01     -0.45204463E-13      0.17216512E-07     -0.50759111E-19
    0.608860114682         0.12025986E-05      0.16472369E-01     -0.44278988E-13      0.19005226E-07     -0.51087502E-19
    0.615137023081         0.12481153E-05      0.14670175E-01     -0.42493368E-13      0.17387291E-07     -0.50363719E-19
    0.621413931479         0.12949080E-05      0.16709596E-01     -0.42092704E-13      0.20339379E-07     -0.51236394E-19
    0.627690839878         0.13429948E-05      0.62997357E-02     -0.40619905E-13      0.78734426E-08     -0.50766969E-19
    0.633967748277         0.13923932E-05      0.15444900E-01     -0.40124125E-13      0.19814979E-07     -0.51477104E-19
    0.640244656676         0.14431204E-05      0.67368466E-01     -0.40959146E-13      0.88700703E-07     -0.53928867E-19
    0.646521565074         0.14951931E-05      0.67066964E-01     -0.38720119E-13      0.90601774E-07     -0.52307593E-19
    0.652798473473         0.15486273E-05      0.54166334E-01     -0.39621402E-13      0.75060428E-07     -0.54904940E-19
    0.659075381872         0.16034389E-05      0.64128334E-01     -0.37554639E-13      0.91134135E-07     -0.53369693E-19
    0.665352290271         0.16596427E-05      0.68570047E-01     -0.39521431E-13      0.99910517E-07     -0.57585006E-19
    0.671629198670         0.17172535E-05      0.10647983E+00     -0.32977651E-13      0.15903254E-06     -0.49253642E-19
    0.677906107068         0.17762849E-05      0.19981342E+00     -0.39153434E-13      0.30583102E-06     -0.59927581E-19
    0.684183015467         0.18367504E-05      0.53240431E+00     -0.38080072E-13      0.83489763E-06     -0.59715823E-19
    0.690459923866         0.18986625E-05      0.15679018E+01     -0.18522241E-13      0.25185000E-05     -0.29752032E-19
    0.696736832265         0.19620330E-05      0.19141752E+01     -0.83547539E-13      0.31487127E-05     -0.13743110E-18
    0.703013740663         0.20268732E-05      0.94797515E+00     -0.36463784E-13      0.15965169E-05     -0.61409889E-19
    0.709290649062         0.20931935E-05      0.61165230E+00     -0.55401039E-13      0.10543955E-05     -0.95502965E-19
    0.715567557461         0.21610035E-05      0.87624501E+00     -0.47595389E-13      0.15457675E-05     -0.83962141E-19
    0.721844465860         0.22303120E-05      0.10493259E+01     -0.88935209E-13      0.18938526E-05     -0.16051274E-18
    0.728121374259         0.23011271E-05      0.10799684E+01     -0.67734447E-13      0.19937085E-05     -0.12504324E-18
    0.734398282657         0.23734559E-05      0.10323732E+01     -0.10308430E-12      0.19489469E-05     -0.19460582E-18
    0.740675191056         0.24473047E-05      0.10972569E+01     -0.84206313E-13      0.21177875E-05     -0.16252445E-18
    0.746952099455         0.25226788E-05      0.11904810E+01     -0.63705660E-13      0.23485807E-05     -0.12567851E-18
    0.753229007854         0.25995828E-05      0.13490356E+01     -0.11706578E-12      0.27196551E-05     -0.23600455E-18
    0.759505916252         0.26780200E-05      0.14906731E+01     -0.10384013E-13      0.30702863E-05     -0.21387582E-19
    0.765782824651         0.27579930E-05      0.12588044E+01     -0.57575140E-13      0.26482538E-05     -0.12112571E-18
    0.772059733050         0.28395032E-05      0.11128073E+01     -0.30112462E-13      0.23907009E-05     -0.64692141E-19
    0.778336641449         0.29225512E-05      0.13223913E+01     -0.79553459E-13      0.29004704E-05     -0.17448879E-18
    0.784613549848         0.30071363E-05      0.14174583E+01     -0.52968445E-13      0.31733751E-05     -0.11858461E-18
    0.790890458246         0.30932570E-05      0.15031890E+01     -0.10909461E-12      0.34342117E-05     -0.24923944E-18
    0.797167366645         0.31809104E-05      0.15643134E+01     -0.79766237E-13      0.36461917E-05     -0.18592373E-18
    0.803444275044         0.32700927E-05      0.16221614E+01     -0.47384231E-13      0.38566673E-05     -0.11265538E-18
    0.809721183443         0.33607990E-05      0.16591829E+01     -0.10777912E-12      0.40226765E-05     -0.26130966E-18
    0.815998091842         0.34530231E-05      0.16879624E+01     -0.74273735E-13      0.41724095E-05     -0.18359439E-18
    0.822275000240         0.35467578E-05      0.16997829E+01     -0.13606891E-12      0.42827400E-05     -0.34283659E-18
    0.828551908639         0.36419946E-05      0.17032466E+01     -0.99791213E-13      0.43733166E-05     -0.25622747E-18
    0.834828817038         0.37387238E-05      0.16946861E+01     -0.15978930E-12      0.44333194E-05     -0.41801076E-18
    0.841105725437         0.38369346E-05      0.16781672E+01     -0.12309605E-12      0.44718049E-05     -0.32801351E-18
    0.847382633835         0.39366149E-05      0.16520882E+01     -0.18057037E-12      0.44832238E-05     -0.49000856E-18
    0.853659542234         0.40377513E-05      0.16173387E+01     -0.51733923E-13      0.44685811E-05     -0.14293681E-18
    0.859936450633         0.41403294E-05      0.15745295E+01     -0.17769286E-13      0.44282603E-05     -0.49974944E-19
    0.866213359032         0.42443332E-05      0.15232566E+01     -0.73466807E-13      0.43598490E-05     -0.21027593E-18
    0.872490267431         0.43497456E-05      0.14662758E+01     -0.39847749E-13      0.42700480E-05     -0.11604351E-18
    0.878767175829         0.44565484E-05      0.14025556E+01     -0.88996117E-13      0.41548821E-05     -0.26363900E-18
    0.885044084228         0.45647219E-05      0.13355648E+01     -0.57424755E-13      0.40237240E-05     -0.17300648E-18
    0.891320992627         0.46742450E-05      0.12638720E+01     -0.10030361E-12      0.38716333E-05     -0.30726120E-18
    0.897597901026         0.47850957E-05      0.11893848E+01     -0.70857436E-13      0.37037785E-05     -0.22065208E-18
    0.903874809424         0.48972503E-05      0.11114033E+01     -0.43892097E-13      0.35174626E-05     -0.13891340E-18
    0.910151717823         0.50106841E-05      0.10262145E+01     -0.79083574E-13      0.33001615E-05     -0.25432164E-18
    0.916428626222         0.51253709E-05      0.93980426E+00     -0.53734645E-13      0.30702792E-05     -0.17554758E-18
    0.922705534621         0.52412834E-05      0.82940943E+00     -0.78497732E-13      0.27520561E-05     -0.26046263E-18
    0.928982443020         0.53583927E-05      0.91306803E+00     -0.65677372E-13      0.30764083E-05     -0.22128736E-18
    0.935259351418         0.54766690E-05      0.17185038E+01     -0.17210238E-12      0.58782593E-05     -0.58868790E-18
    0.941536259817         0.55960809E-05      0.19303171E+01     -0.42085130E-13      0.67017681E-05     -0.14611318E-18
    0.947813168216         0.57165958E-05      0.13492993E+01     -0.82344070E-13      0.47537556E-05     -0.29010878E-18
    0.954090076615         0.58381799E-05      0.11040180E+01     -0.47335306E-13      0.39461905E-05     -0.16919483E-18
    0.960366985013         0.59607981E-05      0.97826950E+00     -0.22661625E-13      0.35468229E-05     -0.82162196E-19
    0.966643893412         0.60844141E-05      0.88406341E+00     -0.53619646E-13      0.32504947E-05     -0.19714692E-18
    0.972920801811         0.62089900E-05      0.81366343E+00     -0.33173850E-13      0.30332072E-05     -0.12366681E-18
    0.979197710210         0.63344872E-05      0.74746619E+00     -0.58223858E-13      0.28245316E-05     -0.22001681E-18
    0.985474618609         0.64608656E-05      0.69248715E+00     -0.40696687E-13      0.26519833E-05     -0.15585406E-18
    0.991751527007         0.65880838E-05      0.62337365E+00     -0.60302116E-13      0.24189031E-05     -0.23399285E-18
    0.998028435406         0.67160994E-05      0.61531359E+00     -0.46975217E-13      0.24187139E-05     -0.18465318E-18
    1.004305343805         0.68448687E-05      0.67844021E+00     -0.74678273E-13      0.27010009E-05     -0.29730856E-18
    1.010582252204         0.69743470E-05      0.67959122E+00     -0.60460252E-13      0.27396397E-05     -0.24373373E-18
    1.016859160602         0.71044882E-05      0.62113630E+00     -0.43377128E-13      0.25349693E-05     -0.17702989E-18
