 
 # Omega; pulse ft; projected flux at t=    500.250000000000     
    0.000000000000         0.10341091E-10      0.00000000E+00      0.00000000E+00      0.11853394E-07      0.21175824E-21
    0.006276908399         0.40699280E-10      0.31734298E+01      0.16137281E-12      0.12019423E-07      0.61120246E-21
    0.012553816798         0.13187398E-09      0.19845662E+01     -0.10788964E-12      0.12177629E-07     -0.66202883E-21
    0.018830725196         0.28416575E-09      0.14012828E+01      0.12569104E-12      0.12352199E-07      0.11079567E-20
    0.025107633595         0.49807598E-09      0.10801637E+01      0.82773418E-13      0.12516796E-07      0.95916762E-21
    0.031384541994         0.77430759E-09      0.88126800E+00     -0.69997376E-13      0.12700462E-07     -0.10087726E-20
    0.037661450393         0.11137660E-08      0.74514980E+00      0.36152353E-14      0.12872246E-07      0.62452136E-22
    0.043938358791         0.15175606E-08      0.64759379E+00     -0.34160726E-13      0.13065279E-07     -0.68919655E-21
    0.050215267190         0.19870057E-08      0.57303110E+00      0.31130067E-13      0.13245103E-07      0.71954374E-21
    0.056492175589         0.25236231E-08      0.51534387E+00     -0.41193304E-13      0.13447672E-07     -0.10749212E-20
    0.062769083988         0.31291437E-08      0.46828769E+00      0.38166726E-13      0.13636605E-07      0.11114206E-20
    0.069045992387         0.38055096E-08      0.43015282E+00      0.19491235E-13      0.13848761E-07      0.62751989E-21
    0.075322900785         0.45548772E-08      0.39769692E+00     -0.64807391E-14      0.14048038E-07     -0.22892223E-21
    0.081599809184         0.53796196E-08      0.37054544E+00     -0.28675129E-14      0.14269794E-07     -0.11042861E-21
    0.087876717583         0.62823298E-08      0.34676190E+00      0.12082852E-13      0.14480784E-07      0.50458017E-21
    0.094153625982         0.72658239E-08      0.32637509E+00      0.23465206E-14      0.14712234E-07      0.10577572E-21
    0.100430534380         0.83331444E-08      0.30816692E+00     -0.10734802E-13      0.14936297E-07     -0.52029661E-21
    0.106707442779         0.94875639E-08      0.29223501E+00      0.55679839E-13      0.15177703E-07      0.28918234E-20
    0.112984351178         0.10732589E-07      0.27782706E+00      0.21159114E-13      0.15416102E-07      0.11740795E-20
    0.119261259577         0.12071965E-07      0.26498533E+00     -0.19648514E-13      0.15668023E-07     -0.11617752E-20
    0.125538167976         0.13509678E-07      0.25328591E+00      0.16846595E-13      0.15921869E-07      0.10589980E-20
    0.131815076374         0.15049961E-07      0.24268016E+00     -0.22067505E-13      0.16185211E-07     -0.14717611E-20
    0.138091984773         0.16697298E-07      0.23297969E+00     -0.16390104E-13      0.16455444E-07     -0.11576393E-20
    0.144368893172         0.18456429E-07      0.22405044E+00     -0.34531779E-13      0.16731453E-07     -0.25787356E-20
    0.150645801571         0.20332352E-07      0.21586759E+00      0.74361651E-14      0.17018914E-07      0.58626426E-21
    0.156922709970         0.22330332E-07      0.20823391E+00     -0.56075232E-14      0.17309106E-07     -0.46611628E-21
    0.163199618368         0.24455902E-07      0.20123081E+00     -0.44000569E-13      0.17614602E-07     -0.38515597E-20
    0.169476526767         0.26714868E-07      0.19462453E+00      0.41368779E-14      0.17920695E-07      0.38091667E-21
    0.175753435166         0.29113317E-07      0.18855818E+00     -0.27919964E-13      0.18245133E-07     -0.27015719E-20
    0.182030343565         0.31657619E-07      0.18278472E+00     -0.19865404E-13      0.18568984E-07     -0.20181139E-20
    0.188307251963         0.34354433E-07      0.17747642E+00     -0.19393230E-13      0.18913426E-07     -0.20667108E-20
    0.194584160362         0.37210710E-07      0.17239065E+00     -0.13828870E-13      0.19256971E-07     -0.15447598E-20
    0.200861068761         0.40233700E-07      0.16770669E+00     -0.45033093E-14      0.19622684E-07     -0.52691405E-21
    0.207137977160         0.43430955E-07      0.16319838E+00     -0.34143734E-13      0.19987998E-07     -0.41818116E-20
    0.213414885559         0.46810335E-07      0.15903725E+00     -0.10600898E-13      0.20376505E-07     -0.13582306E-20
    0.219691793957         0.50380010E-07      0.15502055E+00      0.15653811E-14      0.20765744E-07      0.20969029E-21
    0.225968702356         0.54148468E-07      0.15130412E+00      0.13136756E-13      0.21178853E-07      0.18388225E-20
    0.232245610755         0.58124513E-07      0.14771131E+00     -0.11259726E-14      0.21594311E-07     -0.16460894E-21
    0.238522519154         0.62317278E-07      0.14437888E+00     -0.34905457E-14      0.22034163E-07     -0.53270431E-21
    0.244799427552         0.66736218E-07      0.14115569E+00      0.12747056E-13      0.22478296E-07      0.20299012E-20
    0.251076335951         0.71391124E-07      0.13815963E+00     -0.30747849E-13      0.22947395E-07     -0.51070131E-20
    0.257353244350         0.76292116E-07      0.13526344E+00      0.74804597E-14      0.23423092E-07      0.12953648E-20
    0.263630152749         0.81449655E-07      0.13256539E+00      0.96802437E-14      0.23924239E-07      0.17470055E-20
    0.269907061148         0.86874540E-07      0.12995815E+00      0.12318740E-14      0.24434058E-07      0.23161057E-21
    0.276183969546         0.92577913E-07      0.12752750E+00      0.37788354E-14      0.24970462E-07      0.73991306E-21
    0.282460877945         0.98571259E-07      0.12518163E+00      0.16442354E-13      0.25517986E-07      0.33517358E-20
    0.288737786344         0.10486641E-06      0.12299390E+00      0.75855138E-14      0.26093370E-07      0.16092799E-20
    0.295014694743         0.11147554E-06      0.12088547E+00     -0.38487619E-14      0.26682337E-07     -0.84951449E-21
    0.301291603141         0.11841119E-06      0.11892047E+00      0.21413446E-13      0.27300848E-07      0.49159344E-20
    0.307568511540         0.12568621E-06      0.11703018E+00     -0.16914127E-13      0.27935565E-07     -0.40374686E-20
    0.313845419939         0.13331385E-06      0.11527104E+00     -0.12871432E-13      0.28601808E-07     -0.31937443E-20
    0.320122328338         0.14130766E-06      0.11358346E+00     -0.39939824E-14      0.29287253E-07     -0.10298399E-20
    0.326399236737         0.14968158E-06      0.11201700E+00     -0.95972838E-14      0.30006611E-07     -0.25708773E-20
    0.332676145135         0.15844985E-06      0.11051956E+00     -0.92316210E-14      0.30748442E-07     -0.25683958E-20
    0.338953053534         0.16762710E-06      0.10913372E+00     -0.13520970E-13      0.31526622E-07     -0.39059469E-20
    0.345229961933         0.17722828E-06      0.10781702E+00      0.48272530E-14      0.32331485E-07      0.14475661E-20
    0.351506870332         0.18726866E-06      0.10660396E+00     -0.22911975E-14      0.33175574E-07     -0.71302969E-21
    0.357783778731         0.19776389E-06      0.10546056E+00      0.67377664E-15      0.34051028E-07      0.21754850E-21
    0.364060687129         0.20872991E-06      0.10441377E+00      0.30922883E-14      0.34968939E-07      0.10356301E-20
    0.370337595528         0.22018301E-06      0.10343842E+00     -0.15791161E-14      0.35923751E-07     -0.54842075E-21
    0.376614503927         0.23213979E-06      0.10255374E+00      0.51599292E-14      0.36924774E-07      0.18578477E-20
    0.382891412326         0.24461718E-06      0.10174286E+00     -0.35907918E-15      0.37968994E-07     -0.13400326E-21
    0.389168320724         0.25763241E-06      0.10101798E+00      0.90910167E-14      0.39063890E-07      0.35155176E-20
    0.395445229123         0.27120301E-06      0.10037041E+00     -0.63595897E-14      0.40209406E-07     -0.25477163E-20
    0.401722137522         0.28534681E-06      0.99805790E-01     -0.65788991E-15      0.41411103E-07     -0.27296960E-21
    0.407999045921         0.30008192E-06      0.99322406E-01     -0.12322131E-15      0.42671874E-07     -0.52939559E-22
    0.414275954320         0.31542674E-06      0.98919753E-01     -0.73761624E-14      0.43995232E-07     -0.32805983E-20
    0.420552862718         0.33139993E-06      0.98603722E-01      0.43200541E-14      0.45387780E-07      0.19885422E-20
    0.426829771117         0.34802041E-06      0.98367845E-01     -0.59396743E-15      0.46850796E-07     -0.28289577E-21
    0.433106679516         0.36530735E-06      0.98224890E-01      0.10106936E-14      0.48394820E-07      0.49796273E-21
    0.439383587915         0.38328015E-06      0.98162749E-01     -0.37272278E-14      0.50018770E-07     -0.18992067E-20
    0.445660496313         0.40195843E-06      0.98202356E-01     -0.42359565E-14      0.51738366E-07     -0.22317333E-20
    0.451937404712         0.42136202E-06      0.98324565E-01      0.24301295E-15      0.53549195E-07      0.13234890E-21
    0.458214313111         0.44151098E-06      0.98565076E-01     -0.70543163E-14      0.55476585E-07     -0.39704669E-20
    0.464491221510         0.46242550E-06      0.98896521E-01      0.46654777E-15      0.57512081E-07      0.27131524E-21
    0.470768129909         0.48412598E-06      0.99315173E-01      0.12916298E-14      0.59659655E-07      0.77589541E-21
    0.477045038307         0.50663295E-06      0.99838087E-01     -0.14427124E-14      0.61936135E-07     -0.89500942E-21
    0.483321946706         0.52996708E-06      0.10051495E+00     -0.29186539E-14      0.64380872E-07     -0.18694282E-20
    0.489598855105         0.55414917E-06      0.10129001E+00     -0.10759664E-14      0.66967906E-07     -0.71137533E-21
    0.495875763504         0.57920011E-06      0.10222283E+00     -0.26671870E-14      0.69745700E-07     -0.18197973E-20
    0.502152671902         0.60514088E-06      0.10326769E+00     -0.84417435E-14      0.72694069E-07     -0.59424655E-20
    0.508429580301         0.63199252E-06      0.10449152E+00     -0.11073163E-14      0.75871029E-07     -0.80401956E-21
    0.514706488700         0.65977612E-06      0.10583358E+00      0.78213704E-15      0.79245434E-07      0.58564387E-21
    0.520983397099         0.68851279E-06      0.10744028E+00     -0.33174116E-14      0.82940962E-07     -0.25609512E-20
    0.527260305498         0.71822366E-06      0.10918142E+00     -0.42414278E-14      0.86875469E-07     -0.33748969E-20
    0.533537213896         0.74892983E-06      0.11114693E+00     -0.21467514E-14      0.91135523E-07     -0.17602403E-20
    0.539814122295         0.78065236E-06      0.11328871E+00     -0.67917578E-14      0.95700427E-07     -0.57373247E-20
    0.546091030694         0.81341227E-06      0.11577990E+00     -0.66890848E-14      0.10073784E-06     -0.58200428E-20
    0.552367939093         0.84723047E-06      0.11846883E+00     -0.88298436E-14      0.10614291E-06     -0.79111554E-20
    0.558644847491         0.88212778E-06      0.12157273E+00     -0.52444289E-14      0.11213616E-06     -0.48373522E-20
    0.564921755890         0.91812490E-06      0.12487630E+00     -0.99677951E-14      0.11855156E-06     -0.94629462E-20
    0.571198664289         0.95524236E-06      0.12877333E+00     -0.87250114E-14      0.12579579E-06     -0.85232690E-20
    0.577475572688         0.99350052E-06      0.13288245E+00     -0.12682309E-13      0.13354139E-06     -0.12745199E-19
    0.583752481087         0.10329195E-05      0.13780386E+00     -0.58965558E-14      0.14243376E-06     -0.60946668E-20
    0.590029389485         0.10735193E-05      0.14292008E+00     -0.54792736E-15      0.15189493E-06     -0.58233515E-21
    0.596306297884         0.11153196E-05      0.14924753E+00     -0.72500460E-14      0.16306129E-06     -0.79210815E-20
    0.602583206283         0.11583396E-05      0.15559695E+00     -0.19212118E-14      0.17471644E-06     -0.21572870E-20
    0.608860114682         0.12025986E-05      0.16391115E+00     -0.66360051E-14      0.18911478E-06     -0.76563837E-20
    0.615137023081         0.12481153E-05      0.17147029E+00     -0.13120838E-14      0.20322892E-06     -0.15550996E-20
    0.621413931479         0.12949080E-05      0.18244307E+00     -0.87527490E-14      0.22207472E-06     -0.10654086E-19
    0.627690839878         0.13429948E-05      0.18612843E+00     -0.69255735E-14      0.23262428E-06     -0.86556179E-20
    0.633967748277         0.13923932E-05      0.86945269E-01     -0.43069346E-14      0.11154613E-06     -0.55255665E-20
    0.640244656676         0.14431204E-05      0.11861183E+00     -0.56843725E-14      0.15617029E-06     -0.74843302E-20
    0.646521565074         0.14951931E-05      0.24127888E+00     -0.44576264E-14      0.32594728E-06     -0.60218749E-20
    0.652798473473         0.15486273E-05      0.26463353E+00     -0.14564936E-13      0.36671314E-06     -0.20183207E-19
    0.659075381872         0.16034389E-05      0.30306893E+00     -0.98531452E-14      0.43069768E-06     -0.14002513E-19
    0.665352290271         0.16596427E-05      0.33794468E+00     -0.25687567E-13      0.49240491E-06     -0.37428268E-19
    0.671629198670         0.17172535E-05      0.40847727E+00      0.56712875E-15      0.61007964E-06      0.84703295E-21
    0.677906107068         0.17762849E-05      0.46092178E+00     -0.12728325E-13      0.70547905E-06     -0.19481758E-19
    0.684183015467         0.18367504E-05      0.64860839E+00     -0.76970358E-14      0.10171248E-05     -0.12070219E-19
    0.690459923866         0.18986625E-05      0.48288221E+00      0.35264766E-14      0.77564733E-06      0.56645328E-20
    0.696736832265         0.19620330E-05      0.10501677E+01     -0.27484437E-13      0.17274679E-05     -0.45210384E-19
    0.703013740663         0.20268732E-05      0.28430550E+01     -0.16848783E-13      0.47880848E-05     -0.28375604E-19
    0.709290649062         0.20931935E-05      0.75942475E+01     -0.32479013E-12      0.13091328E-04     -0.55988878E-18
    0.715567557461         0.21610035E-05      0.17357823E+02     -0.38124327E-12      0.30620614E-04     -0.67254416E-18
    0.721844465860         0.22303120E-05      0.22637872E+02     -0.13178368E-11      0.40857462E-04     -0.23784685E-17
    0.728121374259         0.23011271E-05      0.19735374E+02     -0.74054799E-12      0.36433088E-04     -0.13671112E-17
    0.734398282657         0.23734559E-05      0.18796903E+02     -0.13936010E-11      0.35485393E-04     -0.26308843E-17
    0.740675191056         0.24473047E-05      0.21587810E+02     -0.11427921E-11      0.41666078E-04     -0.22056738E-17
    0.746952099455         0.25226788E-05      0.22235361E+02     -0.71358927E-12      0.43865915E-04     -0.14077688E-17
    0.753229007854         0.25995828E-05      0.22365591E+02     -0.15226429E-11      0.45089021E-04     -0.30696474E-17
    0.759505916252         0.26780200E-05      0.21934541E+02      0.21220399E-12      0.45177793E-04      0.43706900E-18
    0.765782824651         0.27579930E-05      0.18308828E+02     -0.48717426E-12      0.38517837E-04     -0.10249099E-17
    0.772059733050         0.28395032E-05      0.17746112E+02     -0.10566468E-12      0.38124881E-04     -0.22700483E-18
    0.778336641449         0.29225512E-05      0.19983715E+02     -0.85114478E-12      0.43831334E-04     -0.18668606E-17
    0.784613549848         0.30071363E-05      0.20464267E+02     -0.44039478E-12      0.45814959E-04     -0.98594635E-18
    0.790890458246         0.30932570E-05      0.20441398E+02     -0.11790004E-11      0.46700771E-04     -0.26935648E-17
    0.797167366645         0.31809104E-05      0.20271387E+02     -0.74860341E-12      0.47249715E-04     -0.17448879E-17
    0.803444275044         0.32700927E-05      0.19944422E+02     -0.31779499E-12      0.47417599E-04     -0.75555339E-18
    0.809721183443         0.33607990E-05      0.19647623E+02     -0.10257358E-11      0.47635514E-04     -0.24868887E-17
    0.815998091842         0.34530231E-05      0.19214882E+02     -0.60858202E-12      0.47496530E-04     -0.15043305E-17
    0.822275000240         0.35467578E-05      0.18700690E+02     -0.12734504E-11      0.47117896E-04     -0.32085608E-17
    0.828551908639         0.36419946E-05      0.18060059E+02     -0.84979228E-12      0.46371648E-04     -0.21819569E-17
    0.834828817038         0.37387238E-05      0.17297019E+02     -0.14350277E-11      0.45249212E-04     -0.37540500E-17
    0.841105725437         0.38369346E-05      0.16502353E+02     -0.10260918E-11      0.43973748E-04     -0.27342224E-17
    0.847382633835         0.39366149E-05      0.15606663E+02     -0.15294638E-11      0.42351347E-04     -0.41504614E-17
    0.853659542234         0.40377513E-05      0.14742631E+02     -0.30534511E-12      0.40732744E-04     -0.84364482E-18
    0.859936450633         0.41403294E-05      0.13796066E+02      0.00000000E+00      0.38800524E-04      0.00000000E+00
    0.866213359032         0.42443332E-05      0.12894364E+02     -0.47172645E-12      0.36906115E-04     -0.13501705E-17
    0.872490267431         0.43497456E-05      0.11944114E+02     -0.18382319E-12      0.34783320E-04     -0.53532482E-18
    0.878767175829         0.44565484E-05      0.11034704E+02     -0.56557211E-12      0.32688825E-04     -0.16754312E-17
    0.885044084228         0.45647219E-05      0.10130583E+02     -0.30757739E-12      0.30520923E-04     -0.92665404E-18
    0.891320992627         0.46742450E-05      0.92498040E+01     -0.61274379E-12      0.28335030E-04     -0.18770250E-17
    0.897597901026         0.47850957E-05      0.84279092E+01     -0.38624783E-12      0.26244751E-04     -0.12027868E-17
    0.903874809424         0.48972503E-05      0.75887010E+01     -0.19002066E-12      0.24017360E-04     -0.60139339E-18
    0.910151717823         0.50106841E-05      0.68541219E+01     -0.42300823E-12      0.22041891E-04     -0.13603349E-17
    0.916428626222         0.51253709E-05      0.60152502E+01     -0.24371805E-12      0.19651430E-04     -0.79621097E-18
    0.922705534621         0.52412834E-05      0.53486384E+01     -0.40844348E-12      0.17747270E-04     -0.13552527E-17
    0.928982443020         0.53583927E-05      0.45396085E+01     -0.25240223E-12      0.15295344E-04     -0.85042108E-18
    0.935259351418         0.54766690E-05      0.53086383E+01     -0.48510584E-12      0.18158559E-04     -0.16593375E-17
    0.941536259817         0.55960809E-05      0.65678199E+01     -0.93685158E-13      0.22802474E-04     -0.32526065E-18
    0.947813168216         0.57165958E-05      0.54739094E+01     -0.27552206E-12      0.19285289E-04     -0.97069976E-18
    0.954090076615         0.58381799E-05      0.44142890E+01     -0.13270474E-12      0.15778389E-04     -0.47433845E-18
    0.960366985013         0.59607981E-05      0.39477067E+01     -0.35744624E-13      0.14312842E-04     -0.12959604E-18
    0.966643893412         0.60844141E-05      0.34353294E+01     -0.15504198E-12      0.12630904E-04     -0.57005317E-18
    0.972920801811         0.62089900E-05      0.31221021E+01     -0.75436427E-13      0.11638697E-04     -0.28121494E-18
    0.979197710210         0.63344872E-05      0.27735501E+01     -0.16699432E-12      0.10480714E-04     -0.63103955E-18
    0.985474618609         0.64608656E-05      0.25647329E+01     -0.10152054E-12      0.98220291E-05     -0.38878812E-18
    0.991751527007         0.65880838E-05      0.24383154E+01     -0.18510840E-12      0.94614984E-05     -0.71828394E-18
    0.998028435406         0.67160994E-05      0.30978055E+01     -0.17217063E-12      0.12177052E-04     -0.67677932E-18
    1.004305343805         0.68448687E-05      0.33774070E+01     -0.30849999E-12      0.13446107E-04     -0.12281978E-17
    1.010582252204         0.69743470E-05      0.23420971E+01     -0.16598992E-12      0.94417085E-05     -0.66915603E-18
    1.016859160602         0.71044882E-05      0.16993337E+01     -0.84990114E-13      0.69352874E-05     -0.34685999E-18
