 
 # Omega; pulse ft; proj flux t=    500.100000000000     
    0.000000000000         0.76130340E-13      0.00000000E+00      0.00000000E+00      0.00000000E+00      0.00000000E+00      0.00000000E+00      0.00000000E+00
    0.006280045285         0.34874077E-10      0.34526475E-16      0.26184208E-25      0.11883240E-25      0.90120182E-35      0.74627286E-28      0.56595883E-37
    0.012560090569         0.13937409E-09      0.43575078E-16      0.63935212E-26      0.29968853E-25      0.43971578E-35      0.26283304E-27      0.84210233E-37
    0.018840135854         0.31389481E-09      0.33549066E-16      0.36870986E-28      0.34643615E-25      0.38073914E-37      0.48039651E-27      0.84449339E-37
    0.025120181138         0.55896774E-09      0.26616576E-16      0.25695726E-26      0.36707840E-25      0.35437865E-35      0.71092341E-27      0.10670448E-36
    0.031400226423         0.87533792E-09      0.22442404E-16      0.38734646E-27      0.38775286E-25      0.66924515E-36      0.95443396E-27      0.11090737E-36
    0.037680271707         0.12639648E-08      0.19013114E-16     -0.15017820E-26      0.39529097E-25     -0.31222706E-35      0.12026785E-26      0.91299367E-37
    0.043960316992         0.17260235E-08      0.16559330E-16      0.51488953E-27      0.40296871E-25      0.12529757E-35      0.14557447E-26      0.99168111E-37
    0.050240362276         0.22629062E-08      0.14559065E-16     -0.50571878E-27      0.40643392E-25     -0.14117752E-35      0.17109870E-26      0.90302099E-37
    0.056520407561         0.28762236E-08      0.12994167E-16      0.20025556E-27      0.40983446E-25      0.63160363E-36      0.19683649E-26      0.94268598E-37
    0.062800452845         0.35678072E-08      0.12284033E-16     -0.29276049E-27      0.43253599E-25     -0.10308459E-35      0.22399995E-26      0.87794840E-37
    0.069080498130         0.43397112E-08      0.11698184E-16     -0.40186284E-27      0.45547703E-25     -0.15646813E-35      0.25260411E-26      0.77968570E-37
    0.075360543414         0.51942150E-08      0.10740724E-16     -0.99819110E-29      0.45883035E-25     -0.42641480E-37      0.28141886E-26      0.77700780E-37
    0.081640588699         0.61338257E-08      0.99269911E-17     -0.30130872E-27      0.46225925E-25     -0.14030711E-35      0.31044895E-26      0.68889430E-37
    0.087920633984         0.71612808E-08      0.92858352E-17      0.61415173E-28      0.46877402E-25      0.31004037E-36      0.33988817E-26      0.70836497E-37
    0.094200679268         0.82795515E-08      0.87233238E-17     -0.11676938E-27      0.47520111E-25     -0.63609858E-36      0.36973102E-26      0.66841769E-37
    0.100480724553         0.94918457E-08      0.81878330E-17     -0.34615297E-27      0.47937961E-25     -0.20266495E-35      0.39983628E-26      0.54114319E-37
    0.106760769837         0.10801611E-07      0.77133261E-17     -0.12077265E-27      0.48368343E-25     -0.75733514E-36      0.43021181E-26      0.49358220E-37
    0.113040815122         0.12212540E-07      0.72769927E-17     -0.29896737E-27      0.48726511E-25     -0.20018760E-35      0.46081228E-26      0.36786348E-37
    0.119320860406         0.13728570E-07      0.68846310E-17     -0.14760549E-27      0.49094434E-25     -0.10525775E-35      0.49164381E-26      0.30176113E-37
    0.125600905691         0.15353891E-07      0.65332294E-17      0.47559041E-28      0.49498982E-25      0.36033085E-36      0.52272940E-26      0.32439007E-37
    0.131880950975         0.17092949E-07      0.62142075E-17      0.20864015E-28      0.49918710E-25      0.16760057E-36      0.55407857E-26      0.33491547E-37
    0.138160996260         0.18950447E-07      0.59409303E-17      0.18145116E-27      0.50504623E-25      0.15425399E-35      0.58579570E-26      0.43178767E-37
    0.144441041544         0.20931352E-07      0.56893855E-17      0.46530912E-28      0.51099271E-25      0.41791784E-36      0.61788628E-26      0.45803310E-37
    0.150721086829         0.23040899E-07      0.54553648E-17      0.66563026E-28      0.51688255E-25      0.63066848E-36      0.65034674E-26      0.49763937E-37
    0.157001132113         0.25284593E-07      0.52386072E-17      0.16397245E-27      0.52289164E-25      0.16366912E-35      0.68318457E-26      0.60042432E-37
    0.163281177398         0.27668217E-07      0.50384928E-17      0.21264605E-27      0.52916165E-25      0.22332896E-35      0.71641616E-26      0.74067592E-37
    0.169561222683         0.30197832E-07      0.48518574E-17      0.19518944E-27      0.53554988E-25      0.21545085E-35      0.75004893E-26      0.87598003E-37
    0.175841267967         0.32879785E-07      0.46828194E-17      0.10566561E-27      0.54269803E-25      0.12245725E-35      0.78413062E-26      0.95288374E-37
    0.182121313252         0.35720711E-07      0.45242370E-17      0.11427837E-27      0.54998057E-25      0.13892041E-35      0.81866964E-26      0.10401264E-36
    0.188401358536         0.38727539E-07      0.43755450E-17      0.10547225E-28      0.55745614E-25      0.13437447E-36      0.85367814E-26      0.10485652E-36
    0.194681403821         0.41907495E-07      0.42354567E-17      0.23754632E-28      0.56508029E-25      0.31692625E-36      0.88916544E-26      0.10684683E-36
    0.200961449105         0.45268105E-07      0.41024487E-17      0.66630011E-28      0.57275039E-25      0.93023381E-36      0.92513442E-26      0.11268874E-36
    0.207241494390         0.48817202E-07      0.39765126E-17      0.56127500E-28      0.58055211E-25      0.81943507E-36      0.96159336E-26      0.11783483E-36
    0.213521539674         0.52562928E-07      0.38572368E-17      0.89215900E-28      0.58851405E-25      0.13612027E-35      0.99855231E-26      0.12638324E-36
    0.219801584959         0.56513737E-07      0.37429927E-17     -0.78622325E-28      0.59646486E-25     -0.12528866E-35      0.10360106E-25      0.11851506E-36
    0.226081630243         0.60678401E-07      0.36324045E-17     -0.10857173E-27      0.60423480E-25     -0.18060438E-35      0.10739568E-25      0.10717302E-36
    0.232361675528         0.65066012E-07      0.35287243E-17     -0.35298545E-28      0.61242102E-25     -0.61261718E-36      0.11124171E-25      0.10332576E-36
    0.238641720812         0.69685984E-07      0.34295698E-17     -0.67149089E-28      0.62069949E-25     -0.12152954E-35      0.11513973E-25      0.95693646E-37
    0.244921766097         0.74548059E-07      0.33343479E-17     -0.61332019E-28      0.62901723E-25     -0.11570147E-35      0.11908999E-25      0.88427541E-37
    0.251201811381         0.79662308E-07      0.32408103E-17     -0.56967187E-28      0.63698089E-25     -0.11196894E-35      0.12309026E-25      0.81395841E-37
    0.257481856666         0.85039131E-07      0.31514722E-17     -0.76645613E-28      0.64510192E-25     -0.15689249E-35      0.12714153E-25      0.71542922E-37
    0.263761901951         0.90689267E-07      0.30662180E-17     -0.46548754E-28      0.65341564E-25     -0.99196091E-36      0.13124501E-25      0.65313362E-37
    0.270041947235         0.96623785E-07      0.29848997E-17     -0.57749747E-28      0.66195007E-25     -0.12806946E-35      0.13540208E-25      0.57270542E-37
    0.276321992520         0.10285409E-06      0.29086861E-17     -0.37436774E-28      0.67103576E-25     -0.86366879E-36      0.13961622E-25      0.51846663E-37
    0.282602037804         0.10939194E-06      0.28360557E-17     -0.23480022E-28      0.68040499E-25     -0.56331488E-36      0.14388919E-25      0.48309020E-37
    0.288882083089         0.11624942E-06      0.27700912E-17     -0.22670612E-28      0.69088685E-25     -0.56542644E-36      0.14822799E-25      0.44758116E-37
    0.295162128373         0.12343895E-06      0.27074932E-17     -0.19403265E-28      0.70178104E-25     -0.50293177E-36      0.15263521E-25      0.41599682E-37
    0.301442173658         0.13097330E-06      0.26491598E-17     -0.28143777E-28      0.71339423E-25     -0.75788587E-36      0.15711536E-25      0.36840125E-37
    0.307722218942         0.13886558E-06      0.25967866E-17     -0.63437709E-29      0.72629773E-25     -0.17742954E-36      0.16167654E-25      0.35725859E-37
    0.314002264227         0.14712923E-06      0.25861125E-17     -0.18940640E-28      0.75102824E-25     -0.55005171E-36      0.16639303E-25      0.32271509E-37
    0.320282309511         0.15577804E-06      0.24630533E-17     -0.18892409E-28      0.74248856E-25     -0.56951255E-36      0.17105589E-25      0.28694945E-37
    0.326562354796         0.16482612E-06      0.22113971E-17      0.30552424E-29      0.69178212E-25      0.95575873E-37      0.17540032E-25      0.29295166E-37
    0.332842400080         0.17428793E-06      0.21538575E-17     -0.18511916E-28      0.69901795E-25     -0.60079003E-36      0.17979018E-25      0.25522177E-37
    0.339122445365         0.18417826E-06      0.22061790E-17     -0.10326927E-28      0.74261761E-25     -0.34761270E-36      0.18445385E-25      0.23339153E-37
    0.345402490650         0.19451221E-06      0.21823197E-17     -0.91558119E-29      0.76169737E-25     -0.31956628E-36      0.18923735E-25      0.21332263E-37
    0.351682535934         0.20530523E-06      0.21437743E-17     -0.94069129E-29      0.77565918E-25     -0.34036039E-36      0.19410852E-25      0.19194784E-37
    0.357962581219         0.21657306E-06      0.21038900E-17      0.25277817E-29      0.78891918E-25      0.94787061E-37      0.19906297E-25      0.19790051E-37
    0.364242626503         0.22833179E-06      0.20899551E-17     -0.13221120E-28      0.81199853E-25     -0.51367276E-36      0.20416236E-25      0.16564163E-37
    0.370522671788         0.24059779E-06      0.20754336E-17     -0.49931022E-29      0.83527283E-25     -0.20095091E-36      0.20940791E-25      0.15302182E-37
    0.376802717072         0.25338774E-06      0.20131843E-17     -0.21333229E-29      0.83906922E-25     -0.88914141E-37      0.21467730E-25      0.14743797E-37
    0.383082762357         0.26671863E-06      0.19527838E-17     -0.16632327E-29      0.84267010E-25     -0.71772227E-37      0.21996931E-25      0.14293065E-37
    0.389362807641         0.28060773E-06      0.19155817E-17     -0.41674007E-29      0.85563496E-25     -0.18614574E-36      0.22534273E-25      0.13124061E-37
    0.395642852926         0.29507259E-06      0.18792385E-17      0.12178461E-29      0.86866057E-25      0.56293806E-37      0.23079796E-25      0.13477588E-37
    0.401922898210         0.31013104E-06      0.18427983E-17     -0.28872555E-29      0.88129834E-25     -0.13807987E-36      0.23633255E-25      0.12610441E-37
    0.408202943495         0.32580116E-06      0.18066201E-17      0.74458307E-29      0.89368815E-25      0.36832596E-36      0.24194496E-25      0.14923544E-37
    0.414482988779         0.34210131E-06      0.17716662E-17      0.68815026E-29      0.90630129E-25      0.35202538E-36      0.24763657E-25      0.17134280E-37
    0.420763034064         0.35905007E-06      0.17367856E-17      0.10277426E-28      0.91855745E-25      0.54355623E-36      0.25340515E-25      0.20547837E-37
    0.427043079349         0.37666626E-06      0.17034384E-17      0.84345669E-29      0.93122393E-25      0.46109509E-36      0.25925328E-25      0.23443535E-37
    0.433323124633         0.39496893E-06      0.16685357E-17      0.13666990E-28      0.94260394E-25      0.77208767E-36      0.26517288E-25      0.28292281E-37
    0.439603169918         0.41397733E-06      0.16351585E-17     -0.66786892E-29      0.95437329E-25     -0.38980702E-36      0.27116638E-25      0.25844275E-37
    0.445883215202         0.43371092E-06      0.15946213E-17     -0.34852932E-29      0.96134544E-25     -0.21011701E-36      0.27720368E-25      0.24524731E-37
    0.452163260487         0.45418931E-06      0.15489177E-17     -0.18683894E-29      0.96430111E-25     -0.11631928E-36      0.28325953E-25      0.23794241E-37
    0.458443305771         0.47543232E-06      0.13617471E-17     -0.46372669E-29      0.87527033E-25     -0.29806284E-36      0.28875627E-25      0.21922392E-37
    0.464723351056         0.49745989E-06      0.12314479E-17     -0.13346769E-29      0.81700045E-25     -0.88548739E-37      0.29388707E-25      0.21366302E-37
    0.471003396340         0.52029212E-06      0.14552102E-17      0.22370562E-29      0.99630343E-25      0.15315909E-36      0.30014390E-25      0.22328148E-37
    0.477283441625         0.54394922E-06      0.16157909E-17      0.23422373E-29      0.11413263E-24      0.16544573E-36      0.30731148E-25      0.23367155E-37
    0.483563486909         0.56845152E-06      0.15554256E-17      0.46709050E-29      0.11332660E-24      0.34031699E-36      0.31442844E-25      0.25504361E-37
    0.489843532194         0.59381941E-06      0.15098294E-17      0.80660257E-30      0.11344035E-24      0.60603720E-37      0.32155255E-25      0.25884955E-37
    0.496123577478         0.62007337E-06      0.14708672E-17      0.37604228E-29      0.11393820E-24      0.29129468E-36      0.32870792E-25      0.27714299E-37
    0.502403622763         0.64723393E-06      0.14330931E-17     -0.17639553E-30      0.11442623E-24     -0.14084414E-37      0.33589394E-25      0.27625848E-37
    0.508683668048         0.67532166E-06      0.13463143E-17     -0.15254731E-29      0.11077761E-24     -0.12551918E-36      0.34285082E-25      0.26837582E-37
    0.514963713332         0.70435711E-06      0.13935645E-17     -0.91810292E-31      0.11813703E-24     -0.77830590E-38      0.35026988E-25      0.26788704E-37
    0.521243758617         0.73436086E-06      0.16238958E-17     -0.31370037E-29      0.14179779E-24     -0.27392165E-36      0.35917485E-25      0.25068464E-37
    0.527523803901         0.76535344E-06      0.16302938E-17      0.39393902E-29      0.14659816E-24      0.35423515E-36      0.36838128E-25      0.27293077E-37
    0.533803849186         0.79735534E-06      0.15086245E-17     -0.72768296E-29      0.13966707E-24     -0.67368222E-36      0.37715243E-25      0.23062322E-37
    0.540083894470         0.83038696E-06      0.14510756E-17     -0.37192350E-29      0.13827766E-24     -0.35441785E-36      0.38583633E-25      0.20836562E-37
    0.546363939755         0.86446862E-06      0.14422708E-17     -0.16417622E-29      0.14143494E-24     -0.16099787E-36      0.39471851E-25      0.19825488E-37
    0.552643985039         0.89962053E-06      0.14506464E-17     -0.49545407E-29      0.14635857E-24     -0.49987336E-36      0.40390989E-25      0.16686260E-37
    0.558924030324         0.93586274E-06      0.14234886E-17     -0.17358988E-29      0.14772570E-24     -0.18014676E-36      0.41318714E-25      0.15554931E-37
    0.565204075608         0.97321515E-06      0.14041537E-17      0.12352329E-29      0.14985143E-24      0.13182419E-36      0.42259787E-25      0.16382792E-37
    0.571484120893         0.10116975E-05      0.13911246E-17      0.11543271E-29      0.15263538E-24      0.12665376E-36      0.43218344E-25      0.17178184E-37
    0.577764166177         0.10513292E-05      0.13836835E-17      0.83748160E-30      0.15605136E-24      0.94450892E-37      0.44198354E-25      0.17771340E-37
    0.584044211462         0.10921295E-05      0.13604006E-17     -0.18848681E-29      0.15766595E-24     -0.21845000E-36      0.45188503E-25      0.16399464E-37
    0.590324256747         0.11341175E-05      0.13612125E-17      0.11247406E-29      0.16208247E-24      0.13392525E-36      0.46206389E-25      0.17240520E-37
    0.596604302031         0.11773119E-05      0.13210337E-17     -0.33603812E-29      0.16157037E-24     -0.41099484E-36      0.47221058E-25      0.14659454E-37
    0.602884347316         0.12217310E-05      0.13175190E-17     -0.30068493E-29      0.16547833E-24     -0.37765558E-36      0.48260269E-25      0.12287760E-37
    0.609164392600         0.12673928E-05      0.12234050E-17     -0.19925044E-29      0.15775736E-24     -0.25693230E-36      0.49250993E-25      0.10674214E-37
    0.615444437885         0.13143151E-05      0.12283174E-17     -0.38172728E-29      0.16257881E-24     -0.50525024E-36      0.50271995E-25      0.75012192E-38
    0.621724483169         0.13625152E-05      0.83771631E-18     -0.20711451E-29      0.11378448E-24     -0.28131739E-36      0.50986567E-25      0.57345332E-38
    0.628004528454         0.14120099E-05      0.19903875E-17     -0.14636692E-30      0.27736731E-24     -0.20396730E-37      0.52728446E-25      0.56064409E-38
    0.634284573738         0.14628155E-05      0.67713257E-17     -0.10905447E-29      0.96788063E-24     -0.15588042E-36      0.58806780E-25      0.46275048E-38
    0.640564619023         0.15149482E-05      0.76241069E-17     -0.13340646E-29      0.11175488E-23     -0.19554844E-36      0.65825037E-25      0.33994517E-38
    0.646844664307         0.15684233E-05      0.36737160E-17     -0.28692044E-29      0.55209210E-24     -0.43118877E-36      0.69292200E-25      0.69156666E-39
    0.653124709592         0.16232557E-05      0.22038748E-17      0.63904996E-30      0.33948486E-24      0.98439253E-37      0.71424181E-25      0.13097696E-38
    0.659404754876         0.16794598E-05      0.21942726E-17     -0.13842873E-29      0.34637839E-24     -0.21851760E-36      0.73599453E-25     -0.62530814E-40
    0.665684800161         0.17370493E-05      0.21945264E-17     -0.62986307E-30      0.35491716E-24     -0.10186672E-36      0.75828348E-25     -0.70225844E-39
    0.671964845445         0.17960375E-05      0.22563626E-17     -0.74907772E-30      0.37378374E-24     -0.12409046E-36      0.78175727E-25     -0.14815522E-38
    0.678244890730         0.18564368E-05      0.29105569E-17     -0.25102063E-29      0.49375603E-24     -0.42583929E-36      0.81276538E-25     -0.41558422E-38
    0.684524936015         0.19182592E-05      0.84430992E-17     -0.28319195E-29      0.14664342E-23     -0.49186009E-36      0.90485811E-25     -0.72447459E-38
    0.690804981299         0.19815157E-05      0.18724554E-16     -0.15074766E-29      0.33288652E-23     -0.26800032E-36      0.11139124E-24     -0.89278000E-38
    0.697085026584         0.20462170E-05      0.24677715E-16     -0.18243199E-29      0.44896609E-23     -0.33190179E-36      0.13958651E-24     -0.11012158E-37
    0.703365071868         0.21123726E-05      0.19149081E-16     -0.49595290E-30      0.35643498E-23     -0.92315118E-37      0.16197079E-24     -0.11591901E-37
    0.709645117153         0.21799915E-05      0.12552233E-16     -0.20188180E-29      0.23898863E-23     -0.38437349E-36      0.17697938E-24     -0.14005784E-37
    0.715925162437         0.22490820E-05      0.13555834E-16     -0.19376353E-29      0.26394083E-23     -0.37727008E-36      0.19355499E-24     -0.16375058E-37
    0.722205207722         0.23196512E-05      0.16671784E-16     -0.21603677E-29      0.33188440E-23     -0.43006334E-36      0.21439748E-24     -0.19075875E-37
    0.728485253006         0.23917059E-05      0.17435499E-16     -0.22229701E-29      0.35478403E-23     -0.45233823E-36      0.23667807E-24     -0.21916579E-37
    0.734765298291         0.24652514E-05      0.15786203E-16     -0.26427939E-31      0.32827132E-23     -0.54956435E-38      0.25729366E-24     -0.21951092E-37
    0.741045343575         0.25402927E-05      0.15169047E-16     -0.18621095E-29      0.32228490E-23     -0.39562787E-36      0.27753330E-24     -0.24435653E-37
    0.747325388860         0.26168335E-05      0.15190919E-16     -0.27092565E-29      0.32968036E-23     -0.58797539E-36      0.29823738E-24     -0.28128165E-37
    0.753605434144         0.26948767E-05      0.16741885E-16     -0.32472162E-30      0.37105809E-23     -0.71969544E-37      0.32153999E-24     -0.28580137E-37
    0.759885479429         0.27744242E-05      0.16586275E-16     -0.59732562E-30      0.37533258E-23     -0.13516944E-36      0.34511105E-24     -0.29429007E-37
    0.766165524714         0.28554769E-05      0.12983028E-16      0.10941509E-29      0.29989879E-23      0.25274114E-36      0.36394483E-24     -0.27841782E-37
