 
 # Omega; pulse ft; projected flux at t=    500.250000000000     
    0.000000000000         0.10341091E-10      0.00000000E+00      0.00000000E+00      0.74333539E-23      0.38462175E-34
    0.006276908399         0.40699280E-10      0.19046265E-14      0.10078242E-25      0.72138078E-23      0.38171527E-34
    0.012553816798         0.13187398E-09      0.11398272E-14      0.62043381E-26      0.69941694E-23      0.38070853E-34
    0.018830725196         0.28416575E-09      0.79755902E-15      0.43272245E-26      0.70304209E-23      0.38144149E-34
    0.025107633595         0.49807598E-09      0.61341476E-15      0.33085995E-26      0.71081706E-23      0.38339621E-34
    0.031384541994         0.77430759E-09      0.49968919E-15      0.26035174E-26      0.72013095E-23      0.37520792E-34
    0.037661450393         0.11137660E-08      0.42233740E-15      0.21894005E-26      0.72957555E-23      0.37821255E-34
    0.043938358791         0.15175606E-08      0.36678547E-15      0.19409169E-26      0.73999387E-23      0.39158219E-34
    0.050215267190         0.19870057E-08      0.32453966E-15      0.16670008E-26      0.75014447E-23      0.38531235E-34
    0.056492175589         0.25236231E-08      0.29175322E-15      0.14877847E-26      0.76131723E-23      0.38823089E-34
    0.062769083988         0.31291437E-08      0.26508254E-15      0.13296339E-26      0.77192417E-23      0.38719131E-34
    0.069045992387         0.38055096E-08      0.24340332E-15      0.12164353E-26      0.78363647E-23      0.39163110E-34
    0.075322900785         0.45548772E-08      0.22503549E-15      0.10799969E-26      0.79490358E-23      0.38149246E-34
    0.081599809184         0.53796196E-08      0.20965090E-15      0.99086567E-27      0.80737067E-23      0.38158475E-34
    0.087876717583         0.62823298E-08      0.19615285E-15      0.93565611E-27      0.81913471E-23      0.39073019E-34
    0.094153625982         0.72658239E-08      0.18462107E-15      0.86116290E-27      0.83222908E-23      0.38819232E-34
    0.100430534380         0.83331444E-08      0.17425528E-15      0.79028253E-27      0.84458408E-23      0.38303575E-34
    0.106707442779         0.94875639E-08      0.16526688E-15      0.73980284E-27      0.85834054E-23      0.38422870E-34
    0.112984351178         0.10732589E-07      0.15703782E-15      0.69890852E-27      0.87137333E-23      0.38781120E-34
    0.119261259577         0.12071965E-07      0.14982044E-15      0.64239150E-27      0.88585666E-23      0.37983253E-34
    0.125538167976         0.13509678E-07      0.14310781E-15      0.61801607E-27      0.89959355E-23      0.38849262E-34
    0.131815076374         0.15049961E-07      0.13716552E-15      0.56666158E-27      0.91480606E-23      0.37792694E-34
    0.138091984773         0.16697298E-07      0.13158043E-15      0.54338420E-27      0.92935755E-23      0.38379431E-34
    0.144368893172         0.18456429E-07      0.12659525E-15      0.50135866E-27      0.94537752E-23      0.37440046E-34
    0.150645801571         0.20332352E-07      0.12186706E-15      0.47654759E-27      0.96079502E-23      0.37570820E-34
    0.156922709970         0.22330332E-07      0.11761499E-15      0.46209209E-27      0.97765549E-23      0.38410655E-34
    0.163199618368         0.24455902E-07      0.11355560E-15      0.42182654E-27      0.99400116E-23      0.36924298E-34
    0.169476526767         0.26714868E-07      0.10987713E-15      0.42469516E-27      0.10117299E-22      0.39105207E-34
    0.175753435166         0.29113317E-07      0.10635840E-15      0.38632463E-27      0.10291377E-22      0.37381271E-34
    0.182030343565         0.31657619E-07      0.10314411E-15      0.37091682E-27      0.10478345E-22      0.37681206E-34
    0.188307251963         0.34354433E-07      0.10006394E-15      0.34268158E-27      0.10663681E-22      0.36519120E-34
    0.194584160362         0.37210710E-07      0.97227890E-16      0.33113761E-27      0.10860883E-22      0.36989868E-34
    0.200861068761         0.40233700E-07      0.94512900E-16      0.32802908E-27      0.11058573E-22      0.38381360E-34
    0.207137977160         0.43430955E-07      0.91992048E-16      0.29835495E-27      0.11266882E-22      0.36541528E-34
    0.213414885559         0.46810335E-07      0.89587201E-16      0.29790675E-27      0.11478280E-22      0.38169036E-34
    0.219691793957         0.50380010E-07      0.87336355E-16      0.28187795E-27      0.11699122E-22      0.37758899E-34
    0.225968702356         0.54148468E-07      0.85193076E-16      0.27535548E-27      0.11924934E-22      0.38542990E-34
    0.232245610755         0.58124513E-07      0.83173483E-16      0.25998285E-27      0.12159354E-22      0.38007589E-34
    0.238522519154         0.62317278E-07      0.81254503E-16      0.24420428E-27      0.12400532E-22      0.37268865E-34
    0.244799427552         0.66736218E-07      0.79435706E-16      0.25150556E-27      0.12649716E-22      0.40050929E-34
    0.251076335951         0.71391124E-07      0.77712661E-16      0.21692402E-27      0.12907556E-22      0.36029637E-34
    0.257353244350         0.76292116E-07      0.76070240E-16      0.23127934E-27      0.13172815E-22      0.40049827E-34
    0.263630152749         0.81449655E-07      0.74520229E-16      0.21259567E-27      0.13448757E-22      0.38367401E-34
    0.269907061148         0.86874540E-07      0.73037117E-16      0.20493723E-27      0.13732060E-22      0.38531235E-34
    0.276183969546         0.92577913E-07      0.71639990E-16      0.19490438E-27      0.14027434E-22      0.38163159E-34
    0.282460877945         0.98571259E-07      0.70300118E-16      0.18423711E-27      0.14330517E-22      0.37556310E-34
    0.288737786344         0.10486641E-06      0.69042682E-16      0.18745976E-27      0.14647525E-22      0.39769913E-34
    0.295014694743         0.11147554E-06      0.67836474E-16      0.16573020E-27      0.14973145E-22      0.36580650E-34
    0.301291603141         0.11841119E-06      0.66701379E-16      0.18057612E-27      0.15312790E-22      0.41455278E-34
    0.307568511540         0.12568621E-06      0.65614500E-16      0.15553068E-27      0.15662439E-22      0.37125785E-34
    0.313845419939         0.13331385E-06      0.64599950E-16      0.14844593E-27      0.16028964E-22      0.36833381E-34
    0.320122328338         0.14130766E-06      0.63633511E-16      0.14210276E-27      0.16407765E-22      0.36640894E-34
    0.326399236737         0.14968158E-06      0.62716535E-16      0.13352367E-27      0.16800224E-22      0.35767722E-34
    0.332676145135         0.15844985E-06      0.61854289E-16      0.13445707E-27      0.17208927E-22      0.37408271E-34
    0.338953053534         0.16762710E-06      0.61038377E-16      0.12045274E-27      0.17632808E-22      0.34796469E-34
    0.345229961933         0.17722828E-06      0.60280395E-16      0.13333517E-27      0.18076503E-22      0.39983706E-34
    0.351506870332         0.18726866E-06      0.59555076E-16      0.11723160E-27      0.18533775E-22      0.36482937E-34
    0.357783778731         0.19776389E-06      0.58896815E-16      0.11859913E-27      0.19016560E-22      0.38293198E-34
    0.364060687129         0.20872991E-06      0.58254319E-16      0.11654433E-27      0.19509801E-22      0.39031555E-34
    0.370337595528         0.22018301E-06      0.57688242E-16      0.10865959E-27      0.20034897E-22      0.37737042E-34
    0.376614503927         0.23213979E-06      0.57136608E-16      0.10747662E-27      0.20572203E-22      0.38697274E-34
    0.382891412326         0.24461718E-06      0.56672795E-16      0.10290100E-27      0.21149484E-22      0.38401196E-34
    0.389168320724         0.25763241E-06      0.56195914E-16      0.10624450E-27      0.21731093E-22      0.41084997E-34
    0.395445229123         0.27120301E-06      0.55826975E-16      0.93641403E-28      0.22364854E-22      0.37513698E-34
    0.401722137522         0.28534681E-06      0.55425144E-16      0.93652912E-28      0.22996825E-22      0.38858170E-34
    0.407999045921         0.30008192E-06      0.55153146E-16      0.88015720E-28      0.23695440E-22      0.37814184E-34
    0.414275954320         0.31542674E-06      0.54825970E-16      0.82417150E-28      0.24384222E-22      0.36655587E-34
    0.420552862718         0.33139993E-06      0.54657084E-16      0.86229874E-28      0.25158925E-22      0.39692036E-34
    0.426829771117         0.34802041E-06      0.54402032E-16      0.81692977E-28      0.25910688E-22      0.38908863E-34
    0.433106679516         0.36530735E-06      0.54345156E-16      0.79498027E-28      0.26775536E-22      0.39168206E-34
    0.439383587915         0.38328015E-06      0.54161711E-16      0.73103700E-28      0.27598068E-22      0.37249947E-34
    0.445660496313         0.40195843E-06      0.54241586E-16      0.70245127E-28      0.28577431E-22      0.37008970E-34
    0.451937404712         0.42136202E-06      0.54135035E-16      0.71457502E-28      0.29482841E-22      0.38916945E-34
    0.458214313111         0.44151098E-06      0.54511449E-16      0.65192439E-28      0.30681344E-22      0.36693056E-34
    0.464491221510         0.46242550E-06      0.54372193E-16      0.67717901E-28      0.31619494E-22      0.39380530E-34
    0.470768129909         0.48412598E-06      0.54050084E-16      0.64203934E-28      0.32468447E-22      0.38567970E-34
    0.477045038307         0.50663295E-06      0.54050687E-16      0.61572847E-28      0.33531198E-22      0.38197689E-34
    0.483321946706         0.52996708E-06      0.54640828E-16      0.58993993E-28      0.34998018E-22      0.37786266E-34
    0.489598855105         0.55414917E-06      0.54698026E-16      0.56470032E-28      0.36163608E-22      0.37335170E-34
    0.495875763504         0.57920011E-06      0.55342497E-16      0.54877524E-28      0.37759681E-22      0.37442434E-34
    0.502152671902         0.60514088E-06      0.55412790E-16      0.50273913E-28      0.39007178E-22      0.35389727E-34
    0.508429580301         0.63199252E-06      0.56263164E-16      0.52355900E-28      0.40852542E-22      0.38015487E-34
    0.514706488700         0.65977612E-06      0.56248655E-16      0.51739718E-28      0.42117530E-22      0.38741355E-34
    0.520983397099         0.68851279E-06      0.57147933E-16      0.46810161E-28      0.44116643E-22      0.36136166E-34
    0.527260305498         0.71822366E-06      0.57218109E-16      0.45798507E-28      0.45528353E-22      0.36441794E-34
    0.533537213896         0.74892983E-06      0.58654705E-16      0.45108467E-28      0.48094241E-22      0.36986930E-34
    0.539814122295         0.78065236E-06      0.58589603E-16      0.41975573E-28      0.49493458E-22      0.35458787E-34
    0.546091030694         0.81341227E-06      0.60308656E-16      0.40462983E-28      0.52473391E-22      0.35206056E-34
    0.552367939093         0.84723047E-06      0.59904729E-16      0.37965983E-28      0.53672029E-22      0.34015868E-34
    0.558644847491         0.88212778E-06      0.62055008E-16      0.38977998E-28      0.57238249E-22      0.35952495E-34
    0.564921755890         0.91812490E-06      0.61024972E-16      0.35338430E-28      0.57934179E-22      0.33548609E-34
    0.571198664289         0.95524236E-06      0.63863247E-16      0.34595388E-28      0.62386582E-22      0.33795463E-34
    0.577475572688         0.99350052E-06      0.61442229E-16      0.31719177E-28      0.61746913E-22      0.31876468E-34
    0.583752481087         0.10329195E-05      0.65211448E-16      0.34718442E-28      0.67402406E-22      0.35884904E-34
    0.590029389485         0.10735193E-05      0.59780055E-16      0.35232879E-28      0.63534020E-22      0.37445373E-34
    0.596306297884         0.11153196E-05      0.64850283E-16      0.31699063E-28      0.70852568E-22      0.34633002E-34
    0.602583206283         0.11583396E-05      0.51688248E-16      0.33248216E-28      0.58039613E-22      0.37333701E-34
    0.608860114682         0.12025986E-05      0.58687484E-16      0.29974106E-28      0.67711506E-22      0.34583044E-34
    0.615137023081         0.12481153E-05      0.19377157E-16      0.33113708E-28      0.22966070E-22      0.39246818E-34
    0.621413931479         0.12949080E-05      0.27540660E-16      0.30405525E-28      0.33523247E-22      0.37010440E-34
    0.627690839878         0.13429948E-05     -0.19676816E-15      0.36587085E-28     -0.24592188E-21      0.45726730E-34
    0.633967748277         0.13923932E-05     -0.71399867E-15      0.75828505E-28     -0.91602206E-21      0.97283912E-34
    0.640244656676         0.14431204E-05     -0.49032602E-16      0.30770066E-28     -0.64558784E-22      0.40513413E-34
    0.646521565074         0.14951931E-05      0.46342250E-15      0.18568931E-28      0.62604446E-21      0.25085049E-34
    0.652798473473         0.15486273E-05      0.33296589E-15      0.82961732E-29      0.46140398E-21      0.11496335E-34
    0.659075381872         0.16034389E-05      0.38647366E-15      0.13151841E-28      0.54922590E-21      0.18690360E-34
    0.665352290271         0.16596427E-05      0.40951142E-15     -0.45662556E-29      0.59668177E-21     -0.66532980E-35
    0.671629198670         0.17172535E-05      0.54149363E-15      0.27515242E-28      0.80874570E-21      0.41095283E-34
    0.677906107068         0.17762849E-05      0.66298801E-15      0.43315443E-29      0.10147582E-20      0.66297881E-35
    0.684183015467         0.18367504E-05      0.13825427E-14      0.80356992E-29      0.21680547E-20      0.12601299E-34
    0.690459923866         0.18986625E-05      0.33176923E-14      0.51050961E-28      0.53291653E-20      0.82002486E-34
    0.696736832265         0.19620330E-05      0.56467909E-14     -0.13331768E-27      0.92886597E-20     -0.21930023E-33
    0.703013740663         0.20268732E-05      0.59040370E-14     -0.17198267E-28      0.99431879E-20     -0.28964181E-34
    0.709290649062         0.20931935E-05      0.62773503E-14     -0.24613914E-27      0.10821197E-19     -0.42430644E-33
    0.715567557461         0.21610035E-05      0.92912730E-14     -0.18082054E-27      0.16390562E-19     -0.31898215E-33
    0.721844465860         0.22303120E-05      0.12759503E-13     -0.72029180E-27      0.23028706E-19     -0.13000027E-32
    0.728121374259         0.23011271E-05      0.13190916E-13     -0.47516938E-27      0.24351493E-19     -0.87720090E-33
    0.734398282657         0.23734559E-05      0.12135167E-13     -0.87910898E-27      0.22909155E-19     -0.16596099E-32
    0.740675191056         0.24473047E-05      0.11950679E-13     -0.61352350E-27      0.23065700E-19     -0.11841460E-32
    0.746952099455         0.25226788E-05      0.11858271E-13     -0.36075191E-27      0.23393994E-19     -0.71169130E-33
    0.753229007854         0.25995828E-05      0.12650456E-13     -0.84411711E-27      0.25503313E-19     -0.17017397E-32
    0.759505916252         0.26780200E-05      0.12795072E-13      0.14391309E-27      0.26353554E-19      0.29641266E-33
    0.765782824651         0.27579930E-05      0.10885133E-13     -0.27249225E-27      0.22899978E-19     -0.57326509E-33
    0.772059733050         0.28395032E-05      0.10391826E-13     -0.44123078E-28      0.22325292E-19     -0.94791864E-34
    0.778336641449         0.29225512E-05      0.11594540E-13     -0.47539575E-27      0.25430915E-19     -0.10427105E-32
    0.784613549848         0.30071363E-05      0.11667729E-13     -0.23388299E-27      0.26121461E-19     -0.52361220E-33
    0.790890458246         0.30932570E-05      0.11721353E-13     -0.65925150E-27      0.26778807E-19     -0.15061374E-32
    0.797167366645         0.31809104E-05      0.11653522E-13     -0.41313764E-27      0.27162698E-19     -0.96296497E-33
    0.803444275044         0.32700927E-05      0.11550068E-13     -0.16644400E-27      0.27460133E-19     -0.39571842E-33
    0.809721183443         0.33607990E-05      0.11382202E-13     -0.57963760E-27      0.27596062E-19     -0.14053270E-32
    0.815998091842         0.34530231E-05      0.11111263E-13     -0.33478736E-27      0.27465504E-19     -0.82754802E-33
    0.822275000240         0.35467578E-05      0.10810305E-13     -0.72198565E-27      0.27237435E-19     -0.18191010E-32
    0.828551908639         0.36419946E-05      0.10393809E-13     -0.47465948E-27      0.26687513E-19     -0.12187525E-32
    0.834828817038         0.37387238E-05      0.99924971E-14     -0.81443047E-27      0.26140494E-19     -0.21305600E-32
    0.841105725437         0.38369346E-05      0.94890227E-14     -0.57538308E-27      0.25285357E-19     -0.15332208E-32
    0.847382633835         0.39366149E-05      0.90269357E-14     -0.86995399E-27      0.24496133E-19     -0.23607688E-32
    0.853659542234         0.40377513E-05      0.84779574E-14     -0.16065116E-27      0.23423938E-19     -0.44386667E-33
    0.859936450633         0.41403294E-05      0.79797512E-14      0.14444814E-28      0.22442524E-19      0.40625085E-34
    0.866213359032         0.42443332E-05      0.74136135E-14     -0.25811522E-27      0.21219167E-19     -0.73877469E-33
    0.872490267431         0.43497456E-05      0.69031975E-14     -0.93517312E-28      0.20103301E-19     -0.27233853E-33
    0.878767175829         0.44565484E-05      0.63472080E-14     -0.31236835E-27      0.18802749E-19     -0.92534915E-33
    0.885044084228         0.45647219E-05      0.58506121E-14     -0.16480912E-27      0.17626437E-19     -0.49652881E-33
    0.891320992627         0.46742450E-05      0.53262058E-14     -0.34063231E-27      0.16315827E-19     -0.10434628E-32
    0.897597901026         0.47850957E-05      0.48626568E-14     -0.21042439E-27      0.15142452E-19     -0.65526757E-33
    0.903874809424         0.48972503E-05      0.43754922E-14     -0.97935448E-28      0.13847926E-19     -0.30995435E-33
    0.910151717823         0.50106841E-05      0.39500443E-14     -0.23183401E-27      0.12702786E-19     -0.74554554E-33
    0.916428626222         0.51253709E-05      0.34767694E-14     -0.12941851E-27      0.11358379E-19     -0.42280181E-33
    0.922705534621         0.52412834E-05      0.30792666E-14     -0.22401090E-27      0.10217287E-19     -0.74328859E-33
    0.928982443020         0.53583927E-05      0.26671733E-14     -0.13709703E-27      0.89865308E-20     -0.46192226E-33
    0.935259351418         0.54766690E-05      0.31227975E-14     -0.27470384E-27      0.10681741E-19     -0.93964316E-33
    0.941536259817         0.55960809E-05      0.37825875E-14     -0.42254639E-28      0.13132570E-19     -0.14670169E-33
    0.947813168216         0.57165958E-05      0.31296052E-14     -0.14669952E-27      0.11026003E-19     -0.51684136E-33
    0.954090076615         0.58381799E-05      0.25435365E-14     -0.65667913E-28      0.90915908E-20     -0.23472271E-33
    0.960366985013         0.59607981E-05      0.22589548E-14     -0.95450313E-29      0.81900873E-20     -0.34606554E-34
    0.966643893412         0.60844141E-05      0.19791040E-14     -0.78673924E-28      0.72767033E-20     -0.28926565E-33
    0.972920801811         0.62089900E-05      0.17859486E-14     -0.32895072E-28      0.66577307E-20     -0.12262757E-33
    0.979197710210         0.63344872E-05      0.15961540E-14     -0.86105670E-28      0.60315603E-20     -0.32537684E-33
    0.985474618609         0.64608656E-05      0.14662461E-14     -0.47834410E-28      0.56152091E-20     -0.18318904E-33
    0.991751527007         0.65880838E-05      0.13987053E-14     -0.96260859E-28      0.54274552E-20     -0.37352508E-33
    0.998028435406         0.67160994E-05      0.17974704E-14     -0.90143294E-28      0.70656112E-20     -0.35434102E-33
    1.004305343805         0.68448687E-05      0.19823272E-14     -0.17167707E-27      0.78920256E-20     -0.68347944E-33
    1.010582252204         0.69743470E-05      0.13537588E-14     -0.86591012E-28      0.54574148E-20     -0.34907480E-33
    1.016859160602         0.71044882E-05      0.99189289E-15     -0.40277839E-28      0.40480939E-20     -0.16438113E-33
