 
 # eight columns.
 # Omega (column 1); |pulse ft|^2 (2); cross section (Mb) (3); flux (5); flux in
 tegral domega (7)
 
  0.0000      0.237334E-09      0.000000E+00      0.000000E+00      0.111553E-06     -0.440457E-19      0.557208E-10     -0.220009E-22
  0.0063      0.268472E-09      0.308573E+01     -0.138352E-11      0.102793E-06     -0.460883E-19      0.107066E-09     -0.450220E-22
  0.0126      0.361985E-09      0.413981E+01     -0.218290E-11      0.929709E-07     -0.490231E-19      0.153505E-09     -0.695090E-22
  0.0188      0.518176E-09      0.428653E+01     -0.226098E-11      0.918689E-07     -0.484573E-19      0.199393E-09     -0.937135E-22
  0.0251      0.737552E-09      0.403440E+01     -0.177188E-11      0.923034E-07     -0.405391E-19      0.245499E-09     -0.113963E-21
  0.0314      0.102082E-08      0.367418E+01     -0.225917E-11      0.930780E-07     -0.572316E-19      0.291992E-09     -0.142550E-21
  0.0377      0.136890E-08      0.332000E+01     -0.120708E-11      0.939862E-07     -0.341715E-19      0.338938E-09     -0.159619E-21
  0.0439      0.178290E-08      0.300455E+01     -0.126487E-11      0.949541E-07     -0.399743E-19      0.386367E-09     -0.179586E-21
  0.0502      0.226414E-08      0.273706E+01     -0.943429E-12      0.961180E-07     -0.331307E-19      0.434378E-09     -0.196135E-21
  0.0565      0.281418E-08      0.250787E+01     -0.125610E-11      0.973016E-07     -0.487350E-19      0.482980E-09     -0.220478E-21
  0.0628      0.343474E-08      0.231104E+01     -0.110395E-11      0.984935E-07     -0.470488E-19      0.532178E-09     -0.243979E-21
  0.0690      0.412779E-08      0.214193E+01     -0.920582E-12      0.997325E-07     -0.428641E-19      0.581994E-09     -0.265389E-21
  0.0753      0.489549E-08      0.199526E+01     -0.124151E-11      0.101000E-06     -0.628450E-19      0.632444E-09     -0.296780E-21
  0.0816      0.574024E-08      0.186754E+01     -0.609715E-12      0.102321E-06     -0.334057E-19      0.683553E-09     -0.313467E-21
  0.0879      0.666466E-08      0.175464E+01     -0.686855E-12      0.103644E-06     -0.405716E-19      0.735323E-09     -0.333732E-21
  0.0942      0.767157E-08      0.165513E+01     -0.721939E-12      0.105034E-06     -0.458142E-19      0.787788E-09     -0.356616E-21
  0.1004      0.876404E-08      0.156571E+01     -0.869633E-12      0.106415E-06     -0.591054E-19      0.840942E-09     -0.386139E-21
  0.1067      0.994536E-08      0.148603E+01     -0.567287E-12      0.107872E-06     -0.411795E-19      0.894824E-09     -0.406709E-21
  0.1130      0.112191E-07      0.141356E+01     -0.562113E-12      0.109322E-06     -0.434725E-19      0.949430E-09     -0.428423E-21
  0.1193      0.125889E-07      0.134835E+01     -0.796913E-12      0.110853E-06     -0.655168E-19      0.100480E-08     -0.461149E-21
  0.1255      0.140589E-07      0.128837E+01     -0.389821E-12      0.112375E-06     -0.340013E-19      0.106093E-08     -0.478133E-21
  0.1318      0.156334E-07      0.123396E+01     -0.353252E-12      0.113983E-06     -0.326306E-19      0.111787E-08     -0.494432E-21
  0.1381      0.173167E-07      0.118345E+01     -0.376700E-12      0.115585E-06     -0.367913E-19      0.117560E-08     -0.512809E-21
  0.1444      0.191138E-07      0.113731E+01     -0.561145E-12      0.117274E-06     -0.578629E-19      0.123418E-08     -0.541711E-21
  0.1506      0.210295E-07      0.109429E+01     -0.369540E-12      0.118976E-06     -0.401778E-19      0.129361E-08     -0.561780E-21
  0.1569      0.230693E-07      0.105475E+01     -0.328607E-12      0.120768E-06     -0.376251E-19      0.135393E-08     -0.580574E-21
  0.1632      0.252386E-07      0.101750E+01     -0.477487E-12      0.122556E-06     -0.575122E-19      0.141515E-08     -0.609301E-21
  0.1695      0.275433E-07      0.983120E+00     -0.285276E-12      0.124442E-06     -0.361097E-19      0.147731E-08     -0.627338E-21
  0.1758      0.299895E-07      0.950600E+00     -0.455013E-12      0.126333E-06     -0.604702E-19      0.154041E-08     -0.657543E-21
  0.1820      0.325836E-07      0.920440E+00     -0.401907E-12      0.128322E-06     -0.560316E-19      0.160451E-08     -0.685531E-21
  0.1883      0.353322E-07      0.891895E+00     -0.421935E-12      0.130338E-06     -0.616597E-19      0.166961E-08     -0.716330E-21
  0.1946      0.382423E-07      0.865358E+00     -0.383356E-12      0.132460E-06     -0.586802E-19      0.173578E-08     -0.745641E-21
  0.2009      0.413213E-07      0.839870E+00     -0.328032E-12      0.134568E-06     -0.525591E-19      0.180299E-08     -0.771894E-21
  0.2071      0.445766E-07      0.816120E+00     -0.443719E-12      0.136790E-06     -0.743718E-19      0.187132E-08     -0.809043E-21
  0.2134      0.480162E-07      0.793496E+00     -0.276978E-12      0.139047E-06     -0.485356E-19      0.194077E-08     -0.833286E-21
  0.2197      0.516482E-07      0.772309E+00     -0.202081E-12      0.141412E-06     -0.370014E-19      0.201141E-08     -0.851769E-21
  0.2260      0.554811E-07      0.752038E+00     -0.222165E-12      0.143810E-06     -0.424840E-19      0.208324E-08     -0.872989E-21
  0.2322      0.595238E-07      0.733010E+00     -0.209961E-12      0.146321E-06     -0.419116E-19      0.215633E-08     -0.893924E-21
  0.2385      0.637853E-07      0.714806E+00     -0.207043E-12      0.148879E-06     -0.431226E-19      0.223069E-08     -0.915464E-21
  0.2448      0.682751E-07      0.697685E+00     -0.113676E-12      0.151553E-06     -0.246930E-19      0.230639E-08     -0.927798E-21
  0.2511      0.730031E-07      0.681270E+00     -0.234429E-12      0.154279E-06     -0.530885E-19      0.238346E-08     -0.954316E-21
  0.2574      0.779793E-07      0.665824E+00     -0.145461E-12      0.157131E-06     -0.343280E-19      0.246194E-08     -0.971463E-21
  0.2636      0.832142E-07      0.651022E+00     -0.137952E-12      0.160048E-06     -0.339144E-19      0.254189E-08     -0.988403E-21
  0.2699      0.887186E-07      0.637073E+00     -0.177322E-12      0.163095E-06     -0.453957E-19      0.262335E-08     -0.101108E-20
  0.2762      0.945035E-07      0.623683E+00     -0.176136E-12      0.166213E-06     -0.469408E-19      0.270638E-08     -0.103453E-20
  0.2825      0.100581E-06      0.611091E+00     -0.189740E-12      0.169479E-06     -0.526219E-19      0.279103E-08     -0.106081E-20
  0.2887      0.106962E-06      0.598970E+00     -0.126560E-12      0.172815E-06     -0.365151E-19      0.287735E-08     -0.107905E-20
  0.2950      0.113659E-06      0.587625E+00     -0.150714E-12      0.176324E-06     -0.452236E-19      0.296543E-08     -0.110164E-20
  0.3013      0.120684E-06      0.576576E+00     -0.835846E-13      0.179875E-06     -0.260760E-19      0.305528E-08     -0.111466E-20
  0.3076      0.128051E-06      0.566378E+00     -0.164436E-12      0.183654E-06     -0.533201E-19      0.314701E-08     -0.114130E-20
  0.3138      0.135773E-06      0.556002E+00     -0.137352E-12      0.187338E-06     -0.462791E-19      0.324059E-08     -0.116441E-20
  0.3201      0.143862E-06      0.547947E+00     -0.133384E-12      0.191788E-06     -0.466861E-19      0.333638E-08     -0.118773E-20
  0.3264      0.152334E-06      0.543547E+00     -0.174331E-12      0.197577E-06     -0.633687E-19      0.343507E-08     -0.121939E-20
  0.3327      0.161201E-06      0.534609E+00     -0.899514E-13      0.201760E-06     -0.339475E-19      0.353585E-08     -0.123634E-20
  0.3390      0.170480E-06      0.524833E+00     -0.156901E-12      0.205593E-06     -0.614628E-19      0.363855E-08     -0.126704E-20
  0.3452      0.180184E-06      0.517554E+00     -0.707000E-13      0.210386E-06     -0.287396E-19      0.374364E-08     -0.128140E-20
  0.3515      0.190329E-06      0.510626E+00     -0.904932E-13      0.215341E-06     -0.381628E-19      0.385120E-08     -0.130046E-20
  0.3578      0.200931E-06      0.504520E+00     -0.823173E-13      0.220676E-06     -0.360055E-19      0.396143E-08     -0.131845E-20
  0.3641      0.212004E-06      0.498729E+00     -0.109209E-12      0.226198E-06     -0.495316E-19      0.407441E-08     -0.134319E-20
  0.3703      0.223567E-06      0.493737E+00     -0.129484E-12      0.232144E-06     -0.608805E-19      0.419037E-08     -0.137360E-20
  0.3766      0.235634E-06      0.488601E+00     -0.862868E-13      0.238094E-06     -0.420472E-19      0.430930E-08     -0.139460E-20
  0.3829      0.248223E-06      0.484368E+00     -0.870241E-13      0.244565E-06     -0.439398E-19      0.443146E-08     -0.141655E-20
  0.3892      0.261351E-06      0.480371E+00     -0.802248E-13      0.251256E-06     -0.419612E-19      0.455696E-08     -0.143751E-20
  0.3954      0.275036E-06      0.477309E+00     -0.100429E-12      0.258556E-06     -0.544020E-19      0.468611E-08     -0.146468E-20
  0.4017      0.289294E-06      0.474242E+00     -0.945171E-13      0.265991E-06     -0.530124E-19      0.481897E-08     -0.149116E-20
  0.4080      0.304145E-06      0.472375E+00     -0.710873E-13      0.274259E-06     -0.412730E-19      0.495596E-08     -0.151178E-20
  0.4143      0.319606E-06      0.470358E+00     -0.988101E-13      0.282622E-06     -0.593717E-19      0.509713E-08     -0.154143E-20
  0.4206      0.335697E-06      0.470017E+00     -0.760419E-13      0.292208E-06     -0.472750E-19      0.524309E-08     -0.156505E-20
  0.4268      0.352435E-06      0.469142E+00     -0.723179E-13      0.301704E-06     -0.465074E-19      0.539379E-08     -0.158828E-20
  0.4331      0.369839E-06      0.471058E+00     -0.659282E-13      0.313289E-06     -0.438472E-19      0.555028E-08     -0.161018E-20
  0.4394      0.387930E-06      0.471591E+00     -0.875536E-13      0.324286E-06     -0.602055E-19      0.571226E-08     -0.164025E-20
  0.4457      0.406726E-06      0.478492E+00     -0.734728E-13      0.340115E-06     -0.522249E-19      0.588215E-08     -0.166634E-20
  0.4519      0.426248E-06      0.481678E+00     -0.681045E-13      0.353829E-06     -0.500279E-19      0.605889E-08     -0.169133E-20
  0.4582      0.446515E-06      0.520082E+00     -0.852029E-13      0.394722E-06     -0.646657E-19      0.625605E-08     -0.172363E-20
  0.4645      0.467546E-06      0.657064E+00     -0.558621E-13      0.515119E-06     -0.437943E-19      0.651335E-08     -0.174550E-20
  0.4708      0.489364E-06      0.593683E+00     -0.558584E-13      0.480653E-06     -0.452236E-19      0.675344E-08     -0.176809E-20
  0.4770      0.511987E-06      0.481649E+00     -0.536112E-13      0.402608E-06     -0.448133E-19      0.695454E-08     -0.179048E-20
  0.4833      0.535436E-06      0.494801E+00     -0.611719E-13      0.426927E-06     -0.527807E-19      0.716779E-08     -0.181684E-20
  0.4896      0.559732E-06      0.507441E+00     -0.657869E-13      0.451833E-06     -0.585776E-19      0.739348E-08     -0.184610E-20
  0.4959      0.584895E-06      0.523783E+00     -0.602774E-13      0.481182E-06     -0.553748E-19      0.763383E-08     -0.187376E-20
  0.5022      0.610947E-06      0.566673E+00     -0.839410E-13      0.536974E-06     -0.795417E-19      0.790205E-08     -0.191349E-20
  0.5084      0.637908E-06      0.653925E+00     -0.510330E-13      0.639010E-06     -0.498691E-19      0.822124E-08     -0.193840E-20
  0.5147      0.665800E-06      0.126028E+01     -0.448222E-13      0.126971E-05     -0.451574E-19      0.885546E-08     -0.196096E-20
  0.5210      0.694642E-06      0.218190E+01     -0.116640E-12      0.226582E-05     -0.121126E-18      0.998724E-08     -0.202146E-20
  0.5273      0.724456E-06      0.198803E+01     -0.813285E-13      0.212747E-05     -0.870326E-19      0.110499E-07     -0.206493E-20
  0.5335      0.755263E-06      0.198296E+01     -0.405263E-13      0.218625E-05     -0.446810E-19      0.121419E-07     -0.208725E-20
  0.5398      0.787084E-06      0.246485E+01     -0.122978E-12      0.279911E-05     -0.139655E-18      0.135401E-07     -0.215701E-20
  0.5461      0.819939E-06      0.298890E+01     -0.855604E-13      0.349526E-05     -0.100056E-18      0.152860E-07     -0.220698E-20
  0.5524      0.853850E-06      0.327242E+01     -0.191190E-12      0.393981E-05     -0.230181E-18      0.172539E-07     -0.232196E-20
  0.5586      0.888836E-06      0.352430E+01     -0.137904E-12      0.436728E-05     -0.170889E-18      0.194354E-07     -0.240732E-20
  0.5649      0.924918E-06      0.372216E+01     -0.277823E-12      0.474638E-05     -0.354272E-18      0.218062E-07     -0.258428E-20
  0.5712      0.962117E-06      0.395953E+01     -0.210164E-12      0.519441E-05     -0.275709E-18      0.244008E-07     -0.272200E-20
  0.5775      0.100045E-05      0.434365E+01     -0.384024E-12      0.586099E-05     -0.518172E-18      0.273284E-07     -0.298082E-20
  0.5838      0.103995E-05      0.476514E+01     -0.558582E-13      0.661165E-05     -0.775035E-19      0.306309E-07     -0.301954E-20
  0.5900      0.108061E-05      0.548127E+01      0.549278E-13      0.781864E-05      0.783505E-19      0.345363E-07     -0.298040E-20
  0.5963      0.112248E-05      0.605174E+01     -0.135482E-12      0.887242E-05     -0.198629E-18      0.389681E-07     -0.307961E-20
  0.6026      0.116556E-05      0.730193E+01     -0.238957E-13      0.110004E-04     -0.359989E-19      0.444628E-07     -0.309760E-20
  0.6089      0.120987E-05      0.827243E+01     -0.305667E-12      0.128029E-04     -0.473068E-18      0.508578E-07     -0.333389E-20
  0.6151      0.125544E-05      0.114995E+02     -0.168921E-12      0.182791E-04     -0.268509E-18      0.599882E-07     -0.346801E-20
  0.6214      0.130227E-05      0.148821E+02     -0.752479E-12      0.242906E-04     -0.122820E-17      0.721214E-07     -0.408150E-20
  0.6277      0.135040E-05      0.388293E+02     -0.112224E-11      0.650622E-04     -0.188041E-17      0.104620E-06     -0.502077E-20
  0.6340      0.139983E-05      0.654636E+02     -0.424371E-11      0.112580E-03     -0.729804E-17      0.160854E-06     -0.866614E-20
  0.6402      0.145058E-05      0.453069E+02     -0.199877E-11      0.799490E-04     -0.352705E-17      0.200788E-06     -0.104279E-19
  0.6465      0.150267E-05      0.148035E+02     -0.365909E-12      0.267978E-04     -0.662380E-18      0.214174E-06     -0.107588E-19
  0.6528      0.155612E-05      0.639573E+01     -0.388936E-12      0.118743E-04     -0.722096E-18      0.220105E-06     -0.111194E-19
  0.6591      0.161094E-05      0.605639E+01     -0.245831E-12      0.115295E-04     -0.467986E-18      0.225864E-06     -0.113532E-19
  0.6654      0.166714E-05      0.639915E+01     -0.497407E-12      0.124881E-04     -0.970700E-18      0.232102E-06     -0.118381E-19
  0.6716      0.172474E-05      0.764747E+01      0.135520E-13      0.152955E-04      0.271051E-19      0.239742E-06     -0.118245E-19
  0.6779      0.178376E-05      0.862291E+01     -0.299241E-12      0.176715E-04     -0.613252E-18      0.248569E-06     -0.121309E-19
  0.6842      0.184420E-05      0.156270E+02     -0.200122E-12      0.328068E-04     -0.420128E-18      0.264956E-06     -0.123407E-19
  0.6905      0.190608E-05      0.313212E+02      0.244252E-12      0.673431E-04      0.525160E-18      0.298594E-06     -0.120784E-19
  0.6967      0.196941E-05      0.337945E+02     -0.944951E-12      0.743986E-04     -0.208031E-17      0.335756E-06     -0.131175E-19
  0.7030      0.203420E-05      0.247533E+02     -0.183416E-12      0.557848E-04     -0.413352E-18      0.363620E-06     -0.133240E-19
  0.7093      0.210046E-05      0.250773E+02     -0.109145E-11      0.578394E-04     -0.251738E-17      0.392511E-06     -0.145814E-19
  0.7156      0.216821E-05      0.351619E+02     -0.781010E-12      0.829802E-04     -0.184314E-17      0.433960E-06     -0.155021E-19
  0.7218      0.223744E-05      0.455584E+02     -0.266938E-11      0.109984E-03     -0.644423E-17      0.488897E-06     -0.187210E-19
  0.7281      0.230817E-05      0.463352E+02     -0.174829E-11      0.114401E-03     -0.431648E-17      0.546040E-06     -0.208770E-19
  0.7344      0.238041E-05      0.429360E+02     -0.318885E-11      0.108391E-03     -0.805020E-17      0.600181E-06     -0.248981E-19
  0.7407      0.245416E-05      0.427449E+02     -0.227395E-11      0.110309E-03     -0.586824E-17      0.655281E-06     -0.278293E-19
  0.7470      0.252942E-05      0.430287E+02     -0.140025E-11      0.113485E-03     -0.369306E-17      0.711967E-06     -0.296740E-19
  0.7532      0.260620E-05      0.460247E+02     -0.315322E-11      0.124029E-03     -0.849743E-17      0.773920E-06     -0.339185E-19
  0.7595      0.268451E-05      0.471250E+02      0.445536E-12      0.129729E-03      0.122650E-17      0.838719E-06     -0.333058E-19
  0.7658      0.276434E-05      0.407578E+02     -0.110387E-11      0.114591E-03     -0.310353E-17      0.895958E-06     -0.348560E-19
  0.7721      0.284570E-05      0.394689E+02     -0.250210E-12      0.113304E-03     -0.718284E-18      0.952553E-06     -0.352148E-19
  0.7783      0.292859E-05      0.443060E+02     -0.189841E-11      0.129839E-03     -0.556331E-17      0.101741E-05     -0.379937E-19
  0.7846      0.301301E-05      0.449286E+02     -0.974231E-12      0.134375E-03     -0.291379E-17      0.108453E-05     -0.394491E-19
  0.7909      0.309895E-05      0.456322E+02     -0.265565E-11      0.139258E-03     -0.810441E-17      0.115409E-05     -0.434973E-19
  0.7972      0.318641E-05      0.459421E+02     -0.171954E-11      0.143026E-03     -0.535325E-17      0.122553E-05     -0.461713E-19
  0.8034      0.327539E-05      0.461864E+02     -0.753365E-12      0.146647E-03     -0.239202E-17      0.129878E-05     -0.473661E-19
  0.8097      0.336589E-05      0.462015E+02     -0.243837E-11      0.149580E-03     -0.789435E-17      0.137350E-05     -0.513093E-19
  0.8160      0.345789E-05      0.458994E+02     -0.146799E-11      0.151489E-03     -0.484503E-17      0.144916E-05     -0.537294E-19
  0.8223      0.355139E-05      0.454701E+02     -0.311635E-11      0.152954E-03     -0.104829E-16      0.152556E-05     -0.589656E-19
  0.8286      0.364638E-05      0.446752E+02     -0.211731E-11      0.153130E-03     -0.725738E-17      0.160205E-05     -0.625907E-19
  0.8348      0.374286E-05      0.439044E+02     -0.365023E-11      0.153309E-03     -0.127462E-16      0.167863E-05     -0.689574E-19
  0.8411      0.384081E-05      0.428044E+02     -0.267125E-11      0.152234E-03     -0.950032E-17      0.175467E-05     -0.737028E-19
  0.8474      0.394021E-05      0.418149E+02     -0.410894E-11      0.151434E-03     -0.148807E-16      0.183031E-05     -0.811357E-19
  0.8537      0.404107E-05      0.405262E+02     -0.850957E-12      0.149417E-03     -0.313741E-17      0.190495E-05     -0.827028E-19
  0.8599      0.414335E-05      0.393745E+02     -0.541719E-14      0.147759E-03     -0.203288E-19      0.197875E-05     -0.827130E-19
  0.8662      0.424705E-05      0.379586E+02     -0.139476E-11      0.144952E-03     -0.532614E-17      0.205116E-05     -0.853734E-19
  0.8725      0.435215E-05      0.366952E+02     -0.575584E-12      0.142562E-03     -0.223617E-17      0.212237E-05     -0.864904E-19
  0.8788      0.445862E-05      0.352161E+02     -0.181596E-11      0.139162E-03     -0.717606E-17      0.219188E-05     -0.900748E-19
  0.8850      0.456646E-05      0.339077E+02     -0.104379E-11      0.136259E-03     -0.419451E-17      0.225994E-05     -0.921700E-19
  0.8913      0.467564E-05      0.324172E+02     -0.215613E-11      0.132445E-03     -0.880914E-17      0.232610E-05     -0.965701E-19
  0.8976      0.478613E-05      0.311105E+02     -0.143588E-11      0.129200E-03     -0.596311E-17      0.239063E-05     -0.995487E-19
  0.9039      0.489792E-05      0.295919E+02     -0.749809E-12      0.124890E-03     -0.316452E-17      0.245301E-05     -0.101129E-18
  0.9102      0.501098E-05      0.282541E+02     -0.174619E-11      0.121155E-03     -0.748777E-17      0.251353E-05     -0.104870E-18
  0.9164      0.512529E-05      0.264865E+02     -0.108119E-11      0.115371E-03     -0.470950E-17      0.257116E-05     -0.107222E-18
