 
 # Omega; pulse ft; proj flux t=    500.250000000000     
    0.000000000000         0.23733438E-09      0.00000000E+00      0.00000000E+00      0.59068473E-07      0.26791652E-17      0.29504732E-10      0.13382444E-20
    0.006276908399         0.26847166E-09      0.15856583E+01      0.80479417E-10      0.52821995E-07      0.26809581E-17      0.55889345E-10      0.26773843E-20
    0.012553816798         0.36198451E-09      0.20413846E+01      0.11931617E-09      0.45844958E-07      0.26795757E-17      0.78788924E-10      0.40158337E-20
    0.018830725196         0.51817601E-09      0.20935004E+01      0.12530566E-09      0.44867909E-07      0.26855515E-17      0.10120047E-09      0.53572680E-20
    0.025107633595         0.73755180E-09      0.19633173E+01      0.11731731E-09      0.44918970E-07      0.26841165E-17      0.12363751E-09      0.66979855E-20
    0.031384541994         0.10208207E-08      0.17845913E+01      0.10565137E-09      0.45209009E-07      0.26764636E-17      0.14621944E-09      0.80348804E-20
    0.037661450393         0.13688958E-08      0.16093359E+01      0.94534442E-10      0.45558831E-07      0.26761838E-17      0.16897610E-09      0.93716356E-20
    0.043938358791         0.17828953E-08      0.14536179E+01      0.84816189E-10      0.45939349E-07      0.26804846E-17      0.19192282E-09      0.10710539E-19
    0.050215267190         0.22641447E-08      0.13237641E+01      0.76310183E-10      0.46487001E-07      0.26798065E-17      0.21514310E-09      0.12049104E-19
    0.056492175589         0.28141777E-08      0.12120844E+01      0.69095482E-10      0.47027143E-07      0.26808061E-17      0.23863319E-09      0.13388168E-19
    0.062769083988         0.34347388E-08      0.11161721E+01      0.62894244E-10      0.47569833E-07      0.26804726E-17      0.26239434E-09      0.14727065E-19
    0.069045992387         0.41277855E-08      0.10335517E+01      0.57615728E-10      0.48124183E-07      0.26827008E-17      0.28643240E-09      0.16067075E-19
    0.075322900785         0.48954902E-08      0.96232609E+00      0.52799788E-10      0.48712896E-07      0.26727225E-17      0.31076451E-09      0.17402102E-19
    0.081599809184         0.57402438E-08      0.90004582E+00      0.48973803E-10      0.49312652E-07      0.26832279E-17      0.33539621E-09      0.18742375E-19
    0.087876717583         0.66646579E-08      0.84519124E+00      0.45301672E-10      0.49924252E-07      0.26759057E-17      0.36033339E-09      0.20078992E-19
    0.094153625982         0.76715684E-08      0.79662506E+00      0.42169932E-10      0.50553778E-07      0.26761013E-17      0.38558503E-09      0.21415706E-19
    0.100430534380         0.87640384E-08      0.75319505E+00      0.39413046E-10      0.51191575E-07      0.26787429E-17      0.41115525E-09      0.22753739E-19
    0.106707442779         0.99453622E-08      0.71427454E+00      0.36959149E-10      0.51849384E-07      0.26828747E-17      0.43705404E-09      0.24093836E-19
    0.112984351178         0.11219069E-07      0.67908472E+00      0.34729592E-10      0.52518826E-07      0.26859055E-17      0.46328722E-09      0.25435447E-19
    0.119261259577         0.12588925E-07      0.64720100E+00      0.32516638E-10      0.53208496E-07      0.26732984E-17      0.48986489E-09      0.26770761E-19
    0.125538167976         0.14058942E-07      0.61808834E+00      0.30674245E-10      0.53911318E-07      0.26754896E-17      0.51679362E-09      0.28107170E-19
    0.131815076374         0.15633376E-07      0.59144787E+00      0.29028342E-10      0.54633207E-07      0.26814052E-17      0.54408294E-09      0.29446533E-19
    0.138091984773         0.17316734E-07      0.56701386E+00      0.27405576E-10      0.55378824E-07      0.26766340E-17      0.57174469E-09      0.30783513E-19
    0.144368893172         0.19113780E-07      0.54447170E+00      0.26010971E-10      0.56143672E-07      0.26821439E-17      0.59978848E-09      0.32123245E-19
    0.150645801571         0.21029537E-07      0.52359413E+00      0.24651369E-10      0.56927223E-07      0.26801942E-17      0.62822365E-09      0.33462004E-19
    0.156922709970         0.23069292E-07      0.50422074E+00      0.23501715E-10      0.57732680E-07      0.26909186E-17      0.65706116E-09      0.34806119E-19
    0.163199618368         0.25238602E-07      0.48618141E+00      0.22187369E-10      0.58559457E-07      0.26724187E-17      0.68631164E-09      0.36140993E-19
    0.169476526767         0.27543295E-07      0.46935139E+00      0.21145445E-10      0.59409650E-07      0.26765521E-17      0.71598679E-09      0.37477932E-19
    0.175753435166         0.29989481E-07      0.45360768E+00      0.20119406E-10      0.60283446E-07      0.26738241E-17      0.74609840E-09      0.38813509E-19
    0.182030343565         0.32583550E-07      0.43885307E+00      0.19145904E-10      0.61182370E-07      0.26692117E-17      0.77665902E-09      0.40146781E-19
    0.188307251963         0.35332181E-07      0.42500069E+00      0.18292346E-10      0.62107718E-07      0.26731624E-17      0.80768186E-09      0.41482027E-19
    0.194584160362         0.38242343E-07      0.41197210E+00      0.17478244E-10      0.63060492E-07      0.26753916E-17      0.83918061E-09      0.42818387E-19
    0.200861068761         0.41321305E-07      0.39969652E+00      0.16681352E-10      0.64041451E-07      0.26727728E-17      0.87116934E-09      0.44153438E-19
    0.207137977160         0.44576634E-07      0.38812331E+00      0.15889467E-10      0.65053371E-07      0.26632345E-17      0.90366353E-09      0.45483725E-19
    0.213414885559         0.48016203E-07      0.37717265E+00      0.15253665E-10      0.66093057E-07      0.26729440E-17      0.93667705E-09      0.46818862E-19
    0.219691793957         0.51648196E-07      0.36683315E+00      0.14643170E-10      0.67168003E-07      0.26811984E-17      0.97022750E-09      0.48158122E-19
    0.225968702356         0.55481108E-07      0.35701964E+00      0.14011044E-10      0.68271821E-07      0.26792909E-17      0.10043293E-08      0.49496429E-19
    0.232245610755         0.59523755E-07      0.34774004E+00      0.13450420E-10      0.69414476E-07      0.26849191E-17      0.10390019E-08      0.50837548E-19
    0.238522519154         0.63785271E-07      0.33893414E+00      0.12892222E-10      0.70592550E-07      0.26851672E-17      0.10742629E-08      0.52178790E-19
    0.244799427552         0.68275117E-07      0.33060235E+00      0.12379096E-10      0.71814234E-07      0.26890169E-17      0.11101341E-08      0.53521955E-19
    0.251076335951         0.73003082E-07      0.32265531E+00      0.11805103E-10      0.73067923E-07      0.26733617E-17      0.11466316E-08      0.54857301E-19
    0.257353244350         0.77979284E-07      0.31514316E+00      0.11347101E-10      0.74372097E-07      0.26778550E-17      0.11837805E-08      0.56194891E-19
    0.263630152749         0.83214178E-07      0.30797112E+00      0.10886804E-10      0.75712010E-07      0.26764256E-17      0.12215987E-08      0.57531767E-19
    0.269907061148         0.88718553E-07      0.30119925E+00      0.10453692E-10      0.77109277E-07      0.26762238E-17      0.12601148E-08      0.58868542E-19
    0.276183969546         0.94503538E-07      0.29470993E+00      0.10052697E-10      0.78541088E-07      0.26790742E-17      0.12993461E-08      0.60206741E-19
    0.282460877945         0.10058060E-06      0.28860202E+00      0.96536223E-11      0.80040139E-07      0.26773107E-17      0.13393262E-08      0.61544059E-19
    0.288737786344         0.10696156E-06      0.28270966E+00      0.92964663E-11      0.81567524E-07      0.26822208E-17      0.13800692E-08      0.62883829E-19
    0.295014694743         0.11365856E-06      0.27719458E+00      0.89139235E-11      0.83175564E-07      0.26747299E-17      0.14216155E-08      0.64219858E-19
    0.301291603141         0.12068410E-06      0.27177626E+00      0.85813119E-11      0.84786572E-07      0.26771287E-17      0.14639664E-08      0.65557085E-19
    0.307568511540         0.12805103E-06      0.26675824E+00      0.82698963E-11      0.86499099E-07      0.26815988E-17      0.15071727E-08      0.66896545E-19
    0.313845419939         0.13577253E-06      0.26133665E+00      0.79461561E-11      0.88053976E-07      0.26773537E-17      0.15511557E-08      0.68233885E-19
    0.320122328338         0.14386214E-06      0.25646096E+00      0.76526164E-11      0.89764443E-07      0.26785084E-17      0.15959931E-08      0.69571801E-19
    0.326399236737         0.15233372E-06      0.25646874E+00      0.73585190E-11      0.93225320E-07      0.26747911E-17      0.16425592E-08      0.70907860E-19
    0.332676145135         0.16120149E-06      0.25389256E+00      0.70975134E-11      0.95818621E-07      0.26785895E-17      0.16904207E-08      0.72245817E-19
    0.338953053534         0.17048002E-06      0.24846630E+00      0.68254019E-11      0.97331622E-07      0.26737124E-17      0.17390379E-08      0.73581338E-19
    0.345229961933         0.18018417E-06      0.24484660E+00      0.65904519E-11      0.99530177E-07      0.26790196E-17      0.17887532E-08      0.74919510E-19
    0.351506870332         0.19032920E-06      0.24153687E+00      0.63433143E-11      0.10186091E-06      0.26751021E-17      0.18396328E-08      0.76255724E-19
    0.357783778731         0.20093064E-06      0.23868939E+00      0.61162828E-11      0.10440256E-06      0.26752576E-17      0.18917820E-08      0.77592017E-19
    0.364060687129         0.21200438E-06      0.23606919E+00      0.59161823E-11      0.10706879E-06      0.26832746E-17      0.19452629E-08      0.78932314E-19
    0.370337595528         0.22356662E-06      0.23388179E+00      0.56808829E-11      0.10996592E-06      0.26710224E-17      0.20001909E-08      0.80266491E-19
    0.376614503927         0.23563389E-06      0.23154503E+00      0.54998660E-11      0.11283107E-06      0.26800652E-17      0.20565501E-08      0.81605185E-19
    0.382891412326         0.24822301E-06      0.22970687E+00      0.52857892E-11      0.11598263E-06      0.26688784E-17      0.21144835E-08      0.82938291E-19
    0.389168320724         0.26135112E-06      0.22807275E+00      0.51106147E-11      0.11929241E-06      0.26730838E-17      0.21740701E-08      0.84273498E-19
    0.395445229123         0.27503566E-06      0.22692504E+00      0.49337087E-11      0.12292426E-06      0.26725676E-17      0.22354708E-08      0.85608446E-19
    0.401722137522         0.28929433E-06      0.22583173E+00      0.47687715E-11      0.12666355E-06      0.26746885E-17      0.22987393E-08      0.86944455E-19
    0.407999045921         0.30414516E-06      0.22539498E+00      0.46115025E-11      0.13086350E-06      0.26774215E-17      0.23641057E-08      0.88281828E-19
    0.414275954320         0.31960641E-06      0.22494197E+00      0.44495984E-11      0.13516019E-06      0.26736165E-17      0.24316183E-08      0.89617301E-19
    0.420552862718         0.33569662E-06      0.22547566E+00      0.42980322E-11      0.14017759E-06      0.26720746E-17      0.25016371E-08      0.90952004E-19
    0.426829771117         0.35243458E-06      0.22574870E+00      0.41475873E-11      0.14517827E-06      0.26673001E-17      0.25741537E-08      0.92284321E-19
    0.433106679516         0.36983933E-06      0.22783807E+00      0.40078277E-11      0.15152945E-06      0.26655068E-17      0.26498427E-08      0.93615743E-19
    0.439383587915         0.38793013E-06      0.22905790E+00      0.38903230E-11      0.15750977E-06      0.26751484E-17      0.27285189E-08      0.94951981E-19
    0.445660496313         0.40672647E-06      0.23491109E+00      0.37595319E-11      0.16697612E-06      0.26722963E-17      0.28119236E-08      0.96286795E-19
    0.451937404712         0.42624802E-06      0.23809973E+00      0.36411109E-11      0.17490230E-06      0.26746720E-17      0.28992874E-08      0.97622795E-19
    0.458214313111         0.44651466E-06      0.26951568E+00      0.35186637E-11      0.20455196E-06      0.26705294E-17      0.30014612E-08      0.98956725E-19
    0.464491221510         0.46754647E-06      0.38826665E+00      0.34120789E-11      0.30438966E-06      0.26749698E-17      0.31535039E-08      0.10029287E-18
    0.470768129909         0.48936365E-06      0.33712503E+00      0.32983891E-11      0.27294063E-06      0.26704170E-17      0.32898379E-08      0.10162675E-18
    0.477045038307         0.51198657E-06      0.24073665E+00      0.32001820E-11      0.20123056E-06      0.26750161E-17      0.33903527E-08      0.10296292E-18
    0.483321946706         0.53543573E-06      0.25000152E+00      0.31017139E-11      0.21570789E-06      0.26762403E-17      0.34980989E-08      0.10429970E-18
    0.489598855105         0.55973174E-06      0.26061134E+00      0.30006483E-11      0.23205204E-06      0.26718198E-17      0.36140090E-08      0.10563428E-18
    0.495875763504         0.58489532E-06      0.27281820E+00      0.29081087E-11      0.25062890E-06      0.26715816E-17      0.37391983E-08      0.10696874E-18
    0.502152671902         0.61094726E-06      0.30919772E+00      0.28107816E-11      0.29299268E-06      0.26634686E-17      0.38855483E-08      0.10829914E-18
    0.508429580301         0.63790841E-06      0.38133715E+00      0.27452860E-11      0.37263975E-06      0.26826725E-17      0.40716820E-08      0.10963914E-18
    0.514706488700         0.66579967E-06      0.89915120E+00      0.26468201E-11      0.90587693E-06      0.26666185E-17      0.45241680E-08      0.11097111E-18
    0.520983397099         0.69464194E-06      0.16851362E+01      0.25129551E-11      0.17499460E-05      0.26096026E-17      0.53982669E-08      0.11227461E-18
    0.527260305498         0.72445614E-06      0.15196506E+01      0.24758185E-11      0.16262350E-05      0.26494661E-17      0.62105721E-08      0.11359802E-18
    0.533537213896         0.75526319E-06      0.15105863E+01      0.24299916E-11      0.16654503E-05      0.26791123E-17      0.70424654E-08      0.11493624E-18
    0.539814122295         0.78708392E-06      0.19215674E+01      0.22963886E-11      0.21821518E-05      0.26078027E-17      0.81324513E-08      0.11623884E-18
    0.546091030694         0.81993914E-06      0.23649574E+01      0.22563510E-11      0.27656196E-05      0.26386135E-17      0.95138797E-08      0.11755683E-18
    0.552367939093         0.85384956E-06      0.26078922E+01      0.21072197E-11      0.31397501E-05      0.25369696E-17      0.11082186E-07      0.11882404E-18
    0.558644847491         0.88883579E-06      0.28163703E+01      0.20756456E-11      0.34900209E-05      0.25721214E-17      0.12825454E-07      0.12010882E-18
    0.564921755890         0.92491828E-06      0.29871243E+01      0.19067346E-11      0.38090870E-05      0.24314081E-17      0.14728094E-07      0.12132331E-18
    0.571198664289         0.96211735E-06      0.31818527E+01      0.19008362E-11      0.41742021E-05      0.24936650E-17      0.16813110E-07      0.12256890E-18
    0.577475572688         0.10004531E-05      0.35150763E+01      0.17013512E-11      0.47429706E-05      0.22956710E-17      0.19182227E-07      0.12371558E-18
    0.583752481087         0.10399456E-05      0.38642257E+01      0.19234452E-11      0.53616308E-05      0.26687891E-17      0.21860364E-07      0.12504865E-18
    0.590029389485         0.10806144E-05      0.44889500E+01      0.19564697E-11      0.64031608E-05      0.27907618E-17      0.25058746E-07      0.12644263E-18
    0.596306297884         0.11224790E-05      0.49617424E+01      0.17476897E-11      0.72743732E-05      0.25622747E-17      0.28692299E-07      0.12772249E-18
    0.602583206283         0.11655585E-05      0.60620567E+01      0.17837432E-11      0.91324983E-05      0.26872120E-17      0.33253986E-07      0.12906475E-18
    0.608860114682         0.12098719E-05      0.68712392E+01      0.14987826E-11      0.10634314E-04      0.23195997E-17      0.38565832E-07      0.13022340E-18
    0.615137023081         0.12554376E-05      0.97278506E+01      0.15586563E-11      0.15462963E-04      0.24775714E-17      0.46289589E-07      0.13146094E-18
    0.621413931479         0.13022739E-05      0.12594090E+02      0.10270042E-11      0.20556098E-04      0.16762782E-17      0.56557370E-07      0.13229825E-18
    0.627690839878         0.13503983E-05      0.33642608E+02      0.65514384E-12      0.56371333E-04      0.10977547E-17      0.84714879E-07      0.13284657E-18
    0.633967748277         0.13998285E-05      0.57642253E+02     -0.21592884E-11      0.99129096E-04     -0.37133924E-17      0.13422991E-06      0.13099173E-18
    0.640244656676         0.14505812E-05      0.38712765E+02     -0.16896407E-12      0.68312912E-04     -0.29815560E-18      0.16835225E-06      0.13084280E-18
    0.646521565074         0.15026729E-05      0.11400577E+02      0.12090906E-11      0.20637676E-04      0.21887331E-17      0.17866078E-06      0.13193608E-18
    0.652798473473         0.15561195E-05      0.45299294E+01      0.11757050E-11      0.84102283E-05      0.21828039E-17      0.18286169E-06      0.13302639E-18
    0.659075381872         0.16109365E-05      0.40812395E+01      0.12540720E-11      0.77694086E-05      0.23873624E-17      0.18674251E-06      0.13421888E-18
    0.665352290271         0.16671388E-05      0.43018747E+01      0.10547121E-11      0.83951876E-05      0.20582901E-17      0.19093591E-06      0.13524699E-18
    0.671629198670         0.17247407E-05      0.49524929E+01      0.13628234E-11      0.99053685E-05      0.27257520E-17      0.19588365E-06      0.13660851E-18
    0.677906107068         0.17837558E-05      0.52452579E+01      0.11370315E-11      0.10749425E-04      0.23301876E-17      0.20125299E-06      0.13777244E-18
    0.684183015467         0.18441971E-05      0.85928880E+01      0.11765225E-11      0.18039593E-04      0.24699481E-17      0.21026378E-06      0.13900618E-18
    0.690459923866         0.19060772E-05      0.14642438E+02      0.13701728E-11      0.31482407E-04      0.29459806E-17      0.22598926E-06      0.14047770E-18
    0.696736832265         0.19694076E-05      0.10407913E+02      0.93225416E-12      0.22913058E-04      0.20523608E-17      0.23743434E-06      0.14150285E-18
    0.703013740663         0.20341994E-05      0.46694810E+01      0.11570635E-11      0.10523274E-04      0.26075909E-17      0.24269072E-06      0.14280535E-18
    0.709290649062         0.21004628E-05      0.49248232E+01      0.95226871E-12      0.11358839E-04      0.21963564E-17      0.24836447E-06      0.14390243E-18
    0.715567557461         0.21682073E-05      0.56076384E+01      0.10161024E-11      0.13233743E-04      0.23979503E-17      0.25497473E-06      0.14510020E-18
    0.721844465860         0.22374415E-05      0.58004418E+01      0.77260411E-12      0.14003019E-04      0.18651665E-17      0.26196924E-06      0.14603186E-18
    0.728121374259         0.23081733E-05      0.53918246E+01      0.88958129E-12      0.13312295E-04      0.21963564E-17      0.26861874E-06      0.14712894E-18
    0.734398282657         0.23804097E-05      0.51117830E+01      0.68145569E-12      0.12904614E-04      0.17203239E-17      0.27506460E-06      0.14798824E-18
    0.740675191056         0.24541568E-05      0.52086657E+01      0.76246948E-12      0.13441679E-04      0.19676575E-17      0.28177873E-06      0.14897109E-18
    0.746952099455         0.25294198E-05      0.53678376E+01      0.84143561E-12      0.14157288E-04      0.22192263E-17      0.28885030E-06      0.15007959E-18
    0.753229007854         0.26062031E-05      0.56350345E+01      0.60977312E-12      0.15185543E-04      0.16432439E-17      0.29643549E-06      0.15090039E-18
    0.759505916252         0.26845099E-05      0.54018974E+01      0.10264551E-11      0.14870745E-04      0.28257019E-17      0.30386343E-06      0.15231183E-18
    0.765782824651         0.27643427E-05      0.52230334E+01      0.81163186E-12      0.14684583E-04      0.22819068E-17      0.31119839E-06      0.15345165E-18
