 
 # Omega; pulse ft; projected flux at t=    500.250000000000     
    0.000000000000         0.10341091E-10      0.00000000E+00      0.00000000E+00      0.29348108E-07     -0.13933692E-18
    0.006276908399         0.40699280E-10      0.69276240E+01     -0.36493186E-10      0.26238503E-07     -0.13821861E-18
    0.012553816798         0.13187398E-09      0.37030754E+01     -0.22917722E-10      0.22722688E-07     -0.14062696E-18
    0.018830725196         0.28416575E-09      0.25214255E+01     -0.15876515E-10      0.22226171E-07     -0.13995025E-18
    0.025107633595         0.49807598E-09      0.19198465E+01     -0.12136279E-10      0.22246931E-07     -0.14063363E-18
    0.031384541994         0.77430759E-09      0.15535113E+01     -0.98296261E-11      0.22388549E-07     -0.14166042E-18
    0.037661450393         0.11137660E-08      0.13059791E+01     -0.79741436E-11      0.22560408E-07     -0.13775101E-18
    0.043938358791         0.15175606E-08      0.11275448E+01     -0.69561293E-11      0.22748345E-07     -0.14034070E-18
    0.050215267190         0.19870057E-08      0.99586775E+00     -0.59880221E-11      0.23018595E-07     -0.13840779E-18
    0.056492175589         0.25236231E-08      0.89236257E+00     -0.53483102E-11      0.23285810E-07     -0.13956181E-18
    0.062769083988         0.31291437E-08      0.80883642E+00     -0.48934224E-11      0.23553433E-07     -0.14249716E-18
    0.069045992387         0.38055096E-08      0.74009064E+00     -0.43115421E-11      0.23827203E-07     -0.13881001E-18
    0.075322900785         0.45548772E-08      0.68278127E+00     -0.40244365E-11      0.24118208E-07     -0.14215709E-18
    0.081599809184         0.53796196E-08      0.63398105E+00     -0.35879192E-11      0.24414762E-07     -0.13817163E-18
    0.087876717583         0.62823298E-08      0.59188440E+00     -0.33656785E-11      0.24717105E-07     -0.14055081E-18
    0.094153625982         0.72658239E-08      0.55522778E+00     -0.31121653E-11      0.25028384E-07     -0.14028921E-18
    0.100430534380         0.83331444E-08      0.52289361E+00     -0.29485294E-11      0.25343715E-07     -0.14290993E-18
    0.106707442779         0.94875639E-08      0.49423581E+00     -0.27423117E-11      0.25668945E-07     -0.14242644E-18
    0.112984351178         0.10732589E-07      0.46856925E+00     -0.25017508E-11      0.26000027E-07     -0.13881745E-18
    0.119261259577         0.12071965E-07      0.44549345E+00     -0.24009659E-11      0.26341087E-07     -0.14196405E-18
    0.125538167976         0.13509678E-07      0.42456409E+00     -0.21871295E-11      0.26688629E-07     -0.13748569E-18
    0.131815076374         0.15049961E-07      0.40552031E+00     -0.20673566E-11      0.27045604E-07     -0.13787943E-18
    0.138091984773         0.16697298E-07      0.38813515E+00     -0.19785942E-11      0.27414132E-07     -0.13974886E-18
    0.144368893172         0.18456429E-07      0.37216336E+00     -0.18656798E-11      0.27792107E-07     -0.13932368E-18
    0.150645801571         0.20332352E-07      0.35742869E+00     -0.17791871E-11      0.28179534E-07     -0.14027039E-18
    0.156922709970         0.22330332E-07      0.34379740E+00     -0.16483929E-11      0.28577601E-07     -0.13701999E-18
    0.163199618368         0.24455902E-07      0.33114353E+00     -0.16210495E-11      0.28986422E-07     -0.14189746E-18
    0.169476526767         0.26714868E-07      0.31936548E+00     -0.15063760E-11      0.29406630E-07     -0.13870454E-18
    0.175753435166         0.29113317E-07      0.30837301E+00     -0.14958638E-11      0.29838572E-07     -0.14474172E-18
    0.182030343565         0.31657619E-07      0.29808956E+00     -0.14009558E-11      0.30282731E-07     -0.14232221E-18
    0.188307251963         0.34354433E-07      0.28845379E+00     -0.13360799E-11      0.30740137E-07     -0.14238425E-18
    0.194584160362         0.37210710E-07      0.27940311E+00     -0.12930789E-11      0.31210844E-07     -0.14444393E-18
    0.200861068761         0.40233700E-07      0.27088908E+00     -0.12156708E-11      0.31695639E-07     -0.14224074E-18
    0.207137977160         0.43430955E-07      0.26287005E+00     -0.11913532E-11      0.32195455E-07     -0.14591301E-18
    0.213414885559         0.46810335E-07      0.25529285E+00     -0.10860917E-11      0.32709168E-07     -0.13915453E-18
    0.219691793957         0.50380010E-07      0.24814318E+00     -0.10177540E-11      0.33239966E-07     -0.13633301E-18
    0.225968702356         0.54148468E-07      0.24136592E+00     -0.97009889E-12      0.33785288E-07     -0.13578997E-18
    0.232245610755         0.58124513E-07      0.23495986E+00     -0.92757506E-12      0.34349411E-07     -0.13560468E-18
    0.238522519154         0.62317278E-07      0.22888708E+00     -0.91127091E-12      0.34931253E-07     -0.13907222E-18
    0.244799427552         0.66736218E-07      0.22314225E+00     -0.84572096E-12      0.35534221E-07     -0.13467658E-18
    0.251076335951         0.71391124E-07      0.21766745E+00     -0.83732856E-12      0.36153115E-07     -0.13907470E-18
    0.257353244350         0.76292116E-07      0.21249182E+00     -0.78246278E-12      0.36796459E-07     -0.13549632E-18
    0.263630152749         0.81449655E-07      0.20755485E+00     -0.77488701E-12      0.37457679E-07     -0.13984481E-18
    0.269907061148         0.86874540E-07      0.20289106E+00     -0.73416613E-12      0.38146525E-07     -0.13803411E-18
    0.276183969546         0.92577913E-07      0.19842652E+00     -0.71402879E-12      0.38852810E-07     -0.13981007E-18
    0.282460877945         0.98571259E-07      0.19421977E+00     -0.71413053E-12      0.39591253E-07     -0.14557386E-18
    0.288737786344         0.10486641E-06      0.19016625E+00     -0.65563325E-12      0.40344099E-07     -0.13909373E-18
    0.295014694743         0.11147554E-06      0.18636371E+00     -0.63570528E-12      0.41134962E-07     -0.14031547E-18
    0.301291603141         0.11841119E-06      0.18263310E+00     -0.59570673E-12      0.41927504E-07     -0.13675777E-18
    0.307568511540         0.12568621E-06      0.17915485E+00     -0.58758657E-12      0.42764968E-07     -0.14025923E-18
    0.313845419939         0.13331385E-06      0.17540519E+00     -0.56039236E-12      0.43522689E-07     -0.13904823E-18
    0.320122328338         0.14130766E-06      0.17174081E+00     -0.53088527E-12      0.44283002E-07     -0.13688764E-18
    0.326399236737         0.14968158E-06      0.17169860E+00     -0.53101883E-12      0.45993852E-07     -0.14224694E-18
    0.332676145135         0.15844985E-06      0.17028504E+00     -0.49386348E-12      0.47376228E-07     -0.13740132E-18
    0.338953053534         0.16762710E-06      0.16660105E+00     -0.50000672E-12      0.48127824E-07     -0.14444228E-18
    0.345229961933         0.17722828E-06      0.16408562E+00     -0.45942208E-12      0.49204956E-07     -0.13776859E-18
    0.351506870332         0.18726866E-06      0.16179575E+00     -0.45476282E-12      0.50351477E-07     -0.14152399E-18
    0.357783778731         0.19776389E-06      0.15981096E+00     -0.43509575E-12      0.51599646E-07     -0.14048339E-18
    0.364060687129         0.20872991E-06      0.15797698E+00     -0.41588807E-12      0.52907656E-07     -0.13928398E-18
    0.370337595528         0.22018301E-06      0.15643067E+00     -0.40315812E-12      0.54327748E-07     -0.14001521E-18
    0.376614503927         0.23213979E-06      0.15479198E+00     -0.37752946E-12      0.55733308E-07     -0.13593059E-18
    0.382891412326         0.24461718E-06      0.15348089E+00     -0.38365615E-12      0.57276892E-07     -0.14317504E-18
    0.389168320724         0.25763241E-06      0.15230765E+00     -0.36089411E-12      0.58897727E-07     -0.13955860E-18
    0.395445229123         0.27120301E-06      0.15145057E+00     -0.34979808E-12      0.60672637E-07     -0.14013267E-18
    0.401722137522         0.28534681E-06      0.15063283E+00     -0.33720247E-12      0.62500099E-07     -0.13991098E-18
    0.407999045921         0.30008192E-06      0.15023644E+00     -0.32835784E-12      0.64546066E-07     -0.14107234E-18
    0.414275954320         0.31542674E-06      0.14983503E+00     -0.32227841E-12      0.66640146E-07     -0.14333551E-18
    0.420552862718         0.33139993E-06      0.15005778E+00     -0.29585542E-12      0.69072335E-07     -0.13618371E-18
    0.426829771117         0.34802041E-06      0.15011973E+00     -0.30924515E-12      0.71499267E-07     -0.14728778E-18
    0.433106679516         0.36530735E-06      0.15131714E+00     -0.28829950E-12      0.74553057E-07     -0.14204345E-18
    0.439383587915         0.38328015E-06      0.15196804E+00     -0.28182128E-12      0.77435225E-07     -0.14360186E-18
    0.445660496313         0.40195843E-06      0.15549838E+00     -0.26591382E-12      0.81925043E-07     -0.14009793E-18
    0.451937404712         0.42136202E-06      0.15736350E+00     -0.26151839E-12      0.85702782E-07     -0.14242727E-18
    0.458214313111         0.44151098E-06      0.17700136E+00     -0.25020484E-12      0.99623839E-07     -0.14082584E-18
    0.464491221510         0.46242550E-06      0.26229976E+00     -0.24136451E-12      0.15253727E-06     -0.14036262E-18
    0.470768129909         0.48412598E-06      0.23239368E+00     -0.23688876E-12      0.13960129E-06     -0.14230154E-18
    0.477045038307         0.50663295E-06      0.16286636E+00     -0.22489246E-12      0.10103672E-06     -0.13951559E-18
    0.483321946706         0.52996708E-06      0.16734916E+00     -0.21896620E-12      0.10718888E-06     -0.14025013E-18
    0.489598855105         0.55414917E-06      0.17369984E+00     -0.20785669E-12      0.11484167E-06     -0.13742448E-18
    0.495875763504         0.57920011E-06      0.18119214E+00     -0.21292396E-12      0.12362574E-06     -0.14527608E-18
    0.502152671902         0.60514088E-06      0.20443098E+00     -0.20852423E-12      0.14390677E-06     -0.14678816E-18
    0.508429580301         0.63199252E-06      0.25114705E+00     -0.19414945E-12      0.18235724E-06     -0.14097143E-18
    0.514706488700         0.65977612E-06      0.58811307E+00     -0.19234385E-12      0.44036377E-06     -0.14402207E-18
    0.520983397099         0.68851279E-06      0.11213553E+01     -0.22212085E-12      0.86565570E-06     -0.17147123E-18
    0.527260305498         0.71822366E-06      0.10206146E+01     -0.19816616E-12      0.81210128E-06     -0.15768048E-18
    0.533537213896         0.74892983E-06      0.10144774E+01     -0.16518687E-12      0.83182622E-06     -0.13544586E-18
    0.539814122295         0.78065236E-06      0.12887056E+01     -0.20937728E-12      0.10886316E-05     -0.17687107E-18
    0.546091030694         0.81341227E-06      0.15818411E+01     -0.18514961E-12      0.13763293E-05     -0.16109508E-18
    0.552367939093         0.84723047E-06      0.17462195E+01     -0.23634880E-12      0.15645366E-05     -0.21175824E-18
    0.558644847491         0.88212778E-06      0.18818580E+01     -0.20788314E-12      0.17357867E-05     -0.19174708E-18
    0.564921755890         0.91812490E-06      0.19989533E+01     -0.27290847E-12      0.18977103E-05     -0.25908620E-18
    0.571198664289         0.95524236E-06      0.21236110E+01     -0.23823075E-12      0.20745083E-05     -0.23272230E-18
    0.577475572688         0.99350052E-06      0.23480223E+01     -0.32660567E-12      0.23596658E-05     -0.32822527E-18
    0.583752481087         0.10329195E-05      0.25764709E+01     -0.14003200E-12      0.26630345E-05     -0.14473675E-18
    0.590029389485         0.10735193E-05      0.29964917E+01     -0.78303800E-13      0.31846602E-05     -0.83220987E-19
    0.596306297884         0.11153196E-05      0.33041714E+01     -0.18238378E-12      0.36099924E-05     -0.19926450E-18
    0.602583206283         0.11583396E-05      0.40371186E+01     -0.11937444E-12      0.45331929E-05     -0.13404296E-18
    0.608860114682         0.12025986E-05      0.45629285E+01     -0.27181811E-12      0.52645426E-05     -0.31361395E-18
    0.615137023081         0.12481153E-05      0.64473941E+01     -0.19903473E-12      0.76415394E-05     -0.23589868E-18
    0.621413931479         0.12949080E-05      0.83030640E+01     -0.52190305E-12      0.10106717E-04     -0.63527471E-18
    0.627690839878         0.13429948E-05      0.21994157E+02     -0.73059505E-12      0.27488412E-04     -0.91310152E-18
    0.633967748277         0.13923932E-05      0.37859281E+02     -0.25524287E-11      0.48571431E-04     -0.32746294E-17
    0.640244656676         0.14431204E-05      0.25542401E+02     -0.12197427E-11      0.33630407E-04     -0.16059745E-17
    0.646521565074         0.14951931E-05      0.75298571E+01     -0.28340707E-12      0.10172198E-04     -0.38285889E-18
    0.652798473473         0.15486273E-05      0.29855777E+01     -0.27445115E-12      0.41372329E-05     -0.38031779E-18
    0.659075381872         0.16034389E-05      0.26942184E+01     -0.19922352E-12      0.38288109E-05     -0.28312076E-18
    0.665352290271         0.16596427E-05      0.28553803E+01     -0.30374549E-12      0.41604539E-05     -0.44257471E-18
    0.671629198670         0.17172535E-05      0.32837079E+01     -0.76987728E-13      0.49043692E-05     -0.11498472E-18
    0.677906107068         0.17762849E-05      0.34786022E+01     -0.20296144E-12      0.53242894E-05     -0.31064933E-18
    0.684183015467         0.18367504E-05      0.56687178E+01     -0.15232029E-12      0.88894829E-05     -0.23886329E-18
    0.690459923866         0.18986625E-05      0.96416933E+01     -0.63278832E-14      0.15487325E-04     -0.10164395E-19
    0.696736832265         0.19620330E-05      0.68747911E+01     -0.27162605E-12      0.11308652E-04     -0.44680988E-18
    0.703013740663         0.20268732E-05      0.31050774E+01     -0.10184712E-12      0.52293657E-05     -0.17152417E-18
    0.709290649062         0.20931935E-05      0.32835245E+01     -0.21890167E-12      0.56602967E-05     -0.37735318E-18
    0.715567557461         0.21610035E-05      0.37313708E+01     -0.15917147E-12      0.65824419E-05     -0.28079142E-18
    0.721844465860         0.22303120E-05      0.38620319E+01     -0.30153494E-12      0.69703028E-05     -0.54421867E-18
    0.728121374259         0.23011271E-05      0.35897562E+01     -0.20509601E-12      0.66269787E-05     -0.37862373E-18
    0.734398282657         0.23734559E-05      0.34060322E+01     -0.32708793E-12      0.64300161E-05     -0.61748702E-18
    0.740675191056         0.24473047E-05      0.34660678E+01     -0.25453895E-12      0.66897686E-05     -0.49127911E-18
    0.746952099455         0.25226788E-05      0.35727420E+01     -0.18548169E-12      0.70483047E-05     -0.36591823E-18
    0.753229007854         0.25995828E-05      0.37360946E+01     -0.32204907E-12      0.75319648E-05     -0.64925075E-18
    0.759505916252         0.26780200E-05      0.35719284E+01     -0.32899844E-13      0.73569737E-05     -0.67762636E-19
    0.765782824651         0.27579930E-05      0.35029498E+01     -0.16125065E-12      0.73694529E-05     -0.33923670E-18
    0.772059733050         0.28395032E-05      0.41588646E+01     -0.86739661E-13      0.89347015E-05     -0.18634725E-18
    0.778336641449         0.29225512E-05      0.44725613E+01     -0.25488002E-12      0.98099039E-05     -0.55904175E-18
    0.784613549848         0.30071363E-05      0.45206206E+01     -0.15871616E-12      0.10120668E-04     -0.35533032E-18
    0.790890458246         0.30932570E-05      0.46905001E+01     -0.33516238E-12      0.10715998E-04     -0.76571778E-18
    0.797167366645         0.31809104E-05      0.48482021E+01     -0.24311441E-12      0.11300468E-04     -0.56666504E-18
    0.803444275044         0.32700927E-05      0.50554958E+01     -0.14179642E-12      0.12019374E-04     -0.33711911E-18
    0.809721183443         0.33607990E-05      0.52517434E+01     -0.33818537E-12      0.12732813E-04     -0.81992789E-18
    0.815998091842         0.34530231E-05      0.54685800E+01     -0.23164496E-12      0.13517573E-04     -0.57259427E-18
    0.822275000240         0.35467578E-05      0.56723530E+01     -0.44644722E-12      0.14291950E-04     -0.11248598E-17
    0.828551908639         0.36419946E-05      0.58859328E+01     -0.33549641E-12      0.15112930E-04     -0.86143251E-18
    0.834828817038         0.37387238E-05      0.60939524E+01     -0.55982919E-12      0.15941853E-04     -0.14645200E-17
    0.841105725437         0.38369346E-05      0.63065097E+01     -0.44406761E-12      0.16804929E-04     -0.11833050E-17
    0.847382633835         0.39366149E-05      0.65201191E+01     -0.69106794E-12      0.17693457E-04     -0.18753309E-17
    0.853659542234         0.40377513E-05      0.67280705E+01     -0.19007426E-12      0.18589136E-04     -0.52516043E-18
    0.859936450633         0.41403294E-05      0.69385506E+01     -0.46983197E-13      0.19514215E-04     -0.13213714E-18
    0.866213359032         0.42443332E-05      0.71282663E+01     -0.30896011E-12      0.20402449E-04     -0.88430240E-18
    0.872490267431         0.43497456E-05      0.73212303E+01     -0.16055444E-12      0.21320684E-04     -0.46756219E-18
    0.878767175829         0.44565484E-05      0.74779278E+01     -0.42832509E-12      0.22152354E-04     -0.12688554E-17
    0.885044084228         0.45647219E-05      0.76418859E+01     -0.27833786E-12      0.23023098E-04     -0.83856262E-18
    0.891320992627         0.46742450E-05      0.77532530E+01     -0.55965407E-12      0.23750628E-04     -0.17143947E-17
    0.897597901026         0.47850957E-05      0.78794403E+01     -0.40474420E-12      0.24536803E-04     -0.12603850E-17
    0.903874809424         0.48972503E-05      0.79243576E+01     -0.24140653E-12      0.25079674E-04     -0.76402372E-18
    0.910151717823         0.50106841E-05      0.79921025E+01     -0.53574018E-12      0.25701477E-04     -0.17228650E-17
    0.916428626222         0.51253709E-05      0.78854937E+01     -0.36142869E-12      0.25761393E-04     -0.11807639E-17
    0.922705534621         0.52412834E-05      0.77728344E+01     -0.63564017E-12      0.25790973E-04     -0.21091120E-17
    0.928982443020         0.53583927E-05      0.68017745E+01     -0.41983239E-12      0.22917280E-04     -0.14145450E-17
    0.935259351418         0.54766690E-05      0.71573647E+01     -0.69484788E-12      0.24482253E-04     -0.23767744E-17
    0.941536259817         0.55960809E-05      0.95159715E+01     -0.17468378E-12      0.33038009E-04     -0.60647559E-18
    0.947813168216         0.57165958E-05      0.99213739E+01     -0.53758056E-12      0.34954281E-04     -0.18939657E-17
    0.954090076615         0.58381799E-05      0.96171041E+01     -0.32654845E-12      0.34375278E-04     -0.11672114E-17
    0.960366985013         0.59607981E-05      0.96217783E+01     -0.12475575E-12      0.34884808E-04     -0.45231559E-18
    0.966643893412         0.60844141E-05      0.95554872E+01     -0.46904232E-12      0.35133295E-04     -0.17245591E-17
    0.972920801811         0.62089900E-05      0.95741796E+01     -0.26857186E-12      0.35691011E-04     -0.10011929E-17
    0.979197710210         0.63344872E-05      0.95619653E+01     -0.61149061E-12      0.36132835E-04     -0.23107059E-17
    0.985474618609         0.64608656E-05      0.95738524E+01     -0.41492927E-12      0.36664502E-04     -0.15890338E-17
    0.991751527007         0.65880838E-05      0.95698035E+01     -0.76138925E-12      0.37134113E-04     -0.29544509E-17
    0.998028435406         0.67160994E-05      0.92171467E+01     -0.54775689E-12      0.36231349E-04     -0.21531578E-17
    1.004305343805         0.68448687E-05      0.86789773E+01     -0.82763101E-12      0.34552677E-04     -0.32949582E-17
    1.010582252204         0.69743470E-05      0.90029607E+01     -0.66984286E-12      0.36293683E-04     -0.27003410E-17
    1.016859160602         0.71044882E-05      0.95217709E+01     -0.50807277E-12      0.38860065E-04     -0.20735367E-17
