 
 # Omega; pulse ft; projected flux at t=    500.250000000000     
    0.000000000000         0.61823026E-09      0.00000000E+00      0.00000000E+00      0.54017986E-12      0.00000000E+00
    0.006276908399         0.61747610E-09      0.95042661E-05     -0.91632366E-18      0.54614347E-12     -0.52654690E-25
    0.012553816798         0.61521579E-09      0.19305368E-04     -0.21803938E-17      0.55264161E-12     -0.62416647E-25
    0.018830725196         0.61145675E-09      0.29465543E-04     -0.58167642E-17      0.55889078E-12     -0.11033009E-24
    0.025107633595         0.60621417E-09      0.40107591E-04     -0.26486963E-17      0.56566679E-12     -0.37356508E-25
    0.031384541994         0.59951527E-09      0.51273734E-04     -0.16472164E-16      0.57212799E-12     -0.18380144E-24
    0.037661450393         0.59140524E-09      0.63144366E-04     -0.82116250E-17      0.57921064E-12     -0.75323595E-25
    0.043938358791         0.58195487E-09      0.75733539E-04      0.45089927E-17      0.58593242E-12      0.34885007E-25
    0.050215267190         0.57126980E-09      0.89293396E-04      0.82810922E-17      0.59338782E-12      0.55030937E-25
    0.056492175589         0.55950140E-09      0.10377612E-03     -0.68554263E-17      0.60037711E-12     -0.39660771E-25
    0.062769083988         0.54685933E-09      0.11948250E-03     -0.19276914E-16      0.60806212E-12     -0.98102742E-25
    0.069045992387         0.53362554E-09      0.13631368E-03     -0.11172078E-16      0.61539133E-12     -0.50436611E-25
    0.075322900785         0.52016993E-09      0.15456131E-03     -0.17316766E-16      0.62349474E-12     -0.69855211E-25
    0.081599809184         0.50696746E-09      0.17390846E-03     -0.32848658E-16      0.63113964E-12     -0.11921266E-24
    0.087876717583         0.49461670E-09      0.19452434E-03     -0.23932930E-16      0.63956208E-12     -0.78687298E-25
    0.094153625982         0.48385983E-09      0.21572717E-03     -0.17213609E-16      0.64759154E-12     -0.51673545E-25
    0.100430534380         0.47560399E-09      0.23728364E-03     -0.33253339E-16      0.65638904E-12     -0.91987492E-25
    0.106707442779         0.47094388E-09      0.25787783E-03     -0.19725564E-16      0.66481721E-12     -0.50853129E-25
    0.112984351178         0.47118573E-09      0.27667359E-03     -0.58107483E-17      0.67399293E-12     -0.14155320E-25
    0.119261259577         0.47787234E-09      0.29175087E-03     -0.57511537E-16      0.68287067E-12     -0.13461122E-24
    0.125538167976         0.49280933E-09      0.30196741E-03     -0.31275532E-16      0.69243181E-12     -0.71716923E-25
    0.131815076374         0.51809239E-09      0.30566791E-03     -0.23545752E-16      0.70178773E-12     -0.54059060E-25
    0.138091984773         0.55613556E-09      0.30258083E-03     -0.24240448E-16      0.71181543E-12     -0.57025177E-25
    0.144368893172         0.60970041E-09      0.29253473E-03     -0.63578837E-16      0.72166243E-12     -0.15684448E-24
    0.150645801571         0.68192607E-09      0.27687796E-03     -0.37146473E-16      0.73212031E-12     -0.98222649E-25
    0.156922709970         0.77635999E-09      0.25693033E-03     -0.11678597E-16      0.74251722E-12     -0.33750625E-25
    0.163199618368         0.89698941E-09      0.23468484E-03     -0.21378520E-16      0.75347183E-12     -0.68637210E-25
    0.169476526767         0.10482735E-08      0.21158470E-03     -0.13477328E-16      0.76447466E-12     -0.48694806E-25
    0.175753435166         0.12351757E-08      0.18902637E-03     -0.38327354E-16      0.77599888E-12     -0.15734304E-24
    0.182030343565         0.14631970E-08      0.16773957E-03     -0.95212982E-17      0.78760475E-12     -0.44706325E-25
    0.188307251963         0.17384091E-08      0.14828862E-03     -0.39197530E-16      0.79966217E-12     -0.21137686E-24
    0.194584160362         0.20674879E-08      0.13081618E-03     -0.33880212E-16      0.81191538E-12     -0.21027876E-24
    0.200861068761         0.24577476E-08      0.11536262E-03     -0.10399361E-16      0.82455652E-12     -0.74329630E-25
    0.207137977160         0.29171738E-08      0.10180681E-03     -0.28308963E-16      0.83751620E-12     -0.23288436E-24
    0.213414885559         0.34544578E-08      0.89986634E-04     -0.17400530E-16      0.85083821E-12     -0.16452483E-24
    0.219691793957         0.40790298E-08      0.79714022E-04     -0.32084874E-17      0.86455290E-12     -0.34798232E-25
    0.225968702356         0.48010926E-08      0.70793196E-04      0.34567342E-17      0.87861196E-12      0.42901411E-25
    0.232245610755         0.56316541E-08      0.63059758E-04      0.19211749E-17      0.89321203E-12      0.27212546E-25
    0.238522519154         0.65825603E-08      0.56333702E-04     -0.89101172E-18      0.90812901E-12     -0.14363579E-25
    0.244799427552         0.76665268E-08      0.50483819E-04      0.40983099E-17      0.92353692E-12      0.74973340E-25
    0.251076335951         0.88971707E-08      0.45374054E-04     -0.25012444E-17      0.93922043E-12     -0.51774519E-25
    0.257353244350         0.10289041E-07      0.40921805E-04      0.22937007E-17      0.95568292E-12      0.53566811E-25
    0.263630152749         0.11857647E-07      0.37011991E-04     -0.17034991E-17      0.97243302E-12     -0.44756812E-25
    0.269907061148         0.13619491E-07      0.33582939E-04      0.98471891E-17      0.98987223E-12      0.29025033E-24
    0.276183969546         0.15592091E-07      0.30553390E-04     -0.39146365E-17      0.10075790E-11     -0.12909551E-24
    0.282460877945         0.17794010E-07      0.27885376E-04     -0.54550338E-17      0.10261382E-11     -0.20073670E-24
    0.288737786344         0.20244883E-07      0.25515196E-04      0.29344259E-17      0.10450194E-11      0.12018454E-24
    0.295014694743         0.22965437E-07      0.23418348E-04     -0.19435587E-17      0.10648811E-11     -0.88377665E-25
    0.301291603141         0.25977515E-07      0.21545514E-04     -0.67965062E-18      0.10851287E-11     -0.34230252E-25
    0.307568511540         0.29304101E-07      0.19877102E-04     -0.13634495E-17      0.11062503E-11     -0.75882108E-25
    0.313845419939         0.32969333E-07      0.18376858E-04      0.63804902E-18      0.11276633E-11      0.39152744E-25
    0.320122328338         0.36998524E-07      0.17039106E-04     -0.30847653E-18      0.11503474E-11     -0.20825928E-25
    0.326399236737         0.41418179E-07      0.15825715E-04     -0.15134525E-17      0.11730567E-11     -0.11218233E-24
    0.332676145135         0.46256007E-07      0.14736486E-04      0.93459523E-18      0.11968899E-11      0.75907352E-25
    0.338953053534         0.51540931E-07      0.13754090E-04     -0.11851135E-17      0.12216826E-11     -0.10526560E-24
    0.345229961933         0.57303105E-07      0.12867401E-04      0.15543230E-18      0.12475970E-11      0.15070399E-25
    0.351506870332         0.63573913E-07      0.12060739E-04     -0.10675904E-17      0.12741861E-11     -0.11278818E-24
    0.357783778731         0.70385980E-07      0.11330951E-04     -0.49996932E-18      0.13021041E-11     -0.57454317E-25
    0.364060687129         0.77773174E-07      0.10664662E-04     -0.23465973E-18      0.13308126E-11     -0.29282517E-25
    0.370337595528         0.85770606E-07      0.10059004E-04     -0.77249607E-18      0.13608476E-11     -0.10450829E-24
    0.376614503927         0.94414629E-07      0.95043684E-05      0.51370125E-19      0.13918080E-11      0.75225776E-26
    0.382891412326         0.10374284E-06      0.89985988E-05     -0.74931967E-18      0.14242007E-11     -0.11859419E-24
    0.389168320724         0.11379405E-06      0.85350217E-05     -0.19656500E-18      0.14578086E-11     -0.33573920E-25
    0.395445229123         0.12460831E-06      0.81109422E-05     -0.32283634E-18      0.14929517E-11     -0.59423314E-25
    0.401722137522         0.13622687E-06      0.77214010E-05     -0.25895440E-18      0.15294910E-11     -0.51294892E-25
    0.407999045921         0.14869219E-06      0.73638879E-05      0.13043684E-19      0.15676532E-11      0.27767904E-26
    0.414275954320         0.16204789E-06      0.70355382E-05     -0.82970343E-18      0.16075511E-11     -0.18957905E-24
    0.420552862718         0.17633876E-06      0.67333709E-05      0.11275265E-18      0.16492008E-11      0.27616443E-25
    0.426829771117         0.19161071E-06      0.64557968E-05     -0.34482370E-18      0.16928900E-11     -0.90422392E-25
    0.433106679516         0.20791078E-06      0.61998009E-05      0.68237591E-19      0.17384959E-11      0.19134610E-25
    0.439383587915         0.22528707E-06      0.59650655E-05     -0.42849890E-18      0.17865758E-11     -0.12833820E-24
    0.445660496313         0.24378875E-06      0.57487155E-05     -0.40226800E-18      0.18369364E-11     -0.12854015E-24
    0.451937404712         0.26346597E-06      0.55503351E-05     -0.61468082E-18      0.18900759E-11     -0.20931951E-24
    0.458214313111         0.28436989E-06      0.53715918E-05     -0.61222256E-18      0.19472951E-11     -0.22194128E-24
    0.464491221510         0.30655259E-06      0.51899927E-05     -0.22040591E-18      0.20008200E-11     -0.84969786E-25
    0.470768129909         0.33006704E-06      0.50156672E-05     -0.11834304E-18      0.20541759E-11     -0.48467614E-25
    0.477045038307         0.35496707E-06      0.48848601E-05     -0.13473981E-18      0.21232181E-11     -0.58565034E-25
    0.483321946706         0.38130728E-06      0.47587558E-05     -0.12116666E-18      0.21930362E-11     -0.55838730E-25
    0.489598855105         0.40914305E-06      0.46432439E-05     -0.26787463E-18      0.22665749E-11     -0.13076158E-24
    0.495875763504         0.43853041E-06      0.45343698E-05     -0.19096964E-18      0.23423812E-11     -0.98651789E-25
    0.502152671902         0.46952606E-06      0.44408062E-05     -0.52910553E-18      0.24254904E-11     -0.28898815E-24
    0.508429580301         0.50218725E-06      0.43479800E-05     -0.64053492E-19      0.25086277E-11     -0.36956556E-25
    0.514706488700         0.53657174E-06      0.42930389E-05     -0.16681167E-18      0.26142479E-11     -0.10158004E-24
    0.520983397099         0.57273772E-06      0.42538473E-05     -0.23759055E-18      0.27316660E-11     -0.15257201E-24
    0.527260305498         0.61074378E-06      0.41712225E-05     -0.11804269E-18      0.28223517E-11     -0.79870589E-25
    0.533537213896         0.65064880E-06      0.40958898E-05     -0.35011574E-19      0.29177225E-11     -0.24940626E-25
    0.539814122295         0.69251188E-06      0.40692746E-05     -0.26288807E-18      0.30493957E-11     -0.19700066E-24
    0.546091030694         0.73639228E-06      0.40611838E-05     -0.32983156E-18      0.31989734E-11     -0.25980661E-24
    0.552367939093         0.78234932E-06      0.40273485E-05     -0.25800572E-18      0.33320021E-11     -0.21345945E-24
    0.558644847491         0.83044233E-06      0.40055571E-05     -0.50700169E-19      0.34781668E-11     -0.44024749E-25
    0.564921755890         0.88073054E-06      0.40015287E-05     -0.35613724E-18      0.36441353E-11     -0.32432912E-24
    0.571198664289         0.93327299E-06      0.40170360E-05     -0.20440062E-18      0.38339023E-11     -0.19508215E-24
    0.577475572688         0.98812849E-06      0.40309760E-05     -0.32690782E-18      0.40290608E-11     -0.32675250E-24
    0.583752481087         0.10453555E-05      0.40645318E-05     -0.91510238E-19      0.42516703E-11     -0.95723538E-25
    0.590029389485         0.11050119E-05      0.41050077E-05     -0.12645146E-18      0.44907728E-11     -0.13833465E-24
    0.596306297884         0.11671553E-05      0.41684816E-05     -0.91494949E-19      0.47659659E-11     -0.10460927E-24
    0.602583206283         0.12318424E-05      0.42251264E-05     -0.60544056E-19      0.50453537E-11     -0.72297524E-25
    0.608860114682         0.12991293E-05      0.43312947E-05     -0.17758337E-18      0.53984165E-11     -0.22133544E-24
    0.615137023081         0.13690713E-05      0.43659310E-05     -0.10407518E-19      0.56760326E-11     -0.13530542E-25
    0.621413931479         0.14417228E-05      0.45312896E-05     -0.18552189E-18      0.61409620E-11     -0.25142575E-24
    0.627690839878         0.15171371E-05      0.41031539E-05     -0.12859002E-18      0.57930949E-11     -0.18155160E-24
    0.633967748277         0.15953663E-05      0.37485115E-05     -0.27902510E-18      0.55101814E-11     -0.41015718E-24
    0.640244656676         0.16764615E-05      0.58823572E-05     -0.23369652E-18      0.89973125E-11     -0.35744865E-24
    0.646521565074         0.17604722E-05      0.70150668E-05     -0.10512615E-18      0.11158139E-10     -0.16721327E-24
    0.652798473473         0.18474468E-05      0.72825462E-05     -0.44466728E-18      0.12038984E-10     -0.73509215E-24
    0.659075381872         0.19374318E-05      0.82637327E-05     -0.22768825E-18      0.14189967E-10     -0.39097209E-24
    0.665352290271         0.20304724E-05      0.91919988E-05     -0.51704316E-18      0.16385858E-10     -0.92169246E-24
    0.671629198670         0.21266118E-05      0.10648311E-04      0.93026682E-19      0.19694874E-10      0.17206003E-24
    0.677906107068         0.22258916E-05      0.20712225E-04     -0.64943620E-18      0.39726017E-10     -0.12456177E-23
    0.684183015467         0.23283513E-05      0.47200803E-04     -0.46162435E-18      0.93829499E-10     -0.91765349E-24
    0.690459923866         0.24340282E-05      0.13629095E-03      0.11486045E-17      0.28065187E-09      0.23652196E-23
    0.696736832265         0.25429579E-05      0.21455634E-03     -0.59046631E-17      0.45743096E-09     -0.12588655E-22
    0.703013740663         0.26551734E-05      0.14131574E-03     -0.97834938E-18      0.31176935E-09     -0.21584244E-23
    0.709290649062         0.27707053E-05      0.13522835E-03     -0.57378595E-17      0.30856570E-09     -0.13092718E-22
    0.715567557461         0.28895822E-05      0.23662760E-03     -0.51833830E-17      0.55816629E-09     -0.12226763E-22
    0.721844465860         0.30118296E-05      0.21476434E-03     -0.12504422E-16      0.52343498E-09     -0.30476436E-22
    0.728121374259         0.31374707E-05      0.16383348E-03     -0.61413218E-17      0.41237501E-09     -0.15457938E-22
    0.734398282657         0.32665259E-05      0.17653934E-03     -0.13083016E-16      0.45867996E-09     -0.33991953E-22
    0.740675191056         0.33990128E-05      0.21680329E-03     -0.11446225E-16      0.58117201E-09     -0.30683231E-22
    0.746952099455         0.35349461E-05      0.23138688E-03     -0.73870938E-17      0.63965025E-09     -0.20421021E-22
    0.753229007854         0.36743374E-05      0.24538994E-03     -0.16709913E-16      0.69923402E-09     -0.47614584E-22
    0.759505916252         0.38171952E-05      0.26517698E-03      0.25181952E-17      0.77850756E-09      0.73929267E-23
    0.765782824651         0.39635250E-05      0.22195620E-03     -0.59507242E-17      0.67105338E-09     -0.17991178E-22
    0.772059733050         0.41133290E-05      0.20208757E-03     -0.11877637E-17      0.62892079E-09     -0.36964634E-23
    0.778336641449         0.42666060E-05      0.24176244E-03     -0.10300829E-16      0.77413677E-09     -0.32983827E-22
    0.784613549848         0.44233513E-05      0.26454208E-03     -0.56830241E-17      0.87117258E-09     -0.18714961E-22
    0.790890458246         0.45835571E-05      0.27513850E-03     -0.15928122E-16      0.93143269E-09     -0.53921836E-22
    0.797167366645         0.47472116E-05      0.28859473E-03     -0.10745232E-16      0.10039019E-08     -0.37378224E-22
    0.803444275044         0.49142998E-05      0.29544911E-03     -0.48039531E-17      0.10556073E-08     -0.17163998E-22
    0.809721183443         0.50848028E-05      0.30606260E-03     -0.16095114E-16      0.11226973E-08     -0.59040016E-22
    0.815998091842         0.52586980E-05      0.31054252E-03     -0.98468343E-17      0.11690254E-08     -0.37068031E-22
    0.822275000240         0.54359592E-05      0.31560891E-03     -0.21527496E-16      0.12187711E-08     -0.83131652E-22
    0.828551908639         0.56165561E-05      0.31620679E-03     -0.14897103E-16      0.12520895E-08     -0.58988317E-22
    0.834828817038         0.58004548E-05      0.31510374E-03     -0.26138418E-16      0.12788864E-08     -0.10608591E-21
    0.841105725437         0.59876175E-05      0.31280180E-03     -0.19469503E-16      0.13007281E-08     -0.80960302E-22
    0.847382633835         0.61780022E-05      0.30712752E-03     -0.30081491E-16      0.13079798E-08     -0.12810960E-21
    0.853659542234         0.63715632E-05      0.30261547E-03     -0.63083663E-17      0.13193688E-08     -0.27503755E-22
    0.859936450633         0.65682506E-05      0.29319850E-03      0.23174651E-19      0.13081541E-08      0.10339758E-24
    0.866213359032         0.67680107E-05      0.28615842E-03     -0.10443867E-16      0.13060400E-08     -0.47666283E-22
    0.872490267431         0.69707857E-05      0.27369586E-03     -0.42316407E-17      0.12773302E-08     -0.19748937E-22
    0.878767175829         0.71765137E-05      0.26419779E-03     -0.13525130E-16      0.12603254E-08     -0.64520088E-22
    0.885044084228         0.73851287E-05      0.24987686E-03     -0.75730637E-17      0.12179599E-08     -0.36912935E-22
    0.891320992627         0.75965609E-05      0.23843667E-03     -0.15805139E-16      0.11870520E-08     -0.78685556E-22
    0.897597901026         0.78107362E-05      0.22307467E-03     -0.10252197E-16      0.11338986E-08     -0.52112379E-22
    0.903874809424         0.80275766E-05      0.20977555E-03     -0.52616785E-17      0.10882905E-08     -0.27296960E-22
    0.910151717823         0.82470002E-05      0.19284696E-03     -0.11906608E-16      0.10207251E-08     -0.63020823E-22
    0.916428626222         0.84689209E-05      0.17693837E-03     -0.72116079E-17      0.95513609E-09     -0.38929188E-22
    0.922705534621         0.86932488E-05      0.15576743E-03     -0.11892723E-16      0.85725386E-09     -0.65450666E-22
    0.928982443020         0.89198899E-05      0.16996806E-03     -0.94479686E-17      0.95330773E-09     -0.52991258E-22
    0.935259351418         0.91487464E-05      0.32323223E-03     -0.29567804E-16      0.18469622E-08     -0.16895164E-21
    0.941536259817         0.93797169E-05      0.37042907E-03     -0.52416244E-17      0.21556167E-08     -0.30502285E-22
    0.947813168216         0.96126957E-05      0.26042334E-03     -0.13124777E-16      0.15428232E-08     -0.77754978E-22
    0.954090076615         0.98475739E-05      0.21168068E-03     -0.63625411E-17      0.12762474E-08     -0.38360501E-22
    0.960366985013         0.10084238E-04      0.18818381E-03     -0.17025977E-17      0.11542555E-08     -0.10443155E-22
    0.966643893412         0.10322573E-04      0.16931632E-03     -0.76580302E-17      0.10561706E-08     -0.47769680E-22
    0.972920801811         0.10562458E-04      0.15649190E-03     -0.37826577E-17      0.99241464E-09     -0.23988238E-22
    0.979197710210         0.10803769E-04      0.14307278E-03     -0.85991682E-17      0.92209510E-09     -0.55421101E-22
    0.985474618609         0.11046380E-04      0.13312570E-03     -0.52901359E-17      0.87166630E-09     -0.34638188E-22
    0.991751527007         0.11290161E-04      0.11901014E-03     -0.90416778E-17      0.79139816E-09     -0.60125691E-22
    0.998028435406         0.11534978E-04      0.11624287E-03     -0.64400421E-17      0.78479091E-09     -0.43478681E-22
    1.004305343805         0.11780695E-04      0.12826539E-03     -0.11724989E-16      0.87887766E-09     -0.80339917E-22
    1.010582252204         0.12027173E-04      0.13176798E-03     -0.93031919E-17      0.91604238E-09     -0.64675184E-22
    1.016859160602         0.12274269E-04      0.11889134E-03     -0.59170502E-17      0.83829887E-09     -0.41720922E-22
