 
 # Omega; pulse ft; proj flux t=    2000.05000000000     
    0.000000000000         0.15753149E-11      0.00000000E+00      0.00000000E+00      0.00000000E+00      0.00000000E+00      0.00000000E+00      0.00000000E+00
    0.001570600002         0.18069754E-11     -0.85516382E-02     -0.35363029E-10     -0.60978768E-12     -0.25216151E-20     -0.95773253E-15     -0.39604486E-23
    0.003141200004         0.25019713E-11     -0.97136441E-02      0.32711175E-10     -0.47952538E-12      0.16148254E-20     -0.17108751E-14     -0.14242039E-23
    0.004711800005         0.36603453E-11     -0.80916220E-02      0.11830879E-09     -0.38959508E-12      0.56963267E-20     -0.23227731E-14      0.75224468E-23
    0.006282400007         0.52821684E-11     -0.69427947E-02      0.84439900E-10     -0.36179591E-12      0.44002469E-20     -0.28910098E-14      0.14433475E-22
    0.007853000009         0.73675403E-11     -0.57440463E-02      0.77605777E-10     -0.33400082E-12      0.45125669E-20     -0.34155915E-14      0.21520912E-22
    0.009423600011         0.99165891E-11     -0.48022961E-02      0.97432264E-10     -0.31321106E-12      0.63546399E-20     -0.39075208E-14      0.31501510E-22
    0.010994200013         0.12929471E-10     -0.40119086E-02      0.75562339E-10     -0.29242253E-12      0.55076357E-20     -0.43667996E-14      0.40151802E-22
    0.012564800014         0.16406372E-10     -0.34309041E-02      0.67056518E-10     -0.27765674E-12      0.54267604E-20     -0.48028873E-14      0.48675072E-22
    0.014135400016         0.20347504E-10     -0.29464736E-02      0.55636824E-10     -0.26287439E-12      0.49637289E-20     -0.52157578E-14      0.56471105E-22
    0.015706000018         0.24753111E-10     -0.25855323E-02      0.43684014E-10     -0.25255550E-12      0.42670664E-20     -0.56124215E-14      0.63172959E-22
    0.017276600020         0.29623462E-10     -0.22793015E-02      0.44145587E-10     -0.24222668E-12      0.46914544E-20     -0.59928627E-14      0.70541357E-22
    0.018847200022         0.34958856E-10     -0.20508663E-02      0.45776250E-10     -0.23577101E-12      0.52625139E-20     -0.63631646E-14      0.78806662E-22
    0.020417800023         0.40759620E-10     -0.18533882E-02      0.40817400E-10     -0.22931384E-12      0.50502072E-20     -0.67233249E-14      0.86738517E-22
    0.021988400025         0.47026112E-10     -0.16879903E-02      0.37224748E-10     -0.22374744E-12      0.49342357E-20     -0.70747427E-14      0.94488228E-22
    0.023559000027         0.53758715E-10     -0.15426821E-02      0.38260411E-10     -0.21817809E-12      0.54110847E-20     -0.74174132E-14      0.10298688E-21
    0.025129600029         0.60957842E-10     -0.14176697E-02      0.34861481E-10     -0.21313841E-12      0.52412216E-20     -0.77521684E-14      0.11121874E-21
    0.026700200031         0.68623934E-10     -0.13064005E-02      0.30604671E-10     -0.20810385E-12      0.48751894E-20     -0.80790163E-14      0.11887571E-21
    0.028270800032         0.76757463E-10     -0.12091529E-02      0.28277718E-10     -0.20347282E-12      0.47584943E-20     -0.83985907E-14      0.12634940E-21
    0.029841400034         0.85358926E-10     -0.11216327E-02      0.26454276E-10     -0.19884885E-12      0.46899509E-20     -0.87109027E-14      0.13371544E-21
    0.031412000036         0.94428851E-10     -0.10455563E-02      0.25279171E-10     -0.19480461E-12      0.47099318E-20     -0.90168628E-14      0.14111286E-21
    0.032982600038         0.10396779E-09     -0.97644941E-03      0.25951612E-10     -0.19076837E-12      0.50701517E-20     -0.93164836E-14      0.14907604E-21
    0.034553200039         0.11397634E-09     -0.91708165E-03      0.24752582E-10     -0.18748957E-12      0.50604555E-20     -0.96109547E-14      0.15702399E-21
    0.036123800041         0.12445510E-09     -0.86274533E-03      0.22896697E-10     -0.18422330E-12      0.48891659E-20     -0.99002958E-14      0.16470292E-21
    0.037694400043         0.13540471E-09     -0.81888047E-03      0.24192990E-10     -0.18231405E-12      0.53862830E-20     -0.10186638E-13      0.17316261E-21
    0.039265000045         0.14682586E-09     -0.77843618E-03      0.21658131E-10     -0.18041084E-12      0.50195015E-20     -0.10469992E-13      0.18104624E-21
    0.040835600047         0.15871923E-09     -0.74654587E-03      0.20746301E-10     -0.17984144E-12      0.49977434E-20     -0.10752451E-13      0.18889570E-21
    0.042406200048         0.17108555E-09     -0.71695423E-03      0.19953532E-10     -0.17927432E-12      0.49893783E-20     -0.11034019E-13      0.19673201E-21
    0.043976800050         0.18392558E-09     -0.68833639E-03      0.19269195E-10     -0.17842755E-12      0.49948766E-20     -0.11314257E-13      0.20457697E-21
    0.045547400052         0.19724011E-09     -0.66165156E-03      0.18250331E-10     -0.17758393E-12      0.48982965E-20     -0.11593170E-13      0.21227023E-21
    0.047118000054         0.21102995E-09     -0.63180914E-03      0.18685587E-10     -0.17538233E-12      0.51868857E-20     -0.11868626E-13      0.22041675E-21
    0.048688600056         0.22529594E-09     -0.60390344E-03      0.17838646E-10     -0.17319536E-12      0.51160013E-20     -0.12140647E-13      0.22845195E-21
    0.050259200057         0.24003895E-09     -0.57763606E-03      0.16830696E-10     -0.17098701E-12      0.49820824E-20     -0.12409199E-13      0.23627680E-21
    0.051829800059         0.25525989E-09     -0.55298567E-03      0.17269959E-10     -0.16879501E-12      0.52715342E-20     -0.12674308E-13      0.24455628E-21
    0.053400400061         0.27095967E-09     -0.53178201E-03      0.16163263E-10     -0.16723858E-12      0.50831376E-20     -0.12936973E-13      0.25253985E-21
    0.054971000063         0.28713927E-09     -0.51183197E-03      0.15165003E-10     -0.16570249E-12      0.49095776E-20     -0.13197225E-13      0.26025083E-21
    0.056541600065         0.30379966E-09     -0.49799800E-03      0.15386803E-10     -0.16584007E-12      0.51240134E-20     -0.13457694E-13      0.26829861E-21
    0.058112200066         0.32094187E-09     -0.48496691E-03      0.15155377E-10     -0.16600220E-12      0.51876240E-20     -0.13718417E-13      0.27644629E-21
    0.059682800068         0.33856693E-09     -0.49276744E-03      0.14384759E-10     -0.17325271E-12      0.50575551E-20     -0.13990528E-13      0.28438969E-21
    0.061253400070         0.35667593E-09     -0.49997432E-03      0.14619386E-10     -0.18044048E-12      0.52761290E-20     -0.14273927E-13      0.29267638E-21
    0.062824000072         0.37526995E-09     -0.48836141E-03      0.13843275E-10     -0.18080158E-12      0.51250692E-20     -0.14557894E-13      0.30072581E-21
    0.064394600074         0.39435014E-09     -0.47732417E-03      0.13325154E-10     -0.18117099E-12      0.50576346E-20     -0.14842442E-13      0.30866933E-21
    0.065965200075         0.41391766E-09     -0.45920393E-03      0.13608442E-10     -0.17858597E-12      0.52923693E-20     -0.15122929E-13      0.31698153E-21
    0.067535800077         0.43397368E-09     -0.44198075E-03      0.12960069E-10     -0.17602541E-12      0.51615403E-20     -0.15399394E-13      0.32508824E-21
    0.069106400079         0.45451945E-09     -0.42497007E-03      0.12537512E-10     -0.17323483E-12      0.51107924E-20     -0.15671477E-13      0.33311525E-21
    0.070677000081         0.47555619E-09     -0.40875750E-03      0.12181815E-10     -0.17046379E-12      0.50801720E-20     -0.15939207E-13      0.34109417E-21
    0.072247600083         0.49708519E-09     -0.40012409E-03      0.11707607E-10     -0.17062583E-12      0.49925017E-20     -0.16207192E-13      0.34893539E-21
    0.073818200084         0.51910775E-09     -0.39150010E-03      0.11450798E-10     -0.17063520E-12      0.49908266E-20     -0.16475192E-13      0.35677399E-21
    0.075388800086         0.54162521E-09     -0.37991607E-03      0.11708858E-10     -0.16916962E-12      0.52137387E-20     -0.16740890E-13      0.36496268E-21
    0.076959400088         0.56463893E-09     -0.36969909E-03      0.11119598E-10     -0.16811258E-12      0.50563941E-20     -0.17004927E-13      0.37290426E-21
    0.078530000090         0.58815031E-09     -0.35981806E-03      0.10885157E-10     -0.16702380E-12      0.50527766E-20     -0.17267255E-13      0.38084015E-21
    0.080100600092         0.61216077E-09     -0.34985061E-03      0.11010847E-10     -0.16571241E-12      0.52154660E-20     -0.17527523E-13      0.38903156E-21
    0.081671200093         0.63667176E-09     -0.34106641E-03      0.10607138E-10     -0.16478902E-12      0.51249252E-20     -0.17786340E-13      0.39708077E-21
    0.083241800095         0.66168477E-09     -0.33264454E-03      0.10429933E-10     -0.16388257E-12      0.51384704E-20     -0.18043734E-13      0.40515125E-21
    0.084812400097         0.68720130E-09     -0.32494628E-03      0.10100793E-10     -0.16318449E-12      0.50725083E-20     -0.18300032E-13      0.41311813E-21
    0.086383000099         0.71322290E-09     -0.31755870E-03      0.95601383E-11     -0.16250386E-12      0.48921960E-20     -0.18555260E-13      0.42080181E-21
    0.087953600101         0.73975113E-09     -0.31076540E-03      0.94738064E-11     -0.16199714E-12      0.49385471E-20     -0.18809693E-13      0.42855829E-21
    0.089524200102         0.76678760E-09     -0.30423772E-03      0.95921934E-11     -0.16150663E-12      0.50920801E-20     -0.19063355E-13      0.43655592E-21
    0.091094800104         0.79433393E-09     -0.29855654E-03      0.91590841E-11     -0.16135365E-12      0.49499892E-20     -0.19316777E-13      0.44433037E-21
    0.092665400106         0.82239179E-09     -0.29309122E-03      0.90174494E-11     -0.16121544E-12      0.49600671E-20     -0.19569982E-13      0.45212065E-21
    0.094236000108         0.85096285E-09     -0.28848768E-03      0.91857309E-11     -0.16145954E-12      0.51410302E-20     -0.19823571E-13      0.46019515E-21
    0.095806600109         0.88004885E-09     -0.28404864E-03      0.87852979E-11     -0.16171367E-12      0.50016180E-20     -0.20077558E-13      0.46805069E-21
    0.097377200111         0.90965153E-09     -0.28000700E-03      0.86654944E-11     -0.16211729E-12      0.50171119E-20     -0.20332180E-13      0.47593057E-21
    0.098947800113         0.93977266E-09     -0.27611212E-03      0.87259702E-11     -0.16253422E-12      0.51365683E-20     -0.20587456E-13      0.48399806E-21
    0.100518400115         0.97041405E-09     -0.27229846E-03      0.84918090E-11     -0.16292937E-12      0.50810609E-20     -0.20843353E-13      0.49197838E-21
    0.102089000117         0.10015775E-08     -0.26861986E-03      0.83451571E-11     -0.16333770E-12      0.50743781E-20     -0.21099891E-13      0.49994820E-21
    0.103659600118         0.10332650E-08     -0.26497038E-03      0.83780760E-11     -0.16369755E-12      0.51759392E-20     -0.21356994E-13      0.50807753E-21
    0.105230200120         0.10654783E-08     -0.26144782E-03      0.81694297E-11     -0.16407104E-12      0.51267087E-20     -0.21614684E-13      0.51612953E-21
    0.106800800122         0.10982195E-08     -0.25794453E-03      0.79825024E-11     -0.16439311E-12      0.50874055E-20     -0.21872880E-13      0.52411981E-21
    0.108371400124         0.11314903E-08     -0.25456353E-03      0.80517809E-11     -0.16473088E-12      0.52103966E-20     -0.22131607E-13      0.53230326E-21
    0.109942000126         0.11652929E-08     -0.25129821E-03      0.78414233E-11     -0.16508346E-12      0.51512075E-20     -0.22390887E-13      0.54039375E-21
    0.111512600127         0.11996293E-08     -0.24814778E-03      0.77000374E-11     -0.16545358E-12      0.51340326E-20     -0.22650748E-13      0.54845726E-21
    0.113083200129         0.12345014E-08     -0.24520999E-03      0.75894634E-11     -0.16591068E-12      0.51350805E-20     -0.22911327E-13      0.55652242E-21
    0.114653800131         0.12699115E-08     -0.24237237E-03      0.73078838E-11     -0.16638370E-12      0.50167135E-20     -0.23172650E-13      0.56440167E-21
    0.116224400133         0.13058615E-08     -0.23949242E-03      0.73293669E-11     -0.16677626E-12      0.51039797E-20     -0.23434588E-13      0.57241798E-21
    0.117795000135         0.13423536E-08     -0.23671257E-03      0.73168607E-11     -0.16718761E-12      0.51678220E-20     -0.23697173E-13      0.58053456E-21
    0.119365600136         0.13793901E-08     -0.23402319E-03      0.71916820E-11     -0.16761368E-12      0.51508756E-20     -0.23960427E-13      0.58862452E-21
    0.120936200138         0.14169730E-08     -0.23143217E-03      0.70663804E-11     -0.16806282E-12      0.51315072E-20     -0.24224387E-13      0.59668407E-21
    0.122506800140         0.14551046E-08     -0.22921463E-03      0.70801047E-11     -0.16874039E-12      0.52121438E-20     -0.24489410E-13      0.60487026E-21
    0.124077400142         0.14937873E-08     -0.22708441E-03      0.69046416E-11     -0.16944395E-12      0.51520478E-20     -0.24755539E-13      0.61296207E-21
    0.125648000144         0.15330232E-08     -0.22599487E-03      0.67994624E-11     -0.17089698E-12      0.51417433E-20     -0.25023950E-13      0.62103769E-21
    0.127218600145         0.15728147E-08     -0.22494544E-03      0.66493152E-11     -0.17236409E-12      0.50950275E-20     -0.25294665E-13      0.62903994E-21
    0.128789200147         0.16131641E-08     -0.22467017E-03      0.65220879E-11     -0.17441635E-12      0.50632390E-20     -0.25568603E-13      0.63699226E-21
    0.130359800149         0.16540739E-08     -0.22440314E-03      0.64997388E-11     -0.17647485E-12      0.51115168E-20     -0.25845775E-13      0.64502041E-21
    0.131930400151         0.16955464E-08     -0.22329621E-03      0.65104153E-11     -0.17786432E-12      0.51858047E-20     -0.26125128E-13      0.65316524E-21
    0.133501000153         0.17375841E-08     -0.22222847E-03      0.63427359E-11     -0.17926838E-12      0.51165899E-20     -0.26406687E-13      0.66120135E-21
    0.135071600154         0.17801894E-08     -0.21945021E-03      0.62474506E-11     -0.17925894E-12      0.51032597E-20     -0.26688231E-13      0.66921653E-21
    0.136642200156         0.18233649E-08     -0.21681308E-03      0.62798728E-11     -0.17931511E-12      0.51937647E-20     -0.26969864E-13      0.67737386E-21
    0.138212800158         0.18671131E-08     -0.21638110E-03      0.61068180E-11     -0.18116920E-12      0.51130498E-20     -0.27254408E-13      0.68540442E-21
    0.139783400160         0.19114366E-08     -0.21596658E-03      0.60685078E-11     -0.18303474E-12      0.51431465E-20     -0.27541882E-13      0.69348224E-21
    0.141354000162         0.19563380E-08     -0.21441343E-03      0.59373901E-11     -0.18392063E-12      0.50930043E-20     -0.27830748E-13      0.70148131E-21
    0.142924600163         0.20018198E-08     -0.21296449E-03      0.58717226E-11     -0.18487061E-12      0.50971358E-20     -0.28121106E-13      0.70948688E-21
    0.144495200165         0.20478848E-08     -0.20991264E-03      0.57952154E-11     -0.18438831E-12      0.50905460E-20     -0.28410706E-13      0.71748209E-21
    0.146065800167         0.20945357E-08     -0.20710642E-03      0.57607669E-11     -0.18406680E-12      0.51199086E-20     -0.28699801E-13      0.72552342E-21
    0.147636400169         0.21417752E-08     -0.20501584E-03      0.56698848E-11     -0.18433615E-12      0.50979708E-20     -0.28989320E-13      0.73353029E-21
    0.149207000170         0.21896059E-08     -0.20339425E-03      0.55851468E-11     -0.18499420E-12      0.50798868E-20     -0.29279872E-13      0.74150876E-21
    0.150777600172         0.22380308E-08     -0.20072749E-03      0.56330134E-11     -0.18466253E-12      0.51821825E-20     -0.29569903E-13      0.74964790E-21
    0.152348200174         0.22870527E-08     -0.20246264E-03      0.54971243E-11     -0.18837637E-12      0.51146636E-20     -0.29865767E-13      0.75768099E-21
    0.153918800176         0.23366743E-08     -0.20603689E-03      0.54317847E-11     -0.19386266E-12      0.51108335E-20     -0.30170247E-13      0.76570806E-21
    0.155489400178         0.23868986E-08     -0.19693401E-03      0.54426664E-11     -0.18736850E-12      0.51783044E-20     -0.30464528E-13      0.77384111E-21
    0.157060000179         0.24377285E-08     -0.19239138E-03      0.53642830E-11     -0.18507511E-12      0.51602898E-20     -0.30755207E-13      0.78194586E-21
    0.158630600181         0.24891669E-08     -0.19624748E-03      0.52678435E-11     -0.19085951E-12      0.51232151E-20     -0.31054971E-13      0.78999238E-21
    0.160201200183         0.25412168E-08     -0.19675396E-03      0.52342815E-11     -0.19343814E-12      0.51460702E-20     -0.31358785E-13      0.79807480E-21
    0.161771800185         0.25938812E-08     -0.19686617E-03      0.51690540E-11     -0.19564152E-12      0.51368988E-20     -0.31666060E-13      0.80614281E-21
    0.163342400187         0.26471632E-08     -0.19712321E-03      0.50776445E-11     -0.19799865E-12      0.51001947E-20     -0.31977036E-13      0.81415318E-21
    0.164913000188         0.27010658E-08     -0.19724026E-03      0.51216375E-11     -0.20022510E-12      0.51991433E-20     -0.32291510E-13      0.82231895E-21
    0.166483600190         0.27555922E-08     -0.19775562E-03      0.50084772E-11     -0.20286867E-12      0.51379735E-20     -0.32610135E-13      0.83038865E-21
    0.168054200192         0.28107454E-08     -0.19821684E-03      0.49482666E-11     -0.20547329E-12      0.51294158E-20     -0.32932852E-13      0.83844491E-21
    0.169624800194         0.28665287E-08     -0.19760913E-03      0.48847070E-11     -0.20697439E-12      0.51162073E-20     -0.33257926E-13      0.84648043E-21
    0.171195400196         0.29229452E-08     -0.19702278E-03      0.48264090E-11     -0.20849119E-12      0.51073471E-20     -0.33585382E-13      0.85450203E-21
    0.172766000197         0.29799981E-08     -0.19713361E-03      0.47736310E-11     -0.21074684E-12      0.51032781E-20     -0.33916381E-13      0.86251724E-21
    0.174336600199         0.30376909E-08     -0.19724077E-03      0.47577802E-11     -0.21300724E-12      0.51380941E-20     -0.34250930E-13      0.87058713E-21
    0.175907200201         0.30960266E-08     -0.19752856E-03      0.46793672E-11     -0.21547339E-12      0.51044726E-20     -0.34589353E-13      0.87860421E-21
    0.177477800203         0.31550088E-08     -0.19781146E-03      0.46095547E-11     -0.21794687E-12      0.50787658E-20     -0.34931660E-13      0.88658092E-21
    0.179048400205         0.32146406E-08     -0.19776327E-03      0.45931149E-11     -0.22006465E-12      0.51110716E-20     -0.35277294E-13      0.89460837E-21
    0.180619000206         0.32749256E-08     -0.19772437E-03      0.45469976E-11     -0.22219838E-12      0.51098178E-20     -0.35626278E-13      0.90263385E-21
    0.182189600208         0.33358672E-08     -0.19718541E-03      0.45096235E-11     -0.22377039E-12      0.51176211E-20     -0.35977732E-13      0.91067158E-21
    0.183760200210         0.33974688E-08     -0.19668116E-03      0.44720346E-11     -0.22537693E-12      0.51245041E-20     -0.36331709E-13      0.91872013E-21
    0.185330800212         0.34597339E-08     -0.19610887E-03      0.44057956E-11     -0.22690026E-12      0.50975573E-20     -0.36688079E-13      0.92672635E-21
    0.186901400214         0.35226661E-08     -0.19557988E-03      0.43783119E-11     -0.22846820E-12      0.51145602E-20     -0.37046911E-13      0.93475928E-21
    0.188472000215         0.35862688E-08     -0.19573233E-03      0.43816148E-11     -0.23083478E-12      0.51674094E-20     -0.37409460E-13      0.94287522E-21
    0.190042600217         0.36505458E-08     -0.19589772E-03      0.42771672E-11     -0.23322703E-12      0.50922034E-20     -0.37775766E-13      0.95087303E-21
    0.191613200219         0.37155006E-08     -0.19651648E-03      0.42363010E-11     -0.23617481E-12      0.50912145E-20     -0.38146703E-13      0.95886929E-21
