 ## Photon energy (column 1); D(omega) (2,3); E(omega) (4,5); response (6,7); cr
 oss sect (9); integrated (10)
 ## UNITLESS RESPONSE FUNCTION FOR ABSORPTION/EMISSION 2 omega im(D(omega)E(omeg
 a)^*) IN COLUMN 7
 ## QUANTUM MECHANICAL PHOTOABSORPTION/EMISSION CROSS SECTION IN MEGABARNS (no f
 actor of 1/3) IN COLUMN NINE
 ## INTEGRATED DIFFERENTIAL OSCILLATOR STRENGTH (CUMULATIVE EXCITATION PROBABILI
 TY FOR SUM RULE) IN COLUMN 10
 
    0.000000000000        -0.36723003E-04      0.00000000E+00      0.21090498E-05      0.00000000E+00      0.00000000E+00      0.00000000E+00      0.00000000E+00      0.00000000E+00      0.00000000E+00
    0.010463256132        -0.50128305E-04     -0.28164164E-03      0.29234190E-05      0.19167514E-04     -0.11603576E-09      0.28769450E-11     -0.39629700E+00      0.98256323E-02      0.00000000E+00
    0.020926512264        -0.85847958E-04     -0.56278788E-03      0.53671076E-05      0.38273087E-04     -0.92078265E-09      0.11096209E-10     -0.79151672E+00      0.95384453E-02      0.00000000E+00
    0.031389768396        -0.14640516E-03     -0.84247114E-03      0.94418289E-05      0.57254298E-04     -0.31149591E-08      0.26860635E-10     -0.11877650E+01      0.10242229E-01      0.00000000E+00
    0.041853024527        -0.23178565E-03     -0.11230971E-02      0.15150340E-04      0.76047778E-04     -0.74431982E-08      0.51184637E-10     -0.15893900E+01      0.10929757E-01      0.00000000E+00
    0.052316280659        -0.34015992E-03     -0.14025358E-02      0.22496294E-04      0.94588744E-04     -0.14681668E-07      0.65232383E-10     -0.19941048E+01      0.88600430E-02      0.22982928E-04
    0.062779536791        -0.47604365E-03     -0.16816287E-02      0.31484038E-04      0.11281056E-03     -0.25701095E-07      0.95209862E-10     -0.24056097E+01      0.89115958E-02      0.46099584E-04
    0.073242792923        -0.63812200E-03     -0.19598118E-02      0.42118353E-04      0.13064431E-03     -0.41442956E-07      0.12055190E-09     -0.28240586E+01      0.82148005E-02      0.67408754E-04
    0.083706049055        -0.82846090E-03     -0.22376633E-02      0.54404142E-04      0.14801841E-03     -0.62995006E-07      0.14888188E-09     -0.32523009E+01      0.76864614E-02      0.87347414E-04
    0.094169305187        -0.10477774E-02     -0.25137937E-02      0.68346067E-04      0.16485825E-03     -0.91538419E-07      0.17455808E-09     -0.36901945E+01      0.70369717E-02      0.10560130E-03
    0.104632561319        -0.12979862E-02     -0.27889864E-02      0.83948139E-04      0.18108585E-03     -0.12849078E-06      0.19183798E-09     -0.41410158E+01      0.61825770E-02      0.12163889E-03
    0.115095817450        -0.15811190E-02     -0.30627938E-02      0.10121327E-03      0.19661963E-03     -0.17546026E-06      0.20341176E-09     -0.46066704E+01      0.53405309E-02      0.13549221E-03
    0.125559073582        -0.18995373E-02     -0.33351020E-02      0.12014276E-03      0.21137410E-03     -0.23433588E-06      0.20708316E-09     -0.50898044E+01      0.44978718E-02      0.14715968E-03
    0.136022329714        -0.22559490E-02     -0.36058176E-02      0.14073581E-03      0.22525977E-03     -0.30733931E-06      0.19230976E-09     -0.55934222E+01      0.34999418E-02      0.15623852E-03
    0.146485585846        -0.26539324E-02     -0.38750866E-02      0.16298891E-03      0.23818293E-03     -0.39713444E-06      0.15389160E-09     -0.61215064E+01      0.23721147E-02      0.16239178E-03
    0.156948841978        -0.30977394E-02     -0.41428587E-02      0.18689529E-03      0.25004565E-03     -0.50689978E-06      0.92758191E-10     -0.66784516E+01      0.12220978E-02      0.16556190E-03
    0.167412098110        -0.35926473E-02     -0.44095872E-02      0.21244431E-03      0.26074575E-03     -0.64052492E-06     -0.81012215E-11     -0.72701022E+01     -0.91950691E-04      0.16532338E-03
    0.177875354242        -0.41453933E-02     -0.46757914E-02      0.23962083E-03      0.27017682E-03     -0.80279167E-06     -0.15220270E-09     -0.79036419E+01     -0.14984655E-02      0.16143636E-03
    0.188338610373        -0.47646172E-02     -0.49422307E-02      0.26840457E-03      0.27822838E-03     -0.99966890E-06     -0.32604687E-09     -0.85881926E+01     -0.28010807E-02      0.15417036E-03
    0.198801866505        -0.54613592E-02     -0.52105146E-02      0.29876951E-03      0.28478606E-03     -0.12387621E-05     -0.56616656E-09     -0.93358017E+01     -0.42668555E-02      0.14310215E-03
    0.209265122637        -0.62507625E-02     -0.54827512E-02      0.33068323E-03      0.28973181E-03     -0.15299581E-05     -0.84087717E-09     -0.10162588E+02     -0.55854393E-02      0.12861354E-03
    0.219728378769        -0.71535562E-02     -0.57629957E-02      0.36410628E-03      0.29294427E-03     -0.18865401E-05     -0.12083219E-08     -0.11091270E+02     -0.71039172E-02      0.11018600E-03
    0.230191634901        -0.81995534E-02     -0.60566801E-02      0.39899161E-03      0.29429912E-03     -0.23267902E-05     -0.15851985E-08     -0.12153790E+02     -0.82801486E-02      0.88707313E-04
    0.240654891033        -0.94324812E-02     -0.63729267E-02      0.43528395E-03      0.29366953E-03     -0.28769532E-05     -0.19254054E-08     -0.13397433E+02     -0.89662525E-02      0.65448878E-04
    0.251118147165        -0.10920464E-01     -0.67265437E-02      0.47291927E-03      0.29092670E-03     -0.35766400E-05     -0.20378932E-08     -0.14895733E+02     -0.84872708E-02      0.43432920E-04
    0.261581403296        -0.12775315E-01     -0.71427718E-02      0.51182422E-03      0.28594041E-03     -0.44893242E-05     -0.14987701E-08     -0.16769345E+02     -0.55984805E-02      0.28910477E-04
    0.272044659428        -0.15195046E-01     -0.76664332E-02      0.55191570E-03      0.27857969E-03     -0.57249606E-05      0.98284311E-09     -0.19231329E+02      0.33015737E-02      0.37474750E-04
    0.282507915560        -0.18567603E-01     -0.83885217E-02      0.59310036E-03      0.26871348E-03     -0.74958167E-05      0.79836085E-08     -0.22700018E+02      0.24177227E-01      0.10019041E-03
    0.292971171692        -0.23774296E-01     -0.95037282E-02      0.63527423E-03      0.25621142E-03     -0.10276351E-04      0.31507603E-07     -0.28119790E+02      0.86216124E-01      0.32383481E-03
    0.303434427824        -0.33321862E-01     -0.11542856E-01      0.67832241E-03      0.24094463E-03     -0.15404853E-04      0.12073374E-06     -0.38170518E+02      0.29915700E+00      0.10998473E-02
    0.313897683956        -0.58334051E-01     -0.16461132E-01      0.72211873E-03      0.22278657E-03     -0.28747647E-04      0.69631973E-06     -0.64631723E+02      0.15654966E+01      0.51607412E-02
    0.324360940088        -0.87769222E-01      0.16975724E+00      0.76652560E-03      0.20161393E-03     -0.21441511E-04      0.95893268E-04     -0.43822608E+02      0.19598867E+03      0.51355482E+00
    0.334824196219         0.64158937E-01      0.18150521E-01      0.81139384E-03      0.17730759E-03      0.37015747E-04      0.22442291E-05      0.68898866E+02      0.41772720E+01      0.52439065E+00
    0.345287452351         0.25109776E-01      0.55706429E-02      0.85656261E-03      0.14975353E-03      0.15429045E-04      0.69839688E-06      0.26199472E+02      0.11859211E+01      0.52746693E+00
    0.355750708483         0.12837511E-01      0.23290083E-02      0.90185943E-03      0.11884386E-03      0.84344355E-05      0.40895589E-06      0.13087267E+02      0.63455522E+00      0.52911296E+00
    0.366213964615         0.64985916E-02      0.10193324E-02      0.94710026E-03      0.84477816E-04      0.45710305E-05      0.30499995E-06      0.64912466E+01      0.43312549E+00      0.53023649E+00
    0.376677220747         0.24003615E-02      0.45893560E-03      0.99208968E-03      0.46562789E-04      0.18101173E-05      0.25880569E-06      0.23561161E+01      0.33687113E+00      0.53111033E+00
    0.387140476879        -0.63173391E-03      0.29424888E-03      0.10366211E-02      0.50153544E-05     -0.50590973E-06      0.23862795E-06     -0.60446367E+00      0.28511396E+00      0.53184991E+00
    0.397603733011        -0.30909677E-02      0.38781229E-03      0.10804773E-02     -0.40237697E-04     -0.26681796E-05      0.23430705E-06     -0.29304164E+01      0.25733545E+00      0.53251744E+00
    0.408066989142        -0.52256102E-02      0.67834964E-03      0.11234305E-02     -0.89258335E-04     -0.48406197E-05      0.24128953E-06     -0.48935397E+01      0.24392742E+00      0.53315019E+00
    0.418530245274        -0.71884812E-02      0.11455003E-02      0.11652432E-02     -0.14209627E-03     -0.71477433E-05      0.26227622E-06     -0.66599740E+01      0.24437822E+00      0.53378411E+00
    0.428993501406        -0.90923201E-02      0.17950904E-02      0.12056686E-02     -0.19878799E-03     -0.97116987E-05      0.30616421E-06     -0.83509944E+01      0.26326760E+00      0.53446702E+00
    0.439456757538        -0.11076280E-01      0.26781190E-02      0.12444516E-02     -0.25935575E-03     -0.12725331E-04      0.40438159E-06     -0.10111028E+02      0.32130509E+00      0.53530049E+00
    0.449920013670        -0.13476635E-01      0.40256683E-02      0.12813290E-02     -0.32380669E-03     -0.16711416E-04      0.71481553E-06     -0.12284392E+02      0.52545362E+00      0.53666351E+00
    0.460383269802        -0.18587737E-01      0.84517883E-02      0.13160309E-02     -0.39213194E-03     -0.25575444E-04      0.35301903E-05     -0.17413936E+02      0.24036536E+01      0.54289858E+00
    0.470846525934        -0.59782230E-02      0.96148215E-02      0.13482815E-02     -0.46430575E-03     -0.11794276E-04      0.95937450E-05     -0.74470935E+01      0.60576431E+01      0.55861209E+00
    0.481309782065        -0.13696969E-01      0.62187416E-02      0.13777999E-02     -0.54028477E-03     -0.21400549E-04      0.11242609E-05     -0.12545287E+02      0.65905670E+00      0.56032168E+00
    0.491773038197        -0.16484666E-01      0.78199784E-02      0.14043017E-02     -0.62000729E-03     -0.27537213E-04      0.74847457E-06     -0.15003932E+02      0.40781402E+00      0.56137955E+00
    0.502236294329        -0.18928566E-01      0.99144751E-02      0.14274996E-02     -0.70339262E-03     -0.34146330E-04      0.84244653E-06     -0.17311682E+02      0.42710787E+00      0.56248747E+00
    0.512699550461        -0.22112583E-01      0.13642963E-01      0.14471048E-02     -0.79034051E-03     -0.43868432E-04      0.23238905E-05     -0.20717160E+02      0.10974728E+01      0.56533431E+00
    0.523162806593        -0.18806890E-01      0.16070559E-01      0.14628287E-02     -0.88073065E-03     -0.43595253E-04      0.72663877E-05     -0.19198422E+02      0.31999625E+01      0.57363500E+00
    0.533626062725        -0.23115381E-01      0.17976223E-01      0.14743838E-02     -0.97442229E-03     -0.55067408E-04      0.42473538E-05     -0.22637450E+02      0.17460284E+01      0.57816420E+00
    0.544089318857        -0.24436935E-01      0.21673224E-01      0.14814852E-02     -0.10712539E-02     -0.64660101E-04      0.64533310E-05     -0.24838627E+02      0.24789921E+01      0.58459470E+00
    0.554552574988        -0.25830695E-01      0.25475460E-01      0.14838522E-02     -0.11710432E-02     -0.75598599E-04      0.83770232E-05     -0.27164945E+02      0.30101269E+01      0.59240296E+00
    0.565015831120        -0.27688630E-01      0.29792088E-01      0.14812095E-02     -0.12735864E-02     -0.89222171E-04      0.10017122E-04     -0.30020051E+02      0.33704013E+01      0.60114577E+00
    0.575479087252        -0.30088247E-01      0.35354004E-01      0.14732893E-02     -0.13786591E-02     -0.10711946E-03      0.12206190E-04     -0.33781943E+02      0.38494295E+01      0.61113118E+00
    0.585942343384        -0.32914719E-01      0.42768259E-01      0.14598321E-02     -0.14860156E-02     -0.13078733E-03      0.15847034E-04     -0.38697974E+02      0.46888956E+01      0.62329416E+00
    0.596405599516        -0.36629451E-01      0.52975259E-01      0.14405886E-02     -0.15953897E-02     -0.16375408E-03      0.21324250E-04     -0.45503479E+02      0.59255171E+01      0.63866494E+00
    0.606868855648        -0.42504067E-01      0.68931357E-01      0.14153215E-02     -0.17064947E-02     -0.21578789E-03      0.30376292E-04     -0.56367417E+02      0.79347970E+01      0.65924778E+00
    0.617332111780        -0.53632430E-01      0.10072401E+00      0.13838065E-02     -0.18190238E-02     -0.31784736E-03      0.51638439E-04     -0.78123592E+02      0.12692194E+02      0.69217130E+00
    0.627795367911        -0.80712068E-01      0.21294275E+00      0.13458343E-02     -0.19326510E-02     -0.65311949E-03      0.16397689E-03     -0.15119177E+03      0.37959297E+02      0.79063761E+00
    0.638258624043         0.37020811E+00      0.98385851E-01      0.13012120E-02     -0.20470315E-02      0.35783372E-03      0.11308009E-02      0.78089684E+02      0.24677351E+03      0.14307674E+01
    0.648721880175         0.45800920E-01     -0.52889853E-01      0.12497646E-02     -0.21618024E-02      0.22261252E-03      0.42702345E-04      0.45839471E+02      0.87930944E+01      0.14535767E+01
    0.659185136307         0.13026401E-01     -0.73404314E-02      0.11913362E-02     -0.22765842E-02      0.42490986E-04      0.27568148E-04      0.82634426E+01      0.53613208E+01      0.14674839E+01
    0.669648392439         0.23964260E-02      0.20156430E-01      0.11257918E-02     -0.23909810E-02     -0.60932330E-04      0.38065160E-04     -0.11201566E+02      0.69977533E+01      0.14856361E+01
    0.680111648571        -0.22629922E-02      0.47463523E-01      0.10530183E-02     -0.25045822E-02     -0.16493968E-03      0.60274364E-04     -0.28688744E+02      0.10483807E+02      0.15128311E+01
    0.690574904703         0.49399774E-01      0.13148716E+00      0.97292631E-03     -0.26169635E-02     -0.40886835E-03      0.35523825E-03     -0.67345746E+02      0.58512196E+02      0.16646116E+01
    0.701038160834         0.73822473E-01     -0.17259204E-01      0.88545068E-03     -0.27276885E-02      0.15765492E-03      0.26090192E-03      0.24612495E+02      0.40731030E+02      0.17702677E+01
    0.711501416966         0.36864082E-01      0.40083732E-01      0.79055217E-03     -0.28363098E-02     -0.12031048E-03      0.19387878E-03     -0.17817656E+02      0.28712922E+02      0.18447490E+01
    0.721964673098         0.65063274E-01      0.44420681E-01      0.68821827E-03     -0.29423707E-02     -0.12406872E-03      0.32056877E-03     -0.17445460E+02      0.45075579E+02      0.19616749E+01
    0.732427929230         0.67184103E-01      0.27118201E-01      0.57846424E-03     -0.30454069E-02     -0.64046947E-04      0.32269286E-03     -0.85577992E+01      0.43117445E+02      0.20735214E+01
    0.742891185362         0.65972121E-01      0.25609486E-01      0.46133391E-03     -0.31449482E-02     -0.74445617E-04      0.32582231E-03     -0.94604880E+01      0.41405232E+02      0.21809265E+01
    0.753354441494         0.72924485E-01      0.23082428E-01      0.33690048E-03     -0.32405201E-02     -0.75683159E-04      0.36777218E-03     -0.91547880E+01      0.44486467E+02      0.22963243E+01
    0.763817697625         0.78578850E-01      0.64211740E-02      0.20526710E-03     -0.33316459E-02     -0.80405947E-05      0.40194373E-03     -0.92655778E+00      0.46317978E+02      0.24164730E+01
    0.774280953757         0.71155232E-01      0.89783319E-02      0.66567443E-04     -0.34178485E-02     -0.40185114E-04      0.37753237E-03     -0.44151182E+01      0.41479291E+02      0.25240702E+01
    0.784744209889         0.76415150E-01      0.26359684E-02     -0.79033977E-04     -0.34986523E-02     -0.23953108E-04      0.41927582E-03     -0.25112284E+01      0.43956605E+02      0.26380935E+01
    0.795207466021         0.78463951E-01     -0.45031054E-02     -0.23134150E-03     -0.35735853E-02     -0.32758361E-05      0.44760540E-03     -0.32797826E+00      0.44814465E+02      0.27543421E+01
    0.805670722153         0.79238268E-01     -0.12450738E-01     -0.39012822E-03     -0.36421814E-02      0.23259327E-04      0.47286028E-03      0.22257020E+01      0.45248345E+02      0.28717162E+01
    0.816133978285         0.78285908E-01     -0.20829129E-01     -0.55513601E-03     -0.37039818E-02      0.54993374E-04      0.49218196E-03      0.50335304E+01      0.45049297E+02      0.29885739E+01
    0.826597234417         0.75593548E-01     -0.28843336E-01     -0.72607566E-03     -0.37585378E-02      0.88482499E-04      0.50432955E-03      0.77527325E+01      0.44188762E+02      0.31031995E+01
    0.837060490548         0.71571560E-01     -0.35996661E-01     -0.90262722E-03     -0.38054128E-02      0.12117240E-03      0.51035728E-03      0.10171291E+02      0.42839725E+02      0.32143256E+01
    0.847523746680         0.66609070E-01     -0.42133967E-01     -0.10844404E-02     -0.38441838E-02      0.15210873E-03      0.51147937E-03      0.12241610E+02      0.41163522E+02      0.33211036E+01
    0.857987002812         0.60957884E-01     -0.47187136E-01     -0.12711352E-02     -0.38744443E-02      0.18075765E-03      0.50820141E-03      0.13958140E+02      0.39243409E+02      0.34229009E+01
    0.868450258944         0.54845765E-01     -0.51068236E-01     -0.14623026E-02     -0.38958058E-02      0.20625837E-03      0.50082773E-03      0.15293987E+02      0.37136202E+02      0.35192322E+01
    0.878913515076         0.48539478E-01     -0.53719984E-01     -0.16575055E-02     -0.39079002E-02      0.22759973E-03      0.48995667E-03      0.16217665E+02      0.34911962E+02      0.36097937E+01
    0.889376771208         0.42302261E-01     -0.55155698E-01     -0.18562797E-02     -0.39103812E-02      0.24396490E-03      0.47635442E-03      0.16717760E+02      0.32642314E+02      0.36944678E+01
    0.899840027340         0.36325951E-01     -0.55403374E-01     -0.20581353E-02     -0.39029272E-02      0.25460365E-03      0.46036749E-03      0.16790891E+02      0.30360839E+02      0.37732237E+01
    0.910303283471         0.30710114E-01     -0.54305338E-01     -0.22625574E-02     -0.38852423E-02      0.25762675E-03      0.44092393E-03      0.16363653E+02      0.28006123E+02      0.38458715E+01
    0.920766539603         0.25657500E-01     -0.50723435E-01     -0.24690083E-02     -0.38570584E-02      0.24362501E-03      0.41286999E-03      0.14914573E+02      0.25275645E+02      0.39114365E+01
    0.931229795735         0.31069410E-01     -0.36187647E-01     -0.26769286E-02     -0.38181371E-02      0.10243306E-03      0.40135820E-03      0.60484738E+01      0.23699425E+02      0.39729127E+01
    0.941693051867         0.37825646E-01     -0.65601800E-01     -0.28857388E-02     -0.37682710E-02      0.26000225E-03      0.62499593E-03      0.14818845E+02      0.35621684E+02      0.40653153E+01
    0.952156307999         0.21303035E-01     -0.61535412E-01     -0.30948417E-02     -0.37072855E-02      0.30887916E-03      0.51305760E-03      0.17004743E+02      0.28245392E+02      0.41385837E+01
    0.962619564131         0.16133022E-01     -0.58364613E-01     -0.33036236E-02     -0.36350399E-02      0.30584400E-03      0.48411851E-03      0.16275566E+02      0.25762490E+02      0.42054116E+01
    0.973082820263         0.12841612E-01     -0.56023771E-01     -0.35114569E-02     -0.35514291E-02      0.29945978E-03      0.47161652E-03      0.15414791E+02      0.24276617E+02      0.42683850E+01
    0.983546076394         0.10634401E-01     -0.53813693E-01     -0.37177020E-02     -0.34563844E-02      0.28811069E-03      0.46584647E-03      0.14355813E+02      0.23211929E+02      0.43285967E+01
    0.994009332526         0.11111098E-01     -0.50843376E-01     -0.39217093E-02     -0.33498746E-02      0.25197031E-03      0.47039251E-03      0.12161616E+02      0.22703997E+02      0.43874908E+01
