            ## Photon energy (column 1); D(omega) (2,3); E(omega) (4,5); response (6,7); cross sect (9); integrated (10)
                        ## UNITLESS RESPONSE FUNCTION FOR ABSORPTION/EMISSION 2 omega im(D(omega)E(omega)^*) IN COLUMN 7
             ## QUANTUM MECHANICAL PHOTOABSORPTION/EMISSION CROSS SECTION IN MEGABARNS (no factor of 1/3) IN COLUMN NINE
                                              ## INTEGRATED DIFFERENTIAL OSCILLATOR STRENGTH (FOR SUM RULE) IN COLUMN 10
 
    0.000000000000        -0.17534698E-04      0.00000000E+00      0.30542943E-05      0.00000000E+00      0.00000000E+00      0.00000000E+00      0.00000000E+00      0.00000000E+00      0.00000000E+00
    0.010463256132        -0.24132224E-04     -0.14087508E-03      0.34500442E-05      0.95593777E-05     -0.29923559E-10     -0.53432962E-11     -0.37198509E+00     -0.66423466E-01      0.00000000E+00
    0.020926512264        -0.41521855E-04     -0.28150915E-03      0.46376589E-05      0.19090581E-04     -0.23298480E-09     -0.21465040E-10     -0.77505911E+00     -0.71406698E-01      0.00000000E+00
    0.031389768396        -0.71049634E-04     -0.42147975E-03      0.66182205E-05      0.28565197E-04     -0.78536410E-09     -0.47706119E-10     -0.11728313E+01     -0.71242411E-01      0.00000000E+00
    0.041853024527        -0.11270025E-03     -0.56210665E-03      0.93934849E-05      0.37954339E-04     -0.18744324E-08     -0.83930107E-10     -0.15742557E+01     -0.70489309E-01      0.00000000E+00
    0.052316280659        -0.16554387E-03     -0.70223288E-03      0.12965812E-04      0.47228418E-04     -0.36947598E-08     -0.13462487E-09     -0.19777408E+01     -0.72062354E-01     -0.18692955E-03
    0.062779536791        -0.23188162E-03     -0.84241319E-03      0.17338067E-04      0.56356919E-04     -0.64658141E-08     -0.19307004E-09     -0.23878228E+01     -0.71300695E-01     -0.37188337E-03
    0.073242792923        -0.31101079E-03     -0.98234294E-03      0.22513499E-04      0.65308189E-04     -0.10423472E-07     -0.26432239E-09     -0.28045156E+01     -0.71117979E-01     -0.55636321E-03
    0.083706049055        -0.40395793E-03     -0.11223787E-02      0.28495589E-04      0.74049240E-04     -0.15840920E-07     -0.34655398E-09     -0.32308159E+01     -0.70681004E-01     -0.73970955E-03
    0.094169305187        -0.51109920E-03     -0.12619227E-02      0.35287876E-04      0.82545566E-04     -0.23015304E-07     -0.44101347E-09     -0.36667624E+01     -0.70261580E-01     -0.92196790E-03
    0.104632561319        -0.63341176E-03     -0.14013648E-02      0.42893762E-04      0.90760974E-04     -0.32301881E-07     -0.54842918E-09     -0.41155276E+01     -0.69874427E-01     -0.11032220E-02
    0.115095817450        -0.77187873E-03     -0.15405682E-02      0.51316292E-04      0.98657445E-04     -0.44104367E-07     -0.66862977E-09     -0.45790656E+01     -0.69419421E-01     -0.12832958E-02
    0.125559073582        -0.92771854E-03     -0.16795168E-02      0.60557919E-04      0.10619500E-03     -0.58896496E-07     -0.80080749E-09     -0.50600108E+01     -0.68800265E-01     -0.14617635E-02
    0.136022329714        -0.11022481E-02     -0.18182435E-02      0.70620247E-04      0.11333163E-03     -0.77234983E-07     -0.94813857E-09     -0.55613352E+01     -0.68271090E-01     -0.16388585E-02
    0.146485585846        -0.12972444E-02     -0.19568951E-02      0.81503761E-04      0.12002316E-03     -0.99786871E-07     -0.11118076E-08     -0.60869723E+01     -0.67819967E-01     -0.18147833E-02
    0.156948841978        -0.15148706E-02     -0.20956302E-02      0.93207548E-04      0.12622327E-03     -0.12735290E-06     -0.12922005E-08     -0.66415419E+01     -0.67389152E-01     -0.19895906E-02
    0.167412098110        -0.17577279E-02     -0.22346363E-02      0.10572900E-03      0.13188345E-03     -0.16090123E-06     -0.14901798E-08     -0.72304982E+01     -0.66964949E-01     -0.21632975E-02
    0.177875354242        -0.20291529E-02     -0.23744113E-02      0.11906350E-03      0.13695299E-03     -0.20163266E-06     -0.17101465E-08     -0.78611684E+01     -0.66674465E-01     -0.23362509E-02
    0.188338610373        -0.23334233E-02     -0.25154929E-02      0.13320414E-03      0.14137905E-03     -0.25104017E-06     -0.19500187E-08     -0.85425592E+01     -0.66356515E-01     -0.25083795E-02
    0.198801866505        -0.26761069E-02     -0.26589072E-02      0.14814140E-03      0.14510672E-03     -0.31103249E-06     -0.22159047E-08     -0.92868030E+01     -0.66162445E-01     -0.26800047E-02
    0.209265122637        -0.30645458E-02     -0.28059225E-02      0.16386283E-03      0.14807913E-03     -0.38407002E-06     -0.25074760E-08     -0.10109503E+02     -0.66001864E-01     -0.28512134E-02
    0.219728378769        -0.35091346E-02     -0.29590570E-02      0.18035275E-03      0.15023757E-03     -0.47348988E-06     -0.28433763E-08     -0.11033641E+02     -0.66258635E-01     -0.30230881E-02
    0.230191634901        -0.40245475E-02     -0.31214529E-02      0.19759194E-03      0.15152169E-03     -0.58385161E-06     -0.32078090E-08     -0.12090617E+02     -0.66428507E-01     -0.31954034E-02
    0.240654891033        -0.46323548E-02     -0.32984439E-02      0.21555737E-03      0.15186967E-03     -0.72171044E-06     -0.36048743E-08     -0.13327298E+02     -0.66568576E-01     -0.33680821E-02
    0.251118147165        -0.53661097E-02     -0.34986586E-02      0.23422189E-03      0.15121845E-03     -0.89695489E-06     -0.40217363E-08     -0.14816535E+02     -0.66433882E-01     -0.35404115E-02
    0.261581403296        -0.62809298E-02     -0.37365528E-02      0.25355399E-03      0.14950401E-03     -0.11254197E-05     -0.43912457E-08     -0.16677776E+02     -0.65074578E-01     -0.37092147E-02
    0.272044659428        -0.74737053E-02     -0.40380305E-02      0.27351753E-03      0.14666167E-03     -0.14344445E-05     -0.45518497E-08     -0.19120888E+02     -0.60675339E-01     -0.38666064E-02
    0.282507915560        -0.91352500E-02     -0.44551366E-02      0.29407151E-03      0.14262637E-03     -0.18768903E-05     -0.40687954E-08     -0.22559654E+02     -0.48905690E-01     -0.39934676E-02
    0.292971171692        -0.11695470E-01     -0.51005574E-02      0.31516988E-03      0.13733304E-03     -0.25702565E-05     -0.80135303E-09     -0.27921216E+02     -0.87052600E-02     -0.40160491E-02
    0.303434427824        -0.16373083E-01     -0.62859521E-02      0.33676134E-03      0.13071697E-03     -0.38448188E-05      0.14185024E-07     -0.37829365E+02      0.13956717E+00     -0.36540122E-02
    0.313897683956        -0.28517341E-01     -0.92148736E-02      0.35878919E-03      0.12271421E-03     -0.71333311E-05      0.12134407E-06     -0.63696533E+02      0.10835326E+01     -0.84333157E-03
    0.324360940088        -0.48129854E-01      0.83881653E-01      0.38119122E-03      0.11326199E-03     -0.57386423E-05      0.24279216E-04     -0.46593843E+02      0.19713060E+03      0.51051292E+00
    0.334824196219         0.32388833E-01      0.99183863E-02      0.40389959E-03      0.10229913E-03      0.94396842E-05      0.46385383E-06      0.69816044E+02      0.34306698E+01      0.51941207E+00
    0.345287452351         0.12580722E-01      0.31499454E-02      0.42684076E-03      0.89766514E-04      0.39036297E-05      0.14861000E-06      0.26344441E+02      0.10029249E+01      0.52201365E+00
    0.355750708483         0.64234047E-02      0.13555746E-02      0.44993551E-03      0.75607554E-04      0.21292459E-05      0.88413446E-07      0.13133462E+02      0.54534547E+00      0.52342827E+00
    0.366213964615         0.32522302E-02      0.60327886E-03      0.47309891E-03      0.59768668E-04      0.11533423E-05      0.66672259E-07      0.65121594E+01      0.37645404E+00      0.52440480E+00
    0.376677220747         0.12022819E-02      0.25509243E-03      0.49624041E-03      0.42199764E-04      0.45757672E-06      0.57142807E-07      0.23686330E+01      0.29579813E+00      0.52517209E+00
    0.387140476879        -0.31667693E-03      0.11864436E-03      0.51926387E-03      0.22854736E-04     -0.12522237E-06      0.53305603E-07     -0.59513113E+00      0.25333990E+00      0.52582926E+00
    0.397603733011        -0.15519602E-02      0.11825647E-03      0.54206775E-03      0.16919550E-05     -0.66882314E-06      0.53063291E-07     -0.29224519E+01      0.23186237E+00      0.52643071E+00
    0.408066989142        -0.26279697E-02      0.21975333E-03      0.56454524E-03     -0.21325231E-04     -0.12146474E-05      0.55512319E-07     -0.48863089E+01      0.22331612E+00      0.52700999E+00
    0.418530245274        -0.36215513E-02      0.41050518E-03      0.58658450E-03     -0.46228012E-04     -0.17940907E-05      0.61422548E-07     -0.66533706E+01      0.22778501E+00      0.52760086E+00
    0.428993501406        -0.45897922E-02      0.69139119E-03      0.60806888E-03     -0.73041626E-04     -0.24378930E-05      0.73072673E-07     -0.83451645E+01      0.25013546E+00      0.52824971E+00
    0.439456757538        -0.56040809E-02      0.10850162E-02      0.62887723E-03     -0.10178489E-03     -0.31946020E-05      0.98377868E-07     -0.10106532E+02      0.31123097E+00      0.52905705E+00
    0.449920013670        -0.68391387E-02      0.16994330E-02      0.64888427E-03     -0.13246975E-03     -0.41958938E-05      0.17704922E-06     -0.12282995E+02      0.51829118E+00      0.53040149E+00
    0.460383269802        -0.95123603E-02      0.37942075E-02      0.66796090E-03     -0.16510081E-03     -0.64272373E-05      0.88751204E-06     -0.17430746E+02      0.24069435E+01      0.53664510E+00
    0.470846525934        -0.32112643E-02      0.46672810E-02      0.68597467E-03     -0.19967495E-03     -0.29520053E-05      0.24111368E-05     -0.74255268E+01      0.60650166E+01      0.55237773E+00
    0.481309782065        -0.70022203E-02      0.27739721E-02      0.70279019E-03     -0.23618089E-03     -0.53678083E-05      0.28467524E-06     -0.12537828E+02      0.66492859E+00      0.55410256E+00
    0.491773038197        -0.84418459E-02      0.34974749E-02      0.71826966E-03     -0.27459886E-03     -0.69083533E-05      0.19081662E-06     -0.15000388E+02      0.41432786E+00      0.55517732E+00
    0.502236294329        -0.97235119E-02      0.44745764E-02      0.73227337E-03     -0.31490022E-03     -0.85674620E-05      0.21563728E-06     -0.17312577E+02      0.43574596E+00      0.55630765E+00
    0.512699550461        -0.11422072E-01      0.62502867E-02      0.74466026E-03     -0.35704717E-03     -0.11009925E-04      0.59075480E-06     -0.20727478E+02      0.11121653E+01      0.55919260E+00
    0.523162806593        -0.98304182E-02      0.75407541E-02      0.75528852E-03     -0.40099248E-03     -0.10932625E-04      0.18347541E-05     -0.19195642E+02      0.32214846E+01      0.56754912E+00
    0.533626062725        -0.12050689E-01      0.83655452E-02      0.76401620E-03     -0.44667927E-03     -0.13814124E-04      0.10764509E-05     -0.22645099E+02      0.17645952E+01      0.57212648E+00
    0.544089318857        -0.12824377E-01      0.10168856E-01      0.77070185E-03     -0.49404079E-03     -0.16222133E-04      0.16337812E-05     -0.24853154E+02      0.25030381E+01      0.57861935E+00
    0.554552574988        -0.13639676E-01      0.12019052E-01      0.77520522E-03     -0.54300027E-03     -0.18965583E-04      0.21193708E-05     -0.27183557E+02      0.30377149E+01      0.58649918E+00
    0.565015831120        -0.14708937E-01      0.14112712E-01      0.77738788E-03     -0.59347087E-03     -0.22385964E-04      0.25332210E-05     -0.30048329E+02      0.34003028E+01      0.59531955E+00
    0.575479087252        -0.16090155E-01      0.16814160E-01      0.77711399E-03     -0.64535554E-03     -0.26880623E-04      0.30876161E-05     -0.33823662E+02      0.38851214E+01      0.60539755E+00
    0.585942343384        -0.17750419E-01      0.20429382E-01      0.77425100E-03     -0.69854710E-03     -0.32829371E-04      0.40054617E-05     -0.38762132E+02      0.47293089E+01      0.61766536E+00
    0.596405599516        -0.19950719E-01      0.25421326E-01      0.76867035E-03     -0.75292822E-03     -0.41123311E-04      0.53905046E-05     -0.45605673E+02      0.59780592E+01      0.63317243E+00
    0.606868855648        -0.23429771E-01      0.33241057E-01      0.76024824E-03     -0.80837156E-03     -0.54234130E-04      0.76847733E-05     -0.56546560E+02      0.80124359E+01      0.65395667E+00
    0.617332111780        -0.30071369E-01      0.48893824E-01      0.74886636E-03     -0.86473990E-03     -0.80006090E-04      0.13101055E-04     -0.78500348E+02      0.12854489E+02      0.68730118E+00
    0.627795367911        -0.47538184E-01      0.10509434E+00      0.73441261E-03     -0.92188634E-03     -0.16548394E-03      0.41883750E-04     -0.15294215E+03      0.38709441E+02      0.78771336E+00
    0.638258624043         0.18297858E+00      0.59123767E-01      0.71678185E-03     -0.97965456E-03      0.93485561E-04      0.28292045E-03      0.81459562E+02      0.24652551E+03      0.14271999E+01
    0.648721880175         0.24540108E-01     -0.24638660E-01      0.69587661E-03     -0.10378791E-02      0.55334469E-04      0.10800180E-04      0.45500758E+02      0.88808366E+01      0.14502368E+01
    0.659185136307         0.67589041E-02     -0.31687266E-02      0.67160781E-03     -0.10963859E-02      0.10564734E-04      0.69639296E-05      0.82054396E+01      0.54087595E+01      0.14642671E+01
    0.669648392439         0.51629854E-03      0.10172213E-01      0.64389544E-03     -0.11549925E-02     -0.15289930E-04      0.95708320E-05     -0.11226910E+02      0.70275583E+01      0.14824965E+01
    0.680111648571        -0.27817697E-02      0.23660718E-01      0.61266925E-03     -0.12135084E-02     -0.41373619E-04      0.15126354E-04     -0.28745967E+02      0.10509636E+02      0.15097585E+01
    0.690574904703         0.20346282E-01      0.67718205E-01      0.57786938E-03     -0.12717361E-02     -0.10270533E-03      0.89784929E-04     -0.67581600E+02      0.59079788E+02      0.16630113E+01
    0.701038160834         0.37417009E-01     -0.62052657E-02      0.53944698E-03     -0.13294712E-02      0.39866939E-04      0.65052730E-04      0.24866243E+02      0.40575400E+02      0.17682638E+01
    0.711501416966         0.17004917E-01      0.21352830E-01      0.49736481E-03     -0.13865031E-02     -0.30093832E-04      0.48663164E-04     -0.17807901E+02      0.28796226E+02      0.18429611E+01
    0.721964673098         0.30987336E-01      0.24547392E-01      0.45159778E-03     -0.14426159E-02     -0.30927010E-04      0.80554467E-04     -0.17377359E+02      0.45262179E+02      0.19603711E+01
    0.732427929230         0.32622720E-01      0.15976016E-01      0.40213344E-03     -0.14975888E-02     -0.15830430E-04      0.80977102E-04     -0.84531454E+01      0.43240217E+02      0.20725361E+01
    0.742891185362         0.32046203E-01      0.15224561E-01      0.34897249E-03     -0.15511972E-02     -0.18472811E-04      0.81752104E-04     -0.93821921E+01      0.41521236E+02      0.21802421E+01
    0.753354441494         0.35585999E-01      0.14265386E-01      0.29212915E-03     -0.16032131E-02     -0.18795810E-04      0.92239625E-04     -0.90874215E+01      0.44596129E+02      0.22959243E+01
    0.763817697625         0.39514067E-01      0.61571362E-02      0.23163157E-03     -0.16534062E-02     -0.15697094E-05      0.10198340E-03     -0.72304709E+00      0.46976084E+02      0.24177801E+01
    0.774280953757         0.35030458E-01      0.71150864E-02      0.16752212E-03     -0.17015449E-02     -0.96603354E-05      0.94149205E-04     -0.42429070E+01      0.41351186E+02      0.25250450E+01
    0.784744209889         0.38088700E-01      0.42038895E-02      0.99857656E-04     -0.17473967E-02     -0.55597779E-05      0.10511783E-03     -0.23302683E+01      0.44058011E+02      0.26393314E+01
    0.795207466021         0.39399020E-01      0.74022496E-03      0.28709743E-04     -0.17907295E-02     -0.30918772E-06      0.11224233E-03     -0.12376507E+00      0.44929596E+02      0.27558786E+01
    0.805670722153         0.40089599E-01     -0.31778348E-02     -0.45835226E-04     -0.18313127E-02      0.64165121E-05      0.11853390E-03      0.24549886E+01      0.45351646E+02      0.28735207E+01
    0.816133978285         0.39930141E-01     -0.73747495E-02     -0.12367594E-03     -0.18689176E-02      0.14436434E-04      0.12329862E-03      0.52835932E+01      0.45126087E+02      0.29905776E+01
    0.826597234417         0.38888362E-01     -0.11451476E-01     -0.20469614E-03     -0.19033189E-02      0.22872793E-04      0.12623963E-03      0.80139971E+01      0.44230890E+02      0.31053124E+01
    0.837060490548         0.37153910E-01     -0.15144765E-01     -0.28876469E-03     -0.19342953E-02      0.31081245E-04      0.12763483E-03      0.10433444E+02      0.42844834E+02      0.32164518E+01
    0.847523746680         0.34917003E-01     -0.18363918E-01     -0.37573567E-03     -0.19616308E-02      0.38822799E-04      0.12779683E-03      0.12495437E+02      0.41132461E+02      0.33231493E+01
    0.857987002812         0.32301764E-01     -0.21066892E-01     -0.46544856E-03     -0.19851156E-02      0.45963062E-04      0.12685903E-03      0.14195225E+02      0.39179123E+02      0.34247798E+01
    0.868450258944         0.29419177E-01     -0.23202917E-01     -0.55772850E-03     -0.20045469E-02      0.52286649E-04      0.12490581E-03      0.15506853E+02      0.37043797E+02      0.35208714E+01
    0.878913515076         0.26400250E-01     -0.24735426E-01     -0.65238657E-03     -0.20197300E-02      0.57543720E-04      0.12209592E-03      0.16400555E+02      0.34798599E+02      0.36111388E+01
    0.889376771208         0.23375670E-01     -0.25663241E-01     -0.74922023E-03     -0.20304794E-02      0.61536260E-04      0.11862727E-03      0.16867286E+02      0.32516114E+02      0.36954855E+01
    0.899840027340         0.20440248E-01     -0.25994230E-01     -0.84801371E-03     -0.20366196E-02      0.64080754E-04      0.11459008E-03      0.16905129E+02      0.30229983E+02      0.37739020E+01
    0.910303283471         0.17635150E-01     -0.25646312E-01     -0.94853854E-03     -0.20379859E-02      0.64702907E-04      0.10972195E-03      0.16440398E+02      0.27879313E+02      0.38462209E+01
    0.920766539603         0.15013779E-01     -0.24042668E-01     -0.10505541E-02     -0.20344257E-02      0.61028835E-04      0.10276223E-03      0.14946511E+02      0.25167393E+02      0.39115051E+01
    0.931229795735         0.17164256E-01     -0.16530995E-01     -0.11538085E-02     -0.20257987E-02      0.25486276E-04      0.10028400E-03      0.60206525E+01      0.23690206E+02      0.39729574E+01
    0.941693051867         0.21814618E-01     -0.31002617E-01     -0.12580387E-02     -0.20119785E-02      0.65792263E-04      0.15611959E-03      0.15002320E+02      0.35599264E+02      0.40653018E+01
    0.952156307999         0.13404686E-01     -0.29620110E-01     -0.13629720E-02     -0.19928529E-02      0.77616566E-04      0.12775072E-03      0.17096068E+02      0.28138774E+02      0.41382937E+01
    0.962619564131         0.10734548E-01     -0.28244388E-01     -0.14683263E-02     -0.19683246E-02      0.76686712E-04      0.12052200E-03      0.16327880E+02      0.25661144E+02      0.42048586E+01
    0.973082820263         0.90347842E-02     -0.27212978E-01     -0.15738113E-02     -0.19383123E-02      0.74982265E-04      0.11743227E-03      0.15443426E+02      0.24186473E+02      0.42675983E+01
    0.983546076394         0.78789269E-02     -0.26203219E-01     -0.16791292E-02     -0.19027507E-02      0.72051549E-04      0.11603921E-03      0.14365121E+02      0.23135065E+02      0.43276106E+01
    0.994009332526         0.80301775E-02     -0.24687327E-01     -0.17839758E-02     -0.18615918E-02      0.62885172E-04      0.11727423E-03      0.12145029E+02      0.22649202E+02      0.43863625E+01
