
 # Omega; pulse ft; projected flux at t=    1000.0500000000001     
    0.000000000000         0.10847490E-10      0.00000000E+00      0.00000000E+00      0.10847124E-15      0.78886091E-30
    0.003140022642         0.11093634E-10      0.76039835E-07     -0.12347613E-19      0.10461760E-15     -0.16988171E-28
    0.006280045285         0.11830642E-10      0.12770400E-06     -0.20156488E-19      0.93685540E-16     -0.14787098E-28
    0.009420067927         0.13054251E-10      0.14488802E-06      0.49116255E-20      0.78190310E-16      0.26506092E-29
    0.012560090569         0.14757372E-10      0.14278918E-06     -0.12615770E-19      0.65333229E-16     -0.57723491E-29
    0.015700113211         0.16930121E-10      0.12299350E-06     -0.48638541E-19      0.51649011E-16     -0.20424920E-28
    0.018840135854         0.19559852E-10      0.11180511E-06     -0.30152475E-20      0.45202841E-16     -0.12190655E-29
    0.021980158496         0.22631207E-10      0.96612494E-07     -0.95830933E-20      0.38737602E-16     -0.38424228E-29
    0.025120181138         0.26126176E-10      0.93429631E-07     -0.16243854E-19      0.37840795E-16     -0.65790730E-29
    0.028260203780         0.30024165E-10      0.88397845E-07     -0.12872083E-19      0.36572940E-16     -0.53255815E-29
    0.031400226423         0.34302079E-10      0.92197443E-07     -0.41084623E-19      0.39221941E-16     -0.17477911E-28
    0.034540249065         0.38934408E-10      0.94817966E-07     -0.27188661E-19      0.41621841E-16     -0.11934892E-28
    0.037680271707         0.43893332E-10      0.10416021E-06     -0.29179204E-19      0.47250774E-16     -0.13236724E-28
    0.040820294349         0.49148832E-10      0.11368333E-06     -0.39911238E-19      0.53303581E-16     -0.18713491E-28
    0.043960316992         0.54668813E-10      0.12883592E-06     -0.17916103E-19      0.62393356E-16     -0.86765070E-29
    0.047100339634         0.60419233E-10      0.14638497E-06     -0.28885250E-19      0.73125728E-16     -0.14429452E-28
    0.050240362276         0.66364250E-10      0.16708789E-06     -0.62864104E-19      0.85950605E-16     -0.32337519E-28
    0.053380384919         0.72466374E-10      0.19174009E-06     -0.21174037E-19      0.10136553E-15     -0.11193890E-28
    0.056520407561         0.78686628E-10      0.21022021E-06      0.84191963E-21      0.11397055E-15      0.45644540E-30
    0.059660430203         0.84984724E-10      0.22905520E-06     -0.42440139E-19      0.12706244E-15     -0.23542568E-28
    0.062800452845         0.91319245E-10      0.22719202E-06     -0.10516177E-19      0.12865159E-15     -0.59549754E-29
    0.065940475488         0.97647837E-10      0.22127011E-06      0.42320672E-20      0.12760152E-15      0.24405384E-29
    0.069080498130         0.10392742E-09      0.19869056E-06     -0.40588003E-19      0.11640575E-15     -0.23779072E-28
    0.072220520772         0.11011438E-09      0.17652192E-06     -0.18378544E-19      0.10481045E-15     -0.10912319E-28
    0.075360543414         0.11616481E-09      0.15318561E-06     -0.81531648E-20      0.91954097E-16     -0.48941732E-29
    0.078500566057         0.12203475E-09      0.13300020E-06     -0.36398742E-19      0.80516628E-16     -0.22035335E-28
    0.081640588699         0.12768041E-09      0.11766452E-06     -0.20445381E-19      0.71661548E-16     -0.12451907E-28
    0.084780611341         0.13305840E-09      0.10454506E-06      0.10424079E-20      0.63895729E-16      0.63709763E-30
    0.087920633984         0.13812604E-09      0.96493101E-07     -0.27264731E-19      0.59034185E-16     -0.16680479E-28
    0.091060656626         0.14284161E-09      0.89874077E-07     -0.10496873E-19      0.54901087E-16     -0.64121912E-29
    0.094200679268         0.14716459E-09      0.88002029E-07     -0.10248611E-19      0.53538294E-16     -0.62350056E-29
    0.097340701910         0.15105600E-09      0.88329085E-07     -0.51390746E-19      0.53378921E-16     -0.31056391E-28
    0.100480724553         0.15447866E-09      0.95101009E-07     -0.30329202E-19      0.56936847E-16     -0.18158053E-28
    0.103620747195         0.15739751E-09      0.11010683E-06     -0.72280274E-22      0.65131029E-16     -0.42755645E-31
    0.106760769837         0.15977989E-09      0.14005560E-06     -0.37116295E-20      0.81626924E-16     -0.21632045E-29
    0.109900792479         0.16159592E-09      0.20205187E-06     -0.31989351E-19      0.11569510E-15     -0.18317135E-28
    0.113040815122         0.16281876E-09      0.30390987E-06     -0.19755519E-19      0.17046550E-15     -0.11081031E-28
    0.116180837764         0.16342499E-09      0.49518865E-06     -0.20712749E-19      0.27125465E-15     -0.11346038E-28
    0.119320860406         0.16339494E-09      0.75123610E-06     -0.36814873E-19      0.40060947E-15     -0.19632159E-28
    0.122460883048         0.16271302E-09      0.10862331E-05     -0.22213748E-19      0.56204425E-15     -0.11493950E-28
    0.125600905691         0.16136811E-09      0.14030690E-05     -0.34170351E-19      0.70198284E-15     -0.17096095E-28
    0.128740928333         0.15935390E-09      0.17081620E-05     -0.33319331E-19      0.82337496E-15     -0.16060715E-28
    0.131880950975         0.15666928E-09      0.20821375E-05     -0.22567297E-19      0.96323825E-15     -0.10440081E-28
    0.135020973618         0.15331870E-09      0.24830329E-05     -0.30717483E-19      0.10979913E-14     -0.13583199E-28
    0.138160996260         0.14931255E-09      0.27590393E-05     -0.37195533E-19      0.11611579E-14     -0.15653959E-28
    0.141301018902         0.14466758E-09      0.23568934E-05     -0.99856080E-20      0.93969825E-15     -0.39812824E-29
    0.144441041544         0.13940727E-09      0.15828710E-05     -0.18774941E-19      0.59492593E-15     -0.70566073E-29
    0.147581064187         0.13356225E-09      0.96638880E-06     -0.31904996E-19      0.34058658E-15     -0.11244349E-28
    0.150721086829         0.12717068E-09      0.58763574E-06     -0.47041641E-19      0.19308286E-15     -0.15456743E-28
    0.153861109471         0.12027870E-09      0.40706385E-06     -0.40514398E-19      0.12392101E-15     -0.12333655E-28
    0.157001132113         0.11294082E-09      0.29398239E-06     -0.75910492E-19      0.82355387E-16     -0.21265348E-28
    0.160141154756         0.10522036E-09      0.24209455E-06     -0.29027071E-19      0.61944729E-16     -0.74271562E-29
    0.163281177398         0.97189861E-10      0.20506877E-06     -0.17302038E-19      0.47534279E-16     -0.40105565E-29
    0.166421200040         0.88931555E-10      0.19240685E-06     -0.67271859E-19      0.40039654E-16     -0.13999200E-28
    0.169561222683         0.80537758E-10      0.18359071E-06     -0.99347525E-19      0.33958323E-16     -0.18376068E-28
    0.172701245325         0.72111337E-10      0.18874628E-06     -0.55644581E-20      0.30690858E-16     -0.90480189E-30
    0.175841267967         0.63766150E-10      0.19631342E-06     -0.48488307E-19      0.27723108E-16     -0.68474513E-29
    0.178981290609         0.55627495E-10      0.21566937E-06     -0.55149245E-19      0.26103147E-16     -0.66748880E-29
    0.182121313252         0.47832561E-10      0.23945519E-06     -0.14683418E-18      0.24491177E-16     -0.15018017E-28
    0.185261335894         0.40530887E-10      0.27707137E-06     -0.10947907E-18      0.23605625E-16     -0.93272787E-29
    0.188401358536         0.33884816E-10      0.32348968E-06     -0.21151804E-18      0.22657087E-16     -0.14814638E-28
    0.191541381178         0.28069961E-10      0.38785998E-06     -0.43830965E-19      0.22134856E-16     -0.25013978E-29
    0.194681403821         0.23275664E-10      0.46268460E-06     -0.20907050E-18      0.21541959E-16     -0.97340351E-29
    0.197821426463         0.19705465E-10      0.54691367E-06     -0.36530243E-18      0.21215569E-16     -0.14170607E-28
    0.200961449105         0.17577570E-10      0.61146767E-06      0.23523772E-18      0.20827738E-16      0.80126389E-29
    0.204101471747         0.17125315E-10      0.63089517E-06     -0.30231396E-18      0.20614471E-16     -0.98780947E-29
    0.207241494390         0.18597645E-10      0.58238128E-06     -0.66935371E-18      0.20352192E-16     -0.23391575E-28
    0.210381517032         0.22259579E-10      0.49045890E-06     -0.59194245E-18      0.20208521E-16     -0.24389977E-28
    0.213521539674         0.28392684E-10      0.38674896E-06     -0.73457049E-18      0.20027026E-16     -0.38038272E-28
    0.216661562317         0.37295552E-10      0.29728676E-06      0.10302747E-19      0.19928439E-16      0.69063848E-30
    0.219801584959         0.49284270E-10      0.22677392E-06      0.41197495E-19      0.19801275E-16      0.35972520E-29
    0.222941607601         0.64692893E-10      0.17462753E-06      0.21867857E-18      0.19733345E-16      0.24711222E-28
    0.226081630243         0.83873922E-10      0.13597140E-06      0.62294836E-19      0.19644085E-16      0.89998706E-29
    0.229221652886         0.10719877E-09      0.10761024E-06      0.43738542E-20      0.19597936E-16      0.79656462E-30
    0.232361675528         0.13505825E-09      0.86309125E-07      0.26138613E-19      0.19536010E-16      0.59164568E-29
    0.235501698170         0.16786301E-09      0.70272202E-07      0.97359099E-20      0.19505949E-16      0.27024649E-29
    0.238641720812         0.20604406E-09      0.57889880E-07      0.43941900E-19      0.19464306E-16      0.14774579E-28
    0.241781743455         0.25005319E-09      0.48284902E-07      0.40197443E-19      0.19446560E-16      0.16189367E-28
    0.244921766097         0.30036346E-09      0.40664636E-07      0.24793172E-19      0.19420444E-16      0.11840617E-28
    0.248061788739         0.35746965E-09      0.34592150E-07      0.10330115E-19      0.19412407E-16      0.57970491E-29
    0.251201811381         0.42188874E-09      0.29659987E-07      0.20589424E-19      0.19398523E-16      0.13466102E-28
    0.254341834024         0.49416037E-09      0.25638326E-07      0.23785372E-19      0.19398240E-16      0.17996275E-28
    0.257481856666         0.57484728E-09      0.22306891E-07     -0.28974759E-20      0.19394002E-16     -0.25191164E-29
    0.260621879308         0.66453577E-09      0.19538079E-07      0.16989277E-19      0.19400454E-16      0.16869606E-28
    0.263761901951         0.76383615E-09      0.17206029E-07      0.85388582E-21      0.19404004E-16      0.96296497E-30
    0.266901924593         0.87338321E-09      0.15236641E-07     -0.30520185E-20      0.19416231E-16     -0.38892229E-29
    0.270041947235         0.99383660E-09      0.13554655E-07      0.10872406E-19      0.19426509E-16      0.15582314E-28
    0.273181969877         0.11258814E-08      0.12114723E-07      0.11863093E-20      0.19443598E-16      0.19039743E-29
    0.276321992520         0.12702283E-08      0.10870464E-07     -0.80473562E-21      0.19459736E-16     -0.14405956E-29
    0.279462015162         0.14276143E-08      0.97926084E-08      0.89090409E-20      0.19480900E-16      0.17723178E-28
    0.282602037804         0.15988030E-08      0.88523641E-08     -0.16815626E-20      0.19503003E-16     -0.37047188E-29
    0.285742060446         0.17845852E-08      0.80295669E-08     -0.26994906E-20      0.19528900E-16     -0.65654952E-29
    0.288882083089         0.19857789E-08      0.73048753E-08      0.14746086E-20      0.19554451E-16      0.39473860E-29
    0.292022105731         0.22032301E-08      0.66654522E-08      0.37107951E-20      0.19583769E-16      0.10902689E-28
    0.295162128373         0.24378129E-08      0.60982010E-08      0.25508669E-22      0.19613903E-16      0.82044616E-31
    0.298302151016         0.26904304E-08      0.55942877E-08      0.30449505E-20      0.19648650E-16      0.10694689E-28
    0.301442173658         0.29620145E-08      0.51452252E-08      0.71751744E-21      0.19688385E-16      0.27456057E-29
    0.304582196300         0.32535265E-08      0.47408566E-08     -0.14835006E-20      0.19721012E-16     -0.61710647E-29
    0.307722218942         0.35659575E-08      0.43769518E-08      0.14435293E-20      0.19752024E-16      0.65142654E-29
    0.310862241585         0.39003290E-08      0.40499535E-08     -0.25786667E-21      0.19788180E-16     -0.12599434E-29
    0.314002264227         0.42576927E-08      0.37549197E-08     -0.19672300E-20      0.19827353E-16     -0.10387696E-28
    0.317142286869         0.46391314E-08      0.34878977E-08      0.12650742E-20      0.19868670E-16      0.72064447E-29
    0.320282309511         0.50457590E-08      0.32455895E-08      0.69603209E-21      0.19911762E-16      0.42701719E-29
    0.323422332154         0.54787210E-08      0.30250872E-08     -0.13555831E-20      0.19955822E-16     -0.89424779E-29
    0.326562354796         0.59391947E-08      0.28241648E-08     -0.62141354E-21      0.20002028E-16     -0.44011351E-29
    0.329702377438         0.64283897E-08      0.26405022E-08      0.18729643E-21      0.20048838E-16      0.14221067E-29
    0.332842400080         0.69475481E-08      0.24724857E-08     -0.60678468E-21      0.20097833E-16     -0.49323066E-29
    0.335982422723         0.74979446E-08      0.23182790E-08      0.16035807E-21      0.20147164E-16      0.13936029E-29
    0.339122445365         0.80808871E-08      0.21767359E-08     -0.52056816E-21      0.20199043E-16     -0.48306175E-29
    0.342262468007         0.86977170E-08      0.20463659E-08     -0.60119862E-21      0.20251249E-16     -0.59495828E-29
    0.345402490650         0.93498090E-08      0.19262909E-08      0.82653884E-22      0.20305874E-16      0.87129071E-30
    0.348542513292         0.10038572E-07      0.18153163E-08     -0.85993591E-22      0.20360621E-16     -0.96450572E-30
    0.351682535934         0.10765449E-07      0.17128018E-08     -0.46600663E-21      0.20417896E-16     -0.55551523E-29
    0.354822558576         0.11531917E-07      0.16177816E-08     -0.19593348E-21      0.20475415E-16     -0.24798274E-29
    0.357962581219         0.12339487E-07      0.15297452E-08     -0.14341174E-21      0.20535303E-16     -0.19251596E-29
    0.361102603861         0.13189707E-07      0.14479201E-08     -0.63090220E-21      0.20595468E-16     -0.89740632E-29
    0.364242626503         0.14084158E-07      0.13718961E-08     -0.14238066E-21      0.20657792E-16     -0.21439452E-29
    0.367382649145         0.15024457E-07      0.13010908E-08     -0.47714551E-21      0.20720981E-16     -0.75989492E-29
    0.370522671788         0.16012256E-07      0.12351328E-08     -0.59678493E-21      0.20786146E-16     -0.10043339E-28
    0.373662694430         0.17049243E-07      0.11735427E-08     -0.26664147E-21      0.20851956E-16     -0.47377877E-29
    0.376802717072         0.18137141E-07      0.11160417E-08      0.24658939E-22      0.20919812E-16      0.46222319E-30
    0.379942739715         0.19277708E-07      0.10622329E-08     -0.36848383E-21      0.20988411E-16     -0.72807856E-29
    0.383082762357         0.20472742E-07      0.10118869E-08      0.25804154E-21      0.21059008E-16      0.53702631E-29
    0.386222784999         0.21724071E-07      0.96467946E-09     -0.35025984E-21      0.21130457E-16     -0.76721345E-29
    0.389362807641         0.23033564E-07      0.92041764E-09     -0.17944110E-21      0.21203822E-16     -0.41338160E-29
    0.392502830284         0.24403125E-07      0.87883951E-09     -0.13936361E-21      0.21278194E-16     -0.33742293E-29
    0.395642852926         0.25834693E-07      0.83977750E-09      0.25766313E-21      0.21354369E-16      0.65520137E-29
    0.398782875568         0.27330244E-07      0.80302241E-09     -0.33901893E-21      0.21431729E-16     -0.90480189E-29
    0.401922898210         0.28891791E-07      0.76842564E-09     -0.59608016E-22      0.21510778E-16     -0.16686257E-29
    0.405062920853         0.30521384E-07      0.73582108E-09     -0.45353860E-21      0.21591186E-16     -0.13308176E-28
    0.408202943495         0.32221107E-07      0.70507602E-09     -0.43910915E-21      0.21673189E-16     -0.13497687E-28
    0.411342966137         0.33993084E-07      0.67605828E-09     -0.10288637E-21      0.21756707E-16     -0.33110588E-29
    0.414482988779         0.35839473E-07      0.64864970E-09      0.84603814E-22      0.21841762E-16      0.28488356E-29
    0.417623011422         0.37762468E-07      0.62274387E-09     -0.84382352E-22      0.21928451E-16     -0.29713247E-29
    0.420763034064         0.39764301E-07      0.59823697E-09      0.16394374E-21      0.22016667E-16      0.60335533E-29
    0.423903056706         0.41847240E-07      0.57504145E-09      0.58391860E-21      0.22106600E-16      0.22447869E-28
    0.427043079349         0.44013589E-07      0.55306773E-09      0.60971288E-21      0.22198108E-16      0.24471636E-28
    0.430183101991         0.46265688E-07      0.53224137E-09      0.12653854E-20      0.22291375E-16      0.52996970E-28
    0.433323124633         0.48605914E-07      0.51248380E-09      0.87130778E-21      0.22386177E-16      0.38060228E-28
    0.436463147275         0.51036678E-07      0.49373560E-09      0.91102191E-21      0.22482873E-16      0.41484531E-28
    0.439603169918         0.53560430E-07      0.47592925E-09      0.54717292E-21      0.22581261E-16      0.25961536E-28
    0.442743192560         0.56179653E-07      0.45900949E-09      0.33808837E-21      0.22681479E-16      0.16706287E-28
    0.445883215202         0.58896866E-07      0.44292130E-09      0.34788635E-21      0.22783486E-16      0.17894971E-28
    0.449023237844         0.61714624E-07      0.42761602E-09      0.38581088E-21      0.22887364E-16      0.20649821E-28
    0.452163260487         0.64635518E-07      0.41304723E-09      0.45637967E-21      0.22993136E-16      0.25405327E-28
    0.455303283129         0.67662171E-07      0.39917124E-09      0.35527536E-21      0.23100795E-16      0.20560458E-28
    0.458443305771         0.70797244E-07      0.38594971E-09      0.40927770E-22      0.23210472E-16      0.24613385E-29
    0.461583328413         0.74043431E-07      0.37334280E-09      0.43630186E-21      0.23322051E-16      0.27254990E-28
    0.464723351056         0.77403460E-07      0.36131926E-09      0.13517379E-21      0.23435787E-16      0.87676035E-29
    0.467863373698         0.80880094E-07      0.34984232E-09      0.11635656E-21      0.23551441E-16      0.78331423E-29
    0.471003396340         0.84476127E-07      0.33888672E-09      0.25243923E-21      0.23669389E-16      0.17631503E-28
    0.474143418983         0.88194391E-07      0.32841827E-09      0.16577126E-21      0.23789269E-16      0.12007788E-28
    0.477283441625         0.92037747E-07      0.31841749E-09      0.89198574E-22      0.23911623E-16      0.66983843E-29
    0.480423464267         0.96009090E-07      0.30885142E-09      0.19315851E-21      0.24035895E-16      0.15032268E-28
    0.483563486909         0.10011135E-06      0.29970610E-09      0.37332884E-22      0.24162837E-16      0.30098433E-29
    0.486703509552         0.10434748E-06      0.29094948E-09      0.65640868E-22      0.24291684E-16      0.54804262E-29
    0.489843532194         0.10872047E-06      0.28257250E-09      0.22159504E-21      0.24423415E-16      0.19152988E-28
    0.492983554836         0.11323336E-06      0.27454364E-09      0.81398002E-22      0.24557032E-16      0.72807856E-29
    0.496123577478         0.11788918E-06      0.26685807E-09      0.28888390E-22      0.24693745E-16      0.26731908E-29
    0.499263600121         0.12269102E-06      0.25948508E-09      0.19755467E-21      0.24832350E-16      0.18905699E-28
    0.502403622763         0.12764201E-06      0.25242344E-09      0.65063213E-22      0.24974286E-16      0.64372282E-29
    0.505543645405         0.13274526E-06      0.24564282E-09      0.11447700E-21      0.25118113E-16      0.11705802E-28
    0.508683668048         0.13800397E-06      0.23914495E-09      0.36196444E-22      0.25265480E-16      0.38241265E-29
