
 # six columns.
 # Omega (column 1); |pulse ft|^2 (2); cross section (Mb) (3); flux (column 5)

  0.0000      0.116743E-11      0.000000E+00      0.000000E+00      0.234764E-07      0.000000E+00
  0.0031      0.119151E-11      0.799209E+02      0.626885E-12      0.236140E-07      0.185224E-21
  0.0063      0.126494E-11      0.151448E+03      0.151907E-10      0.237528E-07      0.238248E-20
  0.0094      0.139132E-11      0.207755E+03      0.438093E-11      0.238930E-07      0.503831E-21
  0.0126      0.157656E-11      0.245907E+03      0.365653E-11      0.240344E-07      0.357381E-21
  0.0157      0.182880E-11      0.266562E+03      0.179376E-10      0.241772E-07      0.162694E-20
  0.0188      0.215825E-11      0.272661E+03     -0.101147E-10      0.243212E-07     -0.902221E-21
  0.0220      0.257705E-11      0.268002E+03     -0.180026E-11      0.244667E-07     -0.164350E-21
  0.0251      0.309903E-11      0.256228E+03     -0.552988E-12      0.246134E-07     -0.531205E-22
  0.0283      0.373943E-11      0.240328E+03     -0.526660E-11      0.247616E-07     -0.542630E-21
  0.0314      0.451470E-11      0.222512E+03      0.333700E-10      0.249111E-07      0.373591E-20
  0.0345      0.544210E-11      0.204283E+03      0.190391E-10      0.250621E-07      0.233578E-20
  0.0377      0.653943E-11      0.186586E+03      0.256084E-10      0.252145E-07      0.346061E-20
  0.0408      0.782463E-11      0.169965E+03      0.593413E-11      0.253684E-07      0.885704E-21
  0.0440      0.931538E-11      0.154689E+03     -0.229010E-11      0.255237E-07     -0.377866E-21
  0.0471      0.110288E-10      0.140850E+03      0.154253E-12      0.256805E-07      0.281241E-22
  0.0503      0.129807E-10      0.128434E+03      0.641433E-11      0.258388E-07      0.129045E-20
  0.0534      0.151859E-10      0.117367E+03     -0.592105E-12      0.259986E-07     -0.131160E-21
  0.0565      0.176568E-10      0.107544E+03     -0.110546E-10      0.261600E-07     -0.268901E-20
  0.0597      0.204037E-10      0.988481E+02      0.311206E-11      0.263229E-07      0.828732E-21
  0.0628      0.234341E-10      0.911615E+02     -0.277994E-10      0.264875E-07     -0.807726E-20
  0.0660      0.267523E-10      0.843729E+02      0.599793E-11      0.266536E-07      0.189476E-20
  0.0691      0.303591E-10      0.783797E+02      0.116655E-10      0.268214E-07      0.399192E-20
  0.0722      0.342512E-10      0.730898E+02      0.380570E-11      0.269908E-07      0.140538E-20
  0.0754      0.384210E-10      0.684212E+02      0.255642E-11      0.271619E-07      0.101485E-20
  0.0785      0.428564E-10      0.643023E+02     -0.102012E-11      0.273347E-07     -0.433649E-21
  0.0817      0.475402E-10      0.606706E+02      0.739079E-12      0.275092E-07      0.335112E-21
  0.0848      0.524501E-10      0.574721E+02      0.307648E-11      0.276854E-07      0.148200E-20
  0.0879      0.575585E-10      0.546602E+02      0.516261E-11      0.278634E-07      0.263168E-20
  0.0911      0.628324E-10      0.521952E+02      0.149936E-11      0.280432E-07      0.805571E-21
  0.0942      0.682329E-10      0.500434E+02      0.396719E-11      0.282248E-07      0.223752E-20
  0.0974      0.737161E-10      0.481762E+02     -0.145240E-11      0.284083E-07     -0.856442E-21
  0.1005      0.792323E-10      0.465698E+02      0.134924E-11      0.285935E-07      0.828421E-21
  0.1036      0.847267E-10      0.452048E+02     -0.121315E-12      0.287808E-07     -0.772380E-22
  0.1068      0.901394E-10      0.440658E+02      0.296120E-11      0.289700E-07      0.194677E-20
  0.1099      0.954060E-10      0.431406E+02     -0.953888E-12      0.291612E-07     -0.644787E-21
  0.1131      0.100458E-09      0.424207E+02     -0.638932E-12      0.293543E-07     -0.442128E-21
  0.1162      0.105223E-09      0.419012E+02     -0.961379E-12      0.295493E-07     -0.677978E-21
  0.1194      0.109627E-09      0.415806E+02      0.767036E-12      0.297464E-07      0.548731E-21
  0.1225      0.113591E-09      0.414609E+02      0.174997E-11      0.299455E-07      0.126393E-20
  0.1256      0.117040E-09      0.415484E+02      0.559583E-11      0.301467E-07      0.406022E-20
  0.1288      0.119894E-09      0.418537E+02      0.106714E-11      0.303500E-07      0.773827E-21
  0.1319      0.122077E-09      0.423928E+02      0.172318E-11      0.305554E-07      0.124201E-20
  0.1351      0.123516E-09      0.431878E+02      0.842791E-12      0.307630E-07      0.600326E-21
  0.1382      0.124143E-09      0.442692E+02      0.166997E-11      0.309728E-07      0.116839E-20
  0.1413      0.123893E-09      0.456771E+02      0.140363E-11      0.311849E-07      0.958289E-21
  0.1445      0.122713E-09      0.474652E+02      0.514300E-11      0.313992E-07      0.340219E-20
  0.1476      0.120558E-09      0.497045E+02     -0.235641E-11      0.316158E-07     -0.149885E-20
  0.1508      0.117396E-09      0.524900E+02      0.173792E-11      0.318348E-07      0.105403E-20
  0.1539      0.113213E-09      0.559501E+02      0.125209E-11      0.320561E-07      0.717372E-21
  0.1570      0.108008E-09      0.602609E+02     -0.123922E-11      0.322798E-07     -0.663812E-21
  0.1602      0.101804E-09      0.656685E+02     -0.204622E-11      0.325060E-07     -0.101288E-20
  0.1633      0.946485E-10      0.725247E+02      0.250660E-11      0.327346E-07      0.113138E-20
  0.1665      0.866148E-10      0.813459E+02     -0.634999E-11      0.329658E-07     -0.257336E-20
  0.1696      0.778081E-10      0.929157E+02      0.122113E-10      0.331995E-07      0.436317E-20
  0.1727      0.683682E-10      0.108470E+03     -0.128726E-10      0.334358E-07     -0.396799E-20
  0.1759      0.584742E-10      0.130052E+03     -0.149570E-10      0.336747E-07     -0.387286E-20
  0.1790      0.483483E-10      0.161247E+03     -0.900080E-11      0.339163E-07     -0.189321E-20
  0.1822      0.382604E-10      0.208830E+03     -0.205808E-11      0.341606E-07     -0.336663E-21
  0.1853      0.285335E-10      0.286907E+03     -0.122205E-10      0.344076E-07     -0.146556E-20
  0.1884      0.195479E-10      0.428979E+03     -0.666788E-11      0.346574E-07     -0.538701E-21
  0.1916      0.117473E-10      0.731027E+03     -0.226520E-10      0.349101E-07     -0.108175E-20
  0.1947      0.564374E-11      0.155787E+04      0.198890E-10      0.351657E-07      0.448952E-21
  0.1979      0.182396E-11      0.493417E+04     -0.272372E-09      0.354241E-07     -0.195545E-20
  0.2010      0.955106E-12      0.964295E+04     -0.596800E-09      0.356856E-07     -0.220857E-20
  0.2042      0.379126E-11      0.248552E+04     -0.485113E-09      0.359500E-07     -0.701656E-20
  0.2073      0.111800E-10      0.862203E+03     -0.785024E-10      0.362175E-07     -0.329756E-20
  0.2104      0.240693E-10      0.409593E+03     -0.173637E-11      0.364882E-07     -0.154683E-21
  0.2136      0.435146E-10      0.231665E+03     -0.190055E-10      0.367619E-07     -0.301590E-20
  0.2167      0.706864E-10      0.145801E+03     -0.378851E-11      0.370389E-07     -0.962425E-21
  0.2199      0.106878E-09      0.985672E+02     -0.486433E-11      0.373192E-07     -0.184172E-20
  0.2230      0.153512E-09      0.701335E+02      0.122574E-11      0.376028E-07      0.657195E-21
  0.2261      0.212151E-09      0.518559E+02     -0.298699E-11      0.378897E-07     -0.218252E-20
  0.2293      0.284504E-09      0.395057E+02     -0.179140E-11      0.381801E-07     -0.173129E-20
  0.2324      0.372436E-09      0.308272E+02     -0.383418E-12      0.384739E-07     -0.478524E-21
  0.2356      0.477978E-09      0.245331E+02      0.148309E-11      0.387713E-07      0.234382E-20
  0.2387      0.603331E-09      0.198479E+02      0.173476E-11      0.390722E-07      0.341502E-20
  0.2418      0.750884E-09      0.162835E+02     -0.839083E-12      0.393768E-07     -0.202907E-20
  0.2450      0.923215E-09      0.135210E+02     -0.641154E-12      0.396852E-07     -0.188184E-20
  0.2481      0.112311E-08      0.113455E+02      0.168586E-12      0.399973E-07      0.594329E-21
  0.2513      0.135356E-08      0.960837E+01     -0.230176E-12      0.403132E-07     -0.965733E-21
  0.2544      0.161778E-08      0.820415E+01     -0.673153E-12      0.406330E-07     -0.333395E-20
  0.2575      0.191923E-08      0.705670E+01     -0.565092E-13      0.409568E-07     -0.327977E-21
  0.2607      0.226161E-08      0.610997E+01      0.218886E-12      0.412847E-07      0.147900E-20
  0.2638      0.264885E-08      0.532202E+01     -0.352464E-12      0.416166E-07     -0.275617E-20
  0.2670      0.308520E-08      0.466107E+01      0.132753E-12      0.419527E-07      0.119486E-20
  0.2701      0.357513E-08      0.410266E+01     -0.276831E-14      0.422931E-07     -0.285377E-22
  0.2733      0.412343E-08      0.362780E+01     -0.143927E-12      0.426378E-07     -0.169158E-20
  0.2764      0.473519E-08      0.322158E+01     -0.148718E-12      0.429869E-07     -0.198441E-20
  0.2795      0.541581E-08      0.287216E+01     -0.107332E-12      0.433404E-07     -0.161962E-20
  0.2827      0.617101E-08      0.257005E+01      0.237408E-13      0.436985E-07      0.403664E-21
  0.2858      0.700684E-08      0.230762E+01     -0.241737E-12      0.440612E-07     -0.461567E-20
  0.2890      0.792971E-08      0.207866E+01      0.100061E-12      0.444286E-07      0.213868E-20
  0.2921      0.894638E-08      0.187806E+01     -0.130034E-13      0.448009E-07     -0.310193E-21
  0.2952      0.100640E-07      0.170166E+01     -0.167356E-12      0.451780E-07     -0.444320E-20
  0.2984      0.112901E-07      0.154596E+01     -0.450495E-13      0.455600E-07     -0.132762E-20
  0.3015      0.126326E-07      0.140808E+01      0.593938E-13      0.459471E-07      0.193808E-20
  0.3047      0.140998E-07      0.128558E+01      0.442213E-13      0.463394E-07      0.159398E-20
  0.3078      0.157004E-07      0.117642E+01     -0.113683E-13      0.467369E-07     -0.451641E-21
  0.3109      0.174437E-07      0.107888E+01      0.120594E-13      0.471398E-07      0.526914E-21
  0.3141      0.193393E-07      0.991473E+00     -0.199219E-14      0.475481E-07     -0.955394E-22
  0.3172      0.213973E-07      0.912952E+00     -0.406230E-14      0.479619E-07     -0.213413E-21
  0.3204      0.236282E-07      0.842242E+00      0.466557E-14      0.483813E-07      0.268007E-21
  0.3235      0.260430E-07      0.778417E+00     -0.399212E-13      0.488066E-07     -0.250305E-20
  0.3266      0.286534E-07      0.720680E+00     -0.125431E-13      0.492376E-07     -0.856959E-21
  0.3298      0.314714E-07      0.668339E+00     -0.480557E-13      0.496746E-07     -0.357177E-20
  0.3329      0.345095E-07      0.620794E+00     -0.455949E-14      0.501177E-07     -0.368095E-21
  0.3361      0.377808E-07      0.577523E+00      0.255263E-13      0.505670E-07      0.223504E-20
  0.3392      0.412990E-07      0.538067E+00      0.195748E-13      0.510226E-07      0.185619E-20
  0.3423      0.450782E-07      0.502026E+00      0.420230E-14      0.514846E-07      0.430961E-21
  0.3455      0.491332E-07      0.469050E+00     -0.194617E-13      0.519532E-07     -0.215563E-20
  0.3486      0.534794E-07      0.438826E+00     -0.154948E-13      0.524285E-07     -0.185123E-20
  0.3518      0.581327E-07      0.411083E+00     -0.944722E-14      0.529106E-07     -0.121596E-20
  0.3549      0.631095E-07      0.385577E+00      0.177390E-13      0.533996E-07      0.245673E-20
  0.3581      0.684271E-07      0.362093E+00     -0.589632E-14      0.538958E-07     -0.877639E-21
  0.3612      0.741031E-07      0.340441E+00      0.931801E-16      0.543991E-07      0.148893E-22
  0.3643      0.801559E-07      0.320451E+00      0.302677E-14      0.549098E-07      0.518642E-21
  0.3675      0.866045E-07      0.301970E+00     -0.186342E-13      0.554281E-07     -0.342039E-20
  0.3706      0.934686E-07      0.284863E+00     -0.181081E-15      0.559540E-07     -0.355688E-22
  0.3738      0.100768E-06      0.269008E+00     -0.385651E-14      0.564878E-07     -0.809810E-21
  0.3769      0.108525E-06      0.254296E+00     -0.158418E-13      0.570295E-07     -0.355274E-20
  0.3800      0.116760E-06      0.240629E+00     -0.296252E-14      0.575794E-07     -0.708894E-21
  0.3832      0.125495E-06      0.227918E+00      0.226024E-14      0.581376E-07      0.576545E-21
  0.3863      0.134755E-06      0.216083E+00      0.248147E-14      0.587044E-07      0.674152E-21
  0.3895      0.144561E-06      0.205053E+00      0.984565E-14      0.592798E-07      0.284633E-20
  0.3926      0.154939E-06      0.194762E+00     -0.526389E-14      0.598640E-07     -0.161797E-20
  0.3957      0.165914E-06      0.185151E+00     -0.521341E-14      0.604573E-07     -0.170234E-20
  0.3989      0.177511E-06      0.176166E+00      0.320272E-14      0.610599E-07      0.111008E-20
  0.4020      0.189758E-06      0.167759E+00     -0.264836E-14      0.616718E-07     -0.973592E-21
  0.4052      0.202680E-06      0.159886E+00     -0.342454E-14      0.622935E-07     -0.133424E-20
  0.4083      0.216306E-06      0.152506E+00     -0.112427E-13      0.629249E-07     -0.463883E-20
  0.4114      0.230665E-06      0.145581E+00      0.291363E-14      0.635665E-07      0.127220E-20
  0.4146      0.245786E-06      0.139080E+00     -0.102023E-13      0.642183E-07     -0.471079E-20
  0.4177      0.261699E-06      0.132970E+00     -0.308878E-14      0.648806E-07     -0.150712E-20
  0.4209      0.278435E-06      0.127223E+00     -0.274033E-14      0.655537E-07     -0.141200E-20
  0.4240      0.296025E-06      0.121815E+00     -0.254958E-14      0.662378E-07     -0.138635E-20
  0.4271      0.314501E-06      0.116720E+00     -0.157229E-15      0.669331E-07     -0.901627E-22
  0.4303      0.333897E-06      0.111918E+00      0.189834E-14      0.676399E-07      0.114730E-20
  0.4334      0.354245E-06      0.107388E+00      0.399585E-14      0.683585E-07      0.254358E-20
  0.4366      0.375581E-06      0.103112E+00      0.814788E-15      0.690891E-07      0.545939E-21
  0.4397      0.397938E-06      0.990730E-01      0.130968E-14      0.698320E-07      0.923134E-21
  0.4429      0.421354E-06      0.952551E-01     -0.223250E-14      0.705874E-07     -0.165436E-20
  0.4460      0.445864E-06      0.916440E-01     -0.115373E-14      0.713558E-07     -0.898318E-21
  0.4491      0.471505E-06      0.882265E-01     -0.218521E-15      0.721374E-07     -0.178671E-21
  0.4523      0.498315E-06      0.849900E-01     -0.373814E-14      0.729324E-07     -0.320781E-20
  0.4554      0.526332E-06      0.819233E-01     -0.216875E-14      0.737413E-07     -0.195215E-20
  0.4586      0.555596E-06      0.790157E-01     -0.416017E-14      0.745643E-07     -0.392580E-20
  0.4617      0.586146E-06      0.762574E-01     -0.370264E-14      0.754018E-07     -0.366110E-20
  0.4648      0.618022E-06      0.736394E-01     -0.469863E-14      0.762542E-07     -0.486548E-20
  0.4680      0.651266E-06      0.711531E-01     -0.502161E-15      0.771218E-07     -0.544285E-21
  0.4711      0.685919E-06      0.687908E-01      0.417987E-14      0.780050E-07      0.473974E-20
  0.4743      0.722022E-06      0.665450E-01     -0.143569E-14      0.789042E-07     -0.170234E-20
  0.4774      0.759619E-06      0.644091E-01      0.114539E-14      0.798198E-07      0.141944E-20
  0.4805      0.798753E-06      0.623766E-01     -0.687512E-15      0.807521E-07     -0.890046E-21
  0.4837      0.839468E-06      0.604417E-01      0.421012E-15      0.817017E-07      0.569100E-21
  0.4868      0.881808E-06      0.585989E-01     -0.135444E-14      0.826690E-07     -0.191079E-20
  0.4900      0.925817E-06      0.568430E-01      0.240565E-15      0.836544E-07      0.354033E-21
  0.4931      0.971542E-06      0.551692E-01     -0.141338E-14      0.846584E-07     -0.216887E-20
  0.4962      0.101903E-05      0.535731E-01     -0.193847E-14      0.856814E-07     -0.310027E-20
  0.4994      0.106832E-05      0.520504E-01     -0.138612E-14      0.867241E-07     -0.230949E-20
  0.5025      0.111947E-05      0.505973E-01     -0.100024E-14      0.877869E-07     -0.173542E-20
  0.5057      0.117251E-05      0.492100E-01     -0.235338E-14      0.888703E-07     -0.425005E-20
  0.5088      0.122751E-05      0.478852E-01     -0.766882E-15      0.899749E-07     -0.144095E-20
  0.5120      0.128450E-05      0.466195E-01     -0.202081E-14      0.911013E-07     -0.394896E-20
  0.5151      0.134353E-05      0.454101E-01     -0.537476E-15      0.922501E-07     -0.109188E-20
  0.5182      0.140466E-05      0.442539E-01     -0.336116E-14      0.934219E-07     -0.709556E-20
  0.5214      0.146792E-05      0.431484E-01      0.143268E-14      0.946173E-07      0.314163E-20
  0.5245      0.153338E-05      0.420911E-01     -0.260045E-14      0.958371E-07     -0.592096E-20
  0.5277      0.160107E-05      0.410796E-01     -0.430520E-15      0.970819E-07     -0.101743E-20
  0.5308      0.167105E-05      0.401117E-01     -0.317586E-14      0.983523E-07     -0.778708E-20
  0.5339      0.174336E-05      0.391853E-01     -0.111764E-14      0.996493E-07     -0.284219E-20
  0.5371      0.181807E-05      0.382985E-01      0.943742E-15      0.100973E-06      0.248816E-20
  0.5402      0.189520E-05      0.374495E-01     -0.351778E-15      0.102326E-06     -0.961184E-21
  0.5434      0.197482E-05      0.366364E-01      0.175974E-14      0.103707E-06      0.498128E-20
  0.5465      0.205698E-05      0.358577E-01     -0.114843E-14      0.105117E-06     -0.336663E-20
  0.5496      0.214172E-05      0.351119E-01     -0.141732E-16      0.106559E-06     -0.430134E-22
  0.5528      0.222909E-05      0.343974E-01     -0.141854E-14      0.108032E-06     -0.445519E-20
  0.5559      0.231914E-05      0.337129E-01      0.341147E-15      0.109537E-06      0.110842E-20
  0.5591      0.241192E-05      0.330572E-01     -0.226482E-14      0.111076E-06     -0.761006E-20
  0.5622      0.250748E-05      0.324290E-01     -0.295275E-15      0.112649E-06     -0.102570E-20
  0.5653      0.260587E-05      0.318271E-01     -0.270506E-14      0.114258E-06     -0.971110E-20
  0.5685      0.270713E-05      0.312506E-01      0.136493E-15      0.115904E-06      0.506235E-21
  0.5716      0.281132E-05      0.306983E-01     -0.214739E-14      0.117588E-06     -0.822548E-20
  0.5748      0.291847E-05      0.301693E-01     -0.810715E-15      0.119311E-06     -0.320615E-20
  0.5779      0.302865E-05      0.296627E-01     -0.189118E-14      0.121075E-06     -0.771925E-20
  0.5810      0.314189E-05      0.291776E-01      0.319760E-15      0.122880E-06      0.134665E-20
  0.5842      0.325824E-05      0.287133E-01      0.128726E-14      0.124728E-06      0.559174E-20
  0.5873      0.337775E-05      0.282689E-01     -0.650049E-15      0.126621E-06     -0.291168E-20
  0.5905      0.350046E-05      0.278438E-01      0.880712E-15      0.128560E-06      0.406642E-20
  0.5936      0.362641E-05      0.274373E-01     -0.112029E-14      0.130547E-06     -0.533035E-20
  0.5968      0.375566E-05      0.270487E-01      0.672320E-15      0.132584E-06      0.329549E-20
  0.5999      0.388823E-05      0.266775E-01     -0.167136E-14      0.134671E-06     -0.843724E-20
  0.6030      0.402418E-05      0.263230E-01      0.312575E-15      0.136812E-06      0.162458E-20
  0.6062      0.416354E-05      0.259848E-01     -0.173986E-14      0.139007E-06     -0.930744E-20
  0.6093      0.430636E-05      0.256623E-01      0.793440E-16      0.141259E-06      0.436751E-21
  0.6125      0.445267E-05      0.253551E-01     -0.150583E-14      0.143570E-06     -0.852658E-20
  0.6156      0.460252E-05      0.250628E-01     -0.106824E-15      0.145942E-06     -0.622040E-21
  0.6187      0.475594E-05      0.247849E-01     -0.155194E-14      0.148377E-06     -0.929089E-20
  0.6219      0.491296E-05      0.245210E-01     -0.986749E-15      0.150879E-06     -0.607151E-20
  0.6250      0.507363E-05      0.242708E-01     -0.230060E-14      0.153448E-06     -0.145451E-19
  0.6282      0.523797E-05      0.240340E-01     -0.825336E-16      0.156088E-06     -0.536013E-21
