
 # six columns.
 # Omega (column 1); |pulse ft|^2 (2); cross section (Mb) (3); flux (column 5)

  0.0000      0.116743E-11      0.000000E+00     -0.000000E+00      0.235944E-07     -0.847033E-21
  0.0031      0.119151E-11      0.803231E+02     -0.637594E-11      0.237328E-07     -0.188388E-20
  0.0063      0.126494E-11      0.152211E+03      0.102715E-10      0.238725E-07      0.161096E-20
  0.0094      0.139132E-11      0.208803E+03      0.433918E-11      0.240134E-07      0.499029E-21
  0.0126      0.157656E-11      0.247148E+03      0.732019E-11      0.241557E-07      0.715460E-21
  0.0157      0.182880E-11      0.267908E+03      0.163939E-10      0.242992E-07      0.148692E-20
  0.0188      0.215825E-11      0.274039E+03      0.253279E-11      0.244441E-07      0.225924E-21
  0.0220      0.257705E-11      0.269357E+03      0.477331E-11      0.245904E-07      0.435769E-21
  0.0251      0.309903E-11      0.257524E+03     -0.444274E-12      0.247380E-07     -0.426773E-22
  0.0283      0.373943E-11      0.241545E+03     -0.151415E-10      0.248870E-07     -0.156006E-20
  0.0314      0.451470E-11      0.223640E+03      0.304418E-10      0.250374E-07      0.340809E-20
  0.0345      0.544210E-11      0.205319E+03      0.831824E-11      0.251893E-07      0.102051E-20
  0.0377      0.653943E-11      0.187534E+03      0.266834E-10      0.253425E-07      0.360589E-20
  0.0408      0.782463E-11      0.170829E+03      0.683886E-11      0.254973E-07      0.102074E-20
  0.0440      0.931538E-11      0.155476E+03      0.517959E-11      0.256535E-07      0.854633E-21
  0.0471      0.110288E-10      0.141567E+03      0.716623E-11      0.258112E-07      0.130658E-20
  0.0503      0.129807E-10      0.129089E+03      0.126210E-10      0.259704E-07      0.253913E-20
  0.0534      0.151859E-10      0.117966E+03      0.173174E-11      0.261312E-07      0.383605E-21
  0.0565      0.176568E-10      0.108093E+03     -0.141695E-10      0.262935E-07     -0.344671E-20
  0.0597      0.204037E-10      0.993530E+02     -0.261662E-11      0.264574E-07     -0.696796E-21
  0.0628      0.234341E-10      0.916275E+02     -0.229517E-10      0.266229E-07     -0.666873E-20
  0.0660      0.267523E-10      0.848046E+02     -0.123559E-11      0.267900E-07     -0.390326E-21
  0.0691      0.303591E-10      0.787811E+02      0.590688E-11      0.269587E-07      0.202132E-20
  0.0722      0.342512E-10      0.734644E+02      0.314631E-11      0.271291E-07      0.116188E-20
  0.0754      0.384210E-10      0.687722E+02      0.421685E-12      0.273012E-07      0.167401E-21
  0.0785      0.428564E-10      0.646325E+02     -0.300150E-12      0.274750E-07     -0.127593E-21
  0.0817      0.475402E-10      0.609824E+02      0.363998E-11      0.276505E-07      0.165043E-20
  0.0848      0.524501E-10      0.577677E+02      0.416622E-11      0.278278E-07      0.200695E-20
  0.0879      0.575585E-10      0.549416E+02      0.131560E-11      0.280069E-07      0.670637E-21
  0.0911      0.628324E-10      0.524641E+02      0.919325E-12      0.281877E-07      0.493930E-21
  0.0942      0.682329E-10      0.503015E+02     -0.293323E-13      0.283704E-07     -0.165436E-22
  0.0974      0.737161E-10      0.484249E+02      0.818870E-12      0.285549E-07      0.482867E-21
  0.1005      0.792323E-10      0.468104E+02      0.163282E-11      0.287413E-07      0.100254E-20
  0.1036      0.847267E-10      0.454386E+02     -0.194656E-11      0.289296E-07     -0.123932E-20
  0.1068      0.901394E-10      0.442939E+02      0.201188E-11      0.291200E-07      0.132266E-20
  0.1099      0.954060E-10      0.433642E+02      0.677940E-12      0.293123E-07      0.458258E-21
  0.1131      0.100458E-09      0.426408E+02      0.121511E-11      0.295065E-07      0.840829E-21
  0.1162      0.105223E-09      0.421187E+02      0.224268E-11      0.297027E-07      0.158157E-20
  0.1194      0.109627E-09      0.417966E+02      0.722376E-12      0.299009E-07      0.516781E-21
  0.1225      0.113591E-09      0.416766E+02     -0.135314E-11      0.301012E-07     -0.977314E-21
  0.1256      0.117040E-09      0.417648E+02      0.290251E-11      0.303036E-07      0.210600E-20
  0.1288      0.119894E-09      0.420719E+02     -0.107227E-11      0.305081E-07     -0.777550E-21
  0.1319      0.122077E-09      0.426139E+02     -0.327937E-12      0.307148E-07     -0.236367E-21
  0.1351      0.123516E-09      0.434134E+02     -0.510378E-12      0.309237E-07     -0.363546E-21
  0.1382      0.124143E-09      0.445006E+02      0.795380E-12      0.311347E-07      0.556486E-21
  0.1413      0.123893E-09      0.459162E+02     -0.401642E-12      0.313481E-07     -0.274210E-21
  0.1445      0.122713E-09      0.477139E+02      0.222482E-11      0.315637E-07      0.147176E-20
  0.1476      0.120558E-09      0.499651E+02     -0.158687E-11      0.317816E-07     -0.100937E-20
  0.1508      0.117396E-09      0.527655E+02     -0.390103E-11      0.320019E-07     -0.236594E-20
  0.1539      0.113213E-09      0.562440E+02     -0.130767E-11      0.322245E-07     -0.749219E-21
  0.1570      0.108008E-09      0.605778E+02     -0.129675E-11      0.324496E-07     -0.694625E-21
  0.1602      0.101804E-09      0.660142E+02     -0.152903E-12      0.326771E-07     -0.756870E-22
  0.1633      0.946485E-10      0.729069E+02     -0.109684E-11      0.329071E-07     -0.495068E-21
  0.1665      0.866148E-10      0.817751E+02     -0.856054E-11      0.331397E-07     -0.346920E-20
  0.1696      0.778081E-10      0.934064E+02      0.704698E-11      0.333748E-07      0.251794E-20
  0.1727      0.683682E-10      0.109043E+03     -0.104367E-10      0.336125E-07     -0.321711E-20
  0.1759      0.584742E-10      0.130740E+03     -0.976820E-11      0.338529E-07     -0.252931E-20
  0.1790      0.483483E-10      0.162101E+03     -0.591664E-11      0.340960E-07     -0.124449E-20
  0.1822      0.382604E-10      0.209937E+03      0.286968E-12      0.343418E-07      0.469425E-22
  0.1853      0.285335E-10      0.288430E+03     -0.610939E-11      0.345903E-07     -0.732675E-21
  0.1884      0.195479E-10      0.431260E+03      0.754072E-11      0.348417E-07      0.609219E-21
  0.1916      0.117473E-10      0.734917E+03      0.898546E-11      0.350959E-07      0.429100E-21
  0.1947      0.564374E-11      0.156617E+04      0.299664E-10      0.353530E-07      0.676427E-21
  0.1979      0.182396E-11      0.496048E+04     -0.479445E-09      0.356131E-07     -0.344211E-20
  0.2010      0.955106E-12      0.969444E+04     -0.226762E-09      0.358761E-07     -0.839175E-21
  0.2042      0.379126E-11      0.249881E+04     -0.336376E-09      0.361422E-07     -0.486527E-20
  0.2073      0.111800E-10      0.866817E+03     -0.916370E-10      0.364114E-07     -0.384928E-20
  0.2104      0.240693E-10      0.411787E+03     -0.618872E-11      0.366836E-07     -0.551316E-21
  0.2136      0.435146E-10      0.232908E+03     -0.189039E-10      0.369591E-07     -0.299977E-20
  0.2167      0.706864E-10      0.146584E+03     -0.211160E-11      0.372378E-07     -0.536427E-21
  0.2199      0.106878E-09      0.990971E+02     -0.191165E-12      0.375198E-07     -0.723783E-22
  0.2230      0.153512E-09      0.705110E+02     -0.433446E-11      0.378052E-07     -0.232396E-20
  0.2261      0.212151E-09      0.521353E+02     -0.335152E-11      0.380939E-07     -0.244887E-20
  0.2293      0.284504E-09      0.397189E+02     -0.866600E-12      0.383861E-07     -0.837520E-21
  0.2324      0.372436E-09      0.309938E+02     -0.190582E-11      0.386817E-07     -0.237856E-20
  0.2356      0.477978E-09      0.246658E+02      0.714456E-12      0.389810E-07      0.112910E-20
  0.2387      0.603331E-09      0.199554E+02      0.120931E-11      0.392838E-07      0.238063E-20
  0.2418      0.750884E-09      0.163718E+02     -0.134431E-12      0.395903E-07     -0.325082E-21
  0.2450      0.923215E-09      0.135944E+02     -0.300849E-12      0.399006E-07     -0.883015E-21
  0.2481      0.112311E-08      0.114072E+02     -0.210703E-12      0.402147E-07     -0.742808E-21
  0.2513      0.135356E-08      0.966065E+01     -0.500768E-13      0.405326E-07     -0.210104E-21
  0.2544      0.161778E-08      0.824885E+01     -0.165595E-12      0.408544E-07     -0.820150E-21
  0.2575      0.191923E-08      0.709520E+01     -0.847281E-13      0.411803E-07     -0.491759E-21
  0.2607      0.226161E-08      0.614335E+01      0.242697E-12      0.415102E-07      0.163989E-20
  0.2638      0.264885E-08      0.535113E+01     -0.208178E-12      0.418443E-07     -0.162789E-20
  0.2670      0.308520E-08      0.468659E+01     -0.107250E-12      0.421825E-07     -0.965320E-21
  0.2701      0.357513E-08      0.412516E+01     -0.186560E-12      0.425250E-07     -0.192319E-20
  0.2733      0.412343E-08      0.364772E+01     -0.654183E-13      0.428719E-07     -0.768864E-21
  0.2764      0.473519E-08      0.323930E+01      0.109446E-12      0.432232E-07      0.146039E-20
  0.2795      0.541581E-08      0.288797E+01     -0.215184E-12      0.435790E-07     -0.324710E-20
  0.2827      0.617101E-08      0.258422E+01     -0.212110E-13      0.439394E-07     -0.360651E-21
  0.2858      0.700684E-08      0.232036E+01     -0.797991E-13      0.443044E-07     -0.152367E-20
  0.2890      0.792971E-08      0.209015E+01      0.654043E-14      0.446742E-07      0.139794E-21
  0.2921      0.894638E-08      0.188846E+01      0.312081E-13      0.450488E-07      0.744463E-21
  0.2952      0.100640E-07      0.171109E+01     -0.166811E-12      0.454284E-07     -0.442872E-20
  0.2984      0.112901E-07      0.155454E+01     -0.553506E-13      0.458129E-07     -0.163120E-20
  0.3015      0.126326E-07      0.141591E+01      0.135239E-13      0.462025E-07      0.441301E-21
  0.3047      0.140998E-07      0.129274E+01     -0.332750E-15      0.465974E-07     -0.119941E-22
  0.3078      0.157004E-07      0.118298E+01      0.250791E-13      0.469975E-07      0.996339E-21
  0.3109      0.174437E-07      0.108490E+01     -0.445553E-13      0.474029E-07     -0.194677E-20
  0.3141      0.193393E-07      0.997016E+00     -0.392746E-13      0.478139E-07     -0.188349E-20
  0.3172      0.213973E-07      0.918064E+00     -0.122971E-13      0.482304E-07     -0.646028E-21
  0.3204      0.236282E-07      0.846964E+00     -0.248398E-13      0.486526E-07     -0.142689E-20
  0.3235      0.260430E-07      0.782788E+00     -0.560427E-13      0.490806E-07     -0.351386E-20
  0.3266      0.286534E-07      0.724733E+00      0.414068E-14      0.495145E-07      0.282896E-21
  0.3298      0.314714E-07      0.672103E+00     -0.489683E-13      0.499544E-07     -0.363959E-20
  0.3329      0.345095E-07      0.624296E+00     -0.191089E-13      0.504004E-07     -0.154269E-20
  0.3361      0.377808E-07      0.580785E+00      0.128198E-13      0.508527E-07      0.112248E-20
  0.3392      0.412990E-07      0.541111E+00     -0.819977E-14      0.513113E-07     -0.777550E-21
  0.3423      0.450782E-07      0.504871E+00      0.147201E-13      0.517764E-07      0.150960E-20
  0.3455      0.491332E-07      0.471712E+00     -0.248984E-13      0.522481E-07     -0.275782E-20
  0.3486      0.534794E-07      0.441321E+00     -0.793432E-14      0.527265E-07     -0.947949E-21
  0.3518      0.581327E-07      0.413423E+00     -0.332902E-14      0.532119E-07     -0.428480E-21
  0.3549      0.631095E-07      0.387775E+00     -0.910244E-14      0.537042E-07     -0.126062E-20
  0.3581      0.684271E-07      0.364161E+00     -0.517387E-14      0.542036E-07     -0.770105E-21
  0.3612      0.741031E-07      0.342389E+00     -0.993404E-14      0.547104E-07     -0.158736E-20
  0.3643      0.801559E-07      0.322287E+00     -0.960649E-14      0.552245E-07     -0.164609E-20
  0.3675      0.866045E-07      0.303704E+00     -0.562405E-14      0.557463E-07     -0.103232E-20
  0.3706      0.934686E-07      0.286501E+00     -0.731064E-14      0.562757E-07     -0.143599E-20
  0.3738      0.100768E-06      0.270558E+00     -0.185932E-14      0.568131E-07     -0.390429E-21
  0.3769      0.108525E-06      0.255763E+00     -0.190839E-13      0.573585E-07     -0.427983E-20
  0.3800      0.116760E-06      0.242020E+00     -0.110965E-14      0.579122E-07     -0.265525E-21
  0.3832      0.125495E-06      0.229237E+00     -0.263640E-14      0.584742E-07     -0.672498E-21
  0.3863      0.134755E-06      0.217336E+00      0.191514E-14      0.590448E-07      0.520297E-21
  0.3895      0.144561E-06      0.206244E+00      0.600009E-14      0.596242E-07      0.173460E-20
  0.3926      0.154939E-06      0.195895E+00     -0.631882E-14      0.602124E-07     -0.194222E-20
  0.3957      0.165914E-06      0.186230E+00     -0.557567E-14      0.608098E-07     -0.182062E-20
  0.3989      0.177511E-06      0.177195E+00     -0.168966E-14      0.614165E-07     -0.585644E-21
  0.4020      0.189758E-06      0.168741E+00     -0.204983E-14      0.620327E-07     -0.753562E-21
  0.4052      0.202680E-06      0.160823E+00     -0.106006E-13      0.626586E-07     -0.413011E-20
  0.4083      0.216306E-06      0.153401E+00     -0.121970E-13      0.632945E-07     -0.503257E-20
  0.4114      0.230665E-06      0.146438E+00     -0.388926E-14      0.639405E-07     -0.169820E-20
  0.4146      0.245786E-06      0.139900E+00     -0.809378E-14      0.645969E-07     -0.373720E-20
  0.4177      0.261699E-06      0.133755E+00     -0.648779E-14      0.652639E-07     -0.316562E-20
  0.4209      0.278435E-06      0.127976E+00      0.295385E-15      0.659417E-07      0.152201E-21
  0.4240      0.296025E-06      0.122537E+00     -0.732624E-14      0.666306E-07     -0.398370E-20
  0.4271      0.314501E-06      0.117414E+00      0.150738E-14      0.673308E-07      0.864404E-21
  0.4303      0.333897E-06      0.112584E+00      0.351747E-15      0.680426E-07      0.212585E-21
  0.4334      0.354245E-06      0.108029E+00      0.218440E-14      0.687662E-07      0.139049E-20
  0.4366      0.375581E-06      0.103728E+00     -0.226906E-14      0.695020E-07     -0.152036E-20
  0.4397      0.397938E-06      0.996663E-01      0.170165E-14      0.702502E-07      0.119941E-20
  0.4429      0.421354E-06      0.958267E-01     -0.545846E-14      0.710111E-07     -0.404491E-20
  0.4460      0.445864E-06      0.921952E-01     -0.883891E-15      0.717849E-07     -0.688214E-21
  0.4491      0.471505E-06      0.887582E-01     -0.456061E-14      0.725721E-07     -0.372893E-20
  0.4523      0.498315E-06      0.855033E-01     -0.262383E-14      0.733729E-07     -0.225159E-20
  0.4554      0.526332E-06      0.824191E-01     -0.602839E-14      0.741876E-07     -0.542630E-20
  0.4586      0.555596E-06      0.794950E-01     -0.309602E-14      0.750166E-07     -0.292160E-20
  0.4617      0.586146E-06      0.767210E-01     -0.136528E-14      0.758602E-07     -0.134996E-20
  0.4648      0.618022E-06      0.740880E-01     -0.423053E-14      0.767188E-07     -0.438075E-20
  0.4680      0.651266E-06      0.715875E-01     -0.147748E-14      0.775927E-07     -0.160142E-20
  0.4711      0.685919E-06      0.692117E-01      0.295144E-14      0.784824E-07      0.334677E-20
  0.4743      0.722022E-06      0.669531E-01     -0.304160E-14      0.793881E-07     -0.360651E-20
  0.4774      0.759619E-06      0.648050E-01     -0.226942E-14      0.803105E-07     -0.281241E-20
  0.4805      0.798753E-06      0.627609E-01     -0.187596E-14      0.812497E-07     -0.242860E-20
  0.4837      0.839468E-06      0.608150E-01     -0.801636E-15      0.822063E-07     -0.108361E-20
  0.4868      0.881808E-06      0.589616E-01     -0.254118E-14      0.831808E-07     -0.358500E-20
  0.4900      0.925817E-06      0.571957E-01      0.331620E-15      0.841735E-07      0.488037E-21
  0.4931      0.971542E-06      0.555124E-01     -0.373129E-14      0.851850E-07     -0.572574E-20
  0.4962      0.101903E-05      0.539072E-01     -0.200778E-14      0.862157E-07     -0.321112E-20
  0.4994      0.106832E-05      0.523758E-01     -0.178924E-14      0.872662E-07     -0.298116E-20
  0.5025      0.111947E-05      0.509144E-01     -0.370155E-14      0.883370E-07     -0.642223E-20
  0.5057      0.117251E-05      0.495192E-01     -0.219307E-14      0.894286E-07     -0.396054E-20
  0.5088      0.122751E-05      0.481868E-01     -0.305432E-14      0.905417E-07     -0.573898E-20
  0.5120      0.128450E-05      0.469140E-01     -0.227564E-14      0.916767E-07     -0.444692E-20
  0.5151      0.134353E-05      0.456976E-01     -0.750838E-15      0.928342E-07     -0.152532E-20
  0.5182      0.140466E-05      0.445349E-01     -0.365817E-14      0.940150E-07     -0.772256E-20
  0.5214      0.146792E-05      0.434231E-01      0.100944E-14      0.952197E-07      0.221354E-20
  0.5245      0.153338E-05      0.423598E-01     -0.233888E-14      0.964489E-07     -0.532539E-20
  0.5277      0.160107E-05      0.413425E-01     -0.132376E-14      0.977033E-07     -0.312840E-20
  0.5308      0.167105E-05      0.403692E-01     -0.270693E-14      0.989836E-07     -0.663730E-20
  0.5339      0.174336E-05      0.394376E-01     -0.162052E-14      0.100291E-06     -0.412101E-20
  0.5371      0.181807E-05      0.385458E-01      0.424182E-15      0.101625E-06      0.111835E-20
  0.5402      0.189520E-05      0.376919E-01     -0.911231E-15      0.102988E-06     -0.248981E-20
  0.5434      0.197482E-05      0.368743E-01      0.770287E-15      0.104380E-06      0.218045E-20
  0.5465      0.205698E-05      0.360912E-01     -0.212134E-14      0.105802E-06     -0.621874E-20
  0.5496      0.214172E-05      0.353412E-01      0.204422E-15      0.107255E-06      0.620385E-21
  0.5528      0.222909E-05      0.346227E-01     -0.139431E-14      0.108739E-06     -0.437909E-20
  0.5559      0.231914E-05      0.339345E-01     -0.628321E-15      0.110257E-06     -0.204148E-20
  0.5591      0.241192E-05      0.332751E-01     -0.223134E-14      0.111808E-06     -0.749757E-20
  0.5622      0.250748E-05      0.326434E-01     -0.118967E-14      0.113394E-06     -0.413259E-20
  0.5653      0.260587E-05      0.320383E-01     -0.274470E-14      0.115016E-06     -0.985338E-20
  0.5685      0.270713E-05      0.314585E-01     -0.352384E-15      0.116676E-06     -0.130695E-20
  0.5716      0.281132E-05      0.309032E-01     -0.223550E-14      0.118373E-06     -0.856297E-20
  0.5748      0.291847E-05      0.303714E-01     -0.120227E-14      0.120110E-06     -0.475463E-20
  0.5779      0.302865E-05      0.298621E-01     -0.263452E-14      0.121888E-06     -0.107533E-19
  0.5810      0.314189E-05      0.293744E-01     -0.173079E-14      0.123709E-06     -0.728912E-20
  0.5842      0.325824E-05      0.289076E-01      0.628395E-15      0.125572E-06      0.272970E-20
  0.5873      0.337775E-05      0.284610E-01     -0.104229E-14      0.127481E-06     -0.466861E-20
  0.5905      0.350046E-05      0.280336E-01      0.146188E-15      0.129437E-06      0.674979E-21
  0.5936      0.362641E-05      0.276250E-01     -0.157438E-14      0.131441E-06     -0.749095E-20
  0.5968      0.375566E-05      0.272345E-01      0.654770E-16      0.133494E-06      0.320946E-21
  0.5999      0.388823E-05      0.268614E-01     -0.136003E-14      0.135599E-06     -0.686560E-20
  0.6030      0.402418E-05      0.265052E-01     -0.700907E-15      0.137758E-06     -0.364290E-20
  0.6062      0.416354E-05      0.261653E-01     -0.201014E-14      0.139972E-06     -0.107533E-19
  0.6093      0.430636E-05      0.258413E-01     -0.257868E-15      0.142244E-06     -0.141944E-20
  0.6125      0.445267E-05      0.255326E-01     -0.198674E-14      0.144575E-06     -0.112497E-19
  0.6156      0.460252E-05      0.252389E-01     -0.682421E-15      0.146968E-06     -0.397378E-20
  0.6187      0.475594E-05      0.249598E-01     -0.197309E-14      0.149425E-06     -0.118121E-19
  0.6219      0.491296E-05      0.246947E-01     -0.703361E-15      0.151948E-06     -0.432781E-20
  0.6250      0.507363E-05      0.244435E-01     -0.244242E-14      0.154540E-06     -0.154418E-19
  0.6282      0.523797E-05      0.242058E-01     -0.818204E-15      0.157204E-06     -0.531381E-20
