
 # six columns.
 # Omega (column 1); |pulse ft|^2 (2); cross section (Mb) (3); flux (column 5)

  0.0000      0.116743E-11      0.000000E+00      0.000000E+00      0.235944E-07      0.847033E-21
  0.0031      0.119151E-11      0.803231E+02      0.519584E-11      0.237328E-07      0.153520E-20
  0.0063      0.126494E-11      0.152211E+03      0.135791E-10      0.238725E-07      0.212973E-20
  0.0094      0.139132E-11      0.208803E+03      0.928624E-12      0.240134E-07      0.106797E-21
  0.0126      0.157656E-11      0.247148E+03     -0.124965E-12      0.241557E-07     -0.122138E-22
  0.0157      0.182880E-11      0.267908E+03      0.324558E-10      0.242992E-07      0.294374E-20
  0.0188      0.215825E-11      0.274039E+03      0.943190E-11      0.244441E-07      0.841320E-21
  0.0220      0.257705E-11      0.269357E+03      0.198374E-11      0.245904E-07      0.181101E-21
  0.0251      0.309903E-11      0.257524E+03      0.116711E-10      0.247380E-07      0.112114E-20
  0.0283      0.373943E-11      0.241545E+03     -0.262499E-10      0.248870E-07     -0.270460E-20
  0.0314      0.451470E-11      0.223640E+03      0.232006E-10      0.250374E-07      0.259740E-20
  0.0345      0.544210E-11      0.205319E+03      0.176796E-10      0.251893E-07      0.216900E-20
  0.0377      0.653943E-11      0.187534E+03      0.349645E-10      0.253425E-07      0.472496E-20
  0.0408      0.782463E-11      0.170829E+03      0.957836E-11      0.254973E-07      0.142963E-20
  0.0440      0.931538E-11      0.155476E+03      0.256959E-11      0.256535E-07      0.423982E-21
  0.0471      0.110288E-10      0.141567E+03     -0.336832E-11      0.258112E-07     -0.614130E-21
  0.0503      0.129807E-10      0.129089E+03      0.524947E-11      0.259704E-07      0.105610E-20
  0.0534      0.151859E-10      0.117966E+03      0.176320E-10      0.261312E-07      0.390574E-20
  0.0565      0.176568E-10      0.108093E+03     -0.289855E-11      0.262935E-07     -0.705068E-21
  0.0597      0.204037E-10      0.993530E+02      0.443804E-12      0.264574E-07      0.118183E-21
  0.0628      0.234341E-10      0.916275E+02     -0.177545E-10      0.266229E-07     -0.515866E-20
  0.0660      0.267523E-10      0.848046E+02      0.488901E-11      0.267900E-07      0.154445E-20
  0.0691      0.303591E-10      0.787811E+02      0.102779E-10      0.269587E-07      0.351707E-20
  0.0722      0.342512E-10      0.734644E+02      0.543136E-11      0.271291E-07      0.200571E-20
  0.0754      0.384210E-10      0.687722E+02     -0.125307E-11      0.273012E-07     -0.497446E-21
  0.0785      0.428564E-10      0.646325E+02     -0.165885E-11      0.274750E-07     -0.705171E-21
  0.0817      0.475402E-10      0.609824E+02      0.664281E-12      0.276505E-07      0.301197E-21
  0.0848      0.524501E-10      0.577677E+02      0.618322E-11      0.278278E-07      0.297857E-20
  0.0879      0.575585E-10      0.549416E+02      0.404254E-11      0.280069E-07      0.206071E-20
  0.0911      0.628324E-10      0.524641E+02      0.171433E-11      0.281877E-07      0.921066E-21
  0.0942      0.682329E-10      0.503015E+02      0.218746E-11      0.283704E-07      0.123374E-20
  0.0974      0.737161E-10      0.484249E+02      0.599862E-12      0.285549E-07      0.353723E-21
  0.1005      0.792323E-10      0.468104E+02      0.906844E-12      0.287413E-07      0.556796E-21
  0.1036      0.847267E-10      0.454386E+02      0.165651E-12      0.289296E-07      0.105466E-21
  0.1068      0.901394E-10      0.442939E+02      0.673410E-11      0.291200E-07      0.442717E-20
  0.1099      0.954060E-10      0.433642E+02      0.310014E-11      0.293123E-07      0.209556E-20
  0.1131      0.100458E-09      0.426408E+02      0.118746E-11      0.295065E-07      0.821701E-21
  0.1162      0.105223E-09      0.421187E+02     -0.747023E-12      0.297027E-07     -0.526811E-21
  0.1194      0.109627E-09      0.417966E+02      0.232539E-11      0.299009E-07      0.166356E-20
  0.1225      0.113591E-09      0.416766E+02     -0.614295E-12      0.301012E-07     -0.443679E-21
  0.1256      0.117040E-09      0.417648E+02      0.460315E-11      0.303036E-07      0.333995E-20
  0.1288      0.119894E-09      0.420719E+02      0.629674E-12      0.305081E-07      0.456604E-21
  0.1319      0.122077E-09      0.426139E+02      0.239426E-11      0.307148E-07      0.172571E-20
  0.1351      0.123516E-09      0.434134E+02      0.101756E-11      0.309237E-07      0.724817E-21
  0.1382      0.124143E-09      0.445006E+02      0.310733E-11      0.311347E-07      0.217404E-20
  0.1413      0.123893E-09      0.459162E+02      0.218116E-11      0.313481E-07      0.148913E-20
  0.1445      0.122713E-09      0.477139E+02      0.142955E-11      0.315637E-07      0.945674E-21
  0.1476      0.120558E-09      0.499651E+02     -0.336653E-11      0.317816E-07     -0.214136E-20
  0.1508      0.117396E-09      0.527655E+02      0.112452E-11      0.320019E-07      0.682010E-21
  0.1539      0.113213E-09      0.562440E+02     -0.162782E-11      0.322245E-07     -0.932646E-21
  0.1570      0.108008E-09      0.605778E+02     -0.378330E-12      0.324496E-07     -0.202659E-21
  0.1602      0.101804E-09      0.660142E+02     -0.296197E-11      0.326771E-07     -0.146618E-20
  0.1633      0.946485E-10      0.729069E+02     -0.586310E-11      0.329071E-07     -0.264636E-20
  0.1665      0.866148E-10      0.817751E+02      0.304130E-12      0.331397E-07      0.123250E-21
  0.1696      0.778081E-10      0.934064E+02      0.130522E-10      0.333748E-07      0.466364E-20
  0.1727      0.683682E-10      0.109043E+03     -0.648864E-11      0.336125E-07     -0.200012E-20
  0.1759      0.584742E-10      0.130740E+03     -0.123334E-10      0.338529E-07     -0.319354E-20
  0.1790      0.483483E-10      0.162101E+03     -0.127024E-11      0.340960E-07     -0.267179E-21
  0.1822      0.382604E-10      0.209937E+03      0.839791E-11      0.343418E-07      0.137374E-20
  0.1853      0.285335E-10      0.288430E+03     -0.116273E-10      0.345903E-07     -0.139442E-20
  0.1884      0.195479E-10      0.431260E+03      0.989048E-11      0.348417E-07      0.799056E-21
  0.1916      0.117473E-10      0.734917E+03     -0.178107E-10      0.350959E-07     -0.850548E-21
  0.1947      0.564374E-11      0.156617E+04     -0.117081E-10      0.353530E-07     -0.264284E-21
  0.1979      0.182396E-11      0.496048E+04      0.972428E-10      0.356131E-07      0.698140E-21
  0.2010      0.955106E-12      0.969444E+04     -0.389820E-09      0.358761E-07     -0.144260E-20
  0.2042      0.379126E-11      0.249881E+04     -0.257812E-09      0.361422E-07     -0.372893E-20
  0.2073      0.111800E-10      0.866817E+03     -0.439231E-10      0.364114E-07     -0.184503E-20
  0.2104      0.240693E-10      0.411787E+03     -0.517661E-11      0.366836E-07     -0.461153E-21
  0.2136      0.435146E-10      0.232908E+03     -0.142307E-10      0.369591E-07     -0.225820E-20
  0.2167      0.706864E-10      0.146584E+03      0.640807E-11      0.372378E-07      0.162789E-20
  0.2199      0.106878E-09      0.990971E+02     -0.162873E-11      0.375198E-07     -0.616663E-21
  0.2230      0.153512E-09      0.705110E+02     -0.606315E-12      0.378052E-07     -0.325082E-21
  0.2261      0.212151E-09      0.521353E+02     -0.224605E-11      0.380939E-07     -0.164113E-20
  0.2293      0.284504E-09      0.397189E+02     -0.987710E-12      0.383861E-07     -0.954566E-21
  0.2324      0.372436E-09      0.309938E+02      0.502387E-12      0.386817E-07      0.627003E-21
  0.2356      0.477978E-09      0.246658E+02      0.164299E-11      0.389810E-07      0.259652E-20
  0.2387      0.603331E-09      0.199554E+02      0.175850E-11      0.392838E-07      0.346175E-20
  0.2418      0.750884E-09      0.163718E+02     -0.975737E-12      0.395903E-07     -0.235953E-20
  0.2450      0.923215E-09      0.135944E+02     -0.124426E-12      0.399006E-07     -0.365200E-21
  0.2481      0.112311E-08      0.114072E+02     -0.740512E-12      0.402147E-07     -0.261058E-20
  0.2513      0.135356E-08      0.966065E+01      0.344524E-12      0.405326E-07      0.144550E-20
  0.2544      0.161778E-08      0.824885E+01     -0.962839E-13      0.408544E-07     -0.476870E-21
  0.2575      0.191923E-08      0.709520E+01     -0.265942E-12      0.411803E-07     -0.154352E-20
  0.2607      0.226161E-08      0.614335E+01      0.198687E-12      0.415102E-07      0.134251E-20
  0.2638      0.264885E-08      0.535113E+01     -0.301478E-14      0.418443E-07     -0.235746E-22
  0.2670      0.308520E-08      0.468659E+01     -0.184264E-13      0.421825E-07     -0.165850E-21
  0.2701      0.357513E-08      0.412516E+01      0.319359E-13      0.425250E-07      0.329218E-21
  0.2733      0.412343E-08      0.364772E+01     -0.950835E-13      0.428719E-07     -0.111752E-20
  0.2764      0.473519E-08      0.323930E+01      0.818601E-13      0.432232E-07      0.109229E-20
  0.2795      0.541581E-08      0.288797E+01     -0.119857E-12      0.435790E-07     -0.180863E-20
  0.2827      0.617101E-08      0.258422E+01      0.785198E-13      0.439394E-07      0.133507E-20
  0.2858      0.700684E-08      0.232036E+01     -0.180414E-12      0.443044E-07     -0.344479E-20
  0.2890      0.792971E-08      0.209015E+01      0.108265E-12      0.446742E-07      0.231404E-20
  0.2921      0.894638E-08      0.188846E+01      0.770320E-13      0.450488E-07      0.183758E-20
  0.2952      0.100640E-07      0.171109E+01     -0.148631E-12      0.454284E-07     -0.394607E-20
  0.2984      0.112901E-07      0.155454E+01      0.326434E-13      0.458129E-07      0.962011E-21
  0.3015      0.126326E-07      0.141591E+01     -0.278844E-15      0.462025E-07     -0.909899E-23
  0.3047      0.140998E-07      0.129274E+01      0.286279E-13      0.465974E-07      0.103191E-20
  0.3078      0.157004E-07      0.118298E+01     -0.967141E-14      0.469975E-07     -0.384225E-21
  0.3109      0.174437E-07      0.108490E+01     -0.141892E-13      0.474029E-07     -0.619972E-21
  0.3141      0.193393E-07      0.997016E+00     -0.294430E-13      0.478139E-07     -0.141200E-20
  0.3172      0.213973E-07      0.918064E+00     -0.197447E-13      0.482304E-07     -0.103728E-20
  0.3204      0.236282E-07      0.846964E+00     -0.232846E-13      0.486526E-07     -0.133755E-20
  0.3235      0.260430E-07      0.782788E+00     -0.347233E-13      0.490806E-07     -0.217714E-20
  0.3266      0.286534E-07      0.724733E+00      0.966159E-14      0.495145E-07      0.660090E-21
  0.3298      0.314714E-07      0.672103E+00     -0.782380E-14      0.499544E-07     -0.581508E-21
  0.3329      0.345095E-07      0.624296E+00     -0.167830E-13      0.504004E-07     -0.135492E-20
  0.3361      0.377808E-07      0.580785E+00      0.387995E-13      0.508527E-07      0.339723E-20
  0.3392      0.412990E-07      0.541111E+00      0.186065E-13      0.513113E-07      0.176438E-20
  0.3423      0.450782E-07      0.504871E+00     -0.158090E-13      0.517764E-07     -0.162127E-20
  0.3455      0.491332E-07      0.471712E+00     -0.355479E-13      0.522481E-07     -0.393738E-20
  0.3486      0.534794E-07      0.441321E+00     -0.118599E-13      0.527265E-07     -0.141696E-20
  0.3518      0.581327E-07      0.413423E+00      0.967215E-14      0.532119E-07      0.124491E-20
  0.3549      0.631095E-07      0.387775E+00     -0.221588E-14      0.537042E-07     -0.306884E-21
  0.3581      0.684271E-07      0.364161E+00      0.127152E-13      0.542036E-07      0.189259E-20
  0.3612      0.741031E-07      0.342389E+00     -0.211260E-13      0.547104E-07     -0.337572E-20
  0.3643      0.801559E-07      0.322287E+00      0.125367E-13      0.552245E-07      0.214819E-20
  0.3675      0.866045E-07      0.303704E+00     -0.871547E-14      0.557463E-07     -0.159977E-20
  0.3706      0.934686E-07      0.286501E+00     -0.204917E-13      0.562757E-07     -0.402506E-20
  0.3738      0.100768E-06      0.270558E+00     -0.110377E-13      0.568131E-07     -0.231776E-20
  0.3769      0.108525E-06      0.255763E+00     -0.184864E-13      0.573585E-07     -0.414583E-20
  0.3800      0.116760E-06      0.242020E+00      0.268943E-14      0.579122E-07      0.643547E-21
  0.3832      0.125495E-06      0.229237E+00      0.139441E-15      0.584742E-07      0.355688E-22
  0.3863      0.134755E-06      0.217336E+00     -0.118136E-14      0.590448E-07     -0.320946E-21
  0.3895      0.144561E-06      0.206244E+00      0.521611E-14      0.596242E-07      0.150795E-20
  0.3926      0.154939E-06      0.195895E+00     -0.277727E-14      0.602124E-07     -0.853650E-21
  0.3957      0.165914E-06      0.186230E+00     -0.765039E-14      0.608098E-07     -0.249809E-20
  0.3989      0.177511E-06      0.177195E+00      0.208344E-14      0.614165E-07      0.722129E-21
  0.4020      0.189758E-06      0.168741E+00     -0.346739E-14      0.620327E-07     -0.127469E-20
  0.4052      0.202680E-06      0.160823E+00     -0.259866E-14      0.626586E-07     -0.101247E-20
  0.4083      0.216306E-06      0.153401E+00     -0.122411E-13      0.632945E-07     -0.505076E-20
  0.4114      0.230665E-06      0.146438E+00      0.439507E-14      0.639405E-07      0.191906E-20
  0.4146      0.245786E-06      0.139900E+00     -0.332852E-14      0.645969E-07     -0.153690E-20
  0.4177      0.261699E-06      0.133755E+00     -0.324305E-14      0.652639E-07     -0.158240E-20
  0.4209      0.278435E-06      0.127976E+00     -0.125217E-14      0.659417E-07     -0.645201E-21
  0.4240      0.296025E-06      0.122537E+00     -0.575329E-14      0.666306E-07     -0.312840E-20
  0.4271      0.314501E-06      0.117414E+00      0.202666E-14      0.673308E-07      0.116219E-20
  0.4303      0.333897E-06      0.112584E+00      0.298506E-14      0.680426E-07      0.180408E-20
  0.4334      0.354245E-06      0.108029E+00      0.346437E-14      0.687662E-07      0.220526E-20
  0.4366      0.375581E-06      0.103728E+00     -0.151106E-14      0.695020E-07     -0.101247E-20
  0.4397      0.397938E-06      0.996663E-01     -0.511667E-15      0.702502E-07     -0.360651E-21
  0.4429      0.421354E-06      0.958267E-01     -0.284420E-14      0.710111E-07     -0.210766E-20
  0.4460      0.445864E-06      0.921952E-01      0.185490E-14      0.717849E-07      0.144426E-20
  0.4491      0.471505E-06      0.887582E-01     -0.133540E-15      0.725721E-07     -0.109188E-21
  0.4523      0.498315E-06      0.855033E-01     -0.427987E-15      0.733729E-07     -0.367268E-21
  0.4554      0.526332E-06      0.824191E-01     -0.256574E-14      0.741876E-07     -0.230949E-20
  0.4586      0.555596E-06      0.794950E-01     -0.358865E-14      0.750166E-07     -0.338648E-20
  0.4617      0.586146E-06      0.767210E-01     -0.291962E-14      0.758602E-07     -0.288686E-20
  0.4648      0.618022E-06      0.740880E-01     -0.479929E-14      0.767188E-07     -0.496970E-20
  0.4680      0.651266E-06      0.715875E-01     -0.266191E-14      0.775927E-07     -0.288521E-20
  0.4711      0.685919E-06      0.692117E-01      0.122843E-14      0.784824E-07      0.139297E-20
  0.4743      0.722022E-06      0.669531E-01     -0.139523E-14      0.793881E-07     -0.165436E-20
  0.4774      0.759619E-06      0.648050E-01      0.930464E-15      0.803105E-07      0.115309E-20
  0.4805      0.798753E-06      0.627609E-01     -0.706680E-15      0.812497E-07     -0.914862E-21
  0.4837      0.839468E-06      0.608150E-01      0.108190E-14      0.822063E-07      0.146246E-20
  0.4868      0.881808E-06      0.589616E-01     -0.544120E-15      0.831808E-07     -0.767624E-21
  0.4900      0.925817E-06      0.571957E-01     -0.116348E-14      0.841735E-07     -0.171226E-20
  0.4931      0.971542E-06      0.555124E-01     -0.162685E-14      0.851850E-07     -0.249643E-20
  0.4962      0.101903E-05      0.539072E-01     -0.449966E-15      0.862157E-07     -0.719647E-21
  0.4994      0.106832E-05      0.523758E-01     -0.167407E-14      0.872662E-07     -0.278925E-20
  0.5025      0.111947E-05      0.509144E-01     -0.191752E-14      0.883370E-07     -0.332692E-20
  0.5057      0.117251E-05      0.495192E-01     -0.278851E-14      0.894286E-07     -0.503588E-20
  0.5088      0.122751E-05      0.481868E-01     -0.258591E-14      0.905417E-07     -0.485886E-20
  0.5120      0.128450E-05      0.469140E-01     -0.273110E-14      0.916767E-07     -0.533697E-20
  0.5151      0.134353E-05      0.456976E-01      0.149842E-15      0.928342E-07      0.304402E-21
  0.5182      0.140466E-05      0.445349E-01     -0.407273E-14      0.940150E-07     -0.859772E-20
  0.5214      0.146792E-05      0.434231E-01     -0.139571E-15      0.952197E-07     -0.306057E-21
  0.5245      0.153338E-05      0.423598E-01     -0.186079E-14      0.964489E-07     -0.423682E-20
  0.5277      0.160107E-05      0.413425E-01     -0.129086E-14      0.977033E-07     -0.305064E-20
  0.5308      0.167105E-05      0.403692E-01     -0.340931E-14      0.989836E-07     -0.835949E-20
  0.5339      0.174336E-05      0.394376E-01     -0.255015E-15      0.100291E-06     -0.648510E-21
  0.5371      0.181807E-05      0.385458E-01      0.100586E-14      0.101625E-06      0.265194E-20
  0.5402      0.189520E-05      0.376919E-01     -0.637559E-15      0.102988E-06     -0.174204E-20
  0.5434      0.197482E-05      0.368743E-01      0.537681E-16      0.104380E-06      0.152201E-21
  0.5465      0.205698E-05      0.360912E-01     -0.898989E-15      0.105802E-06     -0.263540E-20
  0.5496      0.214172E-05      0.353412E-01      0.170351E-14      0.107255E-06      0.516988E-20
  0.5528      0.222909E-05      0.346227E-01     -0.210279E-14      0.108739E-06     -0.660421E-20
  0.5559      0.231914E-05      0.339345E-01      0.101835E-15      0.110257E-06      0.330872E-21
  0.5591      0.241192E-05      0.332751E-01     -0.182466E-14      0.111808E-06     -0.613106E-20
  0.5622      0.250748E-05      0.326434E-01     -0.218123E-15      0.113394E-06     -0.757697E-21
  0.5653      0.260587E-05      0.320383E-01     -0.260553E-14      0.115016E-06     -0.935376E-20
  0.5685      0.270713E-05      0.314585E-01      0.487984E-15      0.116676E-06      0.180987E-20
  0.5716      0.281132E-05      0.309032E-01     -0.249119E-14      0.118373E-06     -0.954236E-20
  0.5748      0.291847E-05      0.303714E-01     -0.666811E-15      0.120110E-06     -0.263705E-20
  0.5779      0.302865E-05      0.298621E-01     -0.272855E-14      0.121888E-06     -0.111372E-19
  0.5810      0.314189E-05      0.293744E-01     -0.965565E-15      0.123709E-06     -0.406642E-20
  0.5842      0.325824E-05      0.289076E-01      0.116234E-14      0.125572E-06      0.504911E-20
  0.5873      0.337775E-05      0.284610E-01     -0.127572E-14      0.127481E-06     -0.571416E-20
  0.5905      0.350046E-05      0.280336E-01      0.114657E-14      0.129437E-06      0.529396E-20
  0.5936      0.362641E-05      0.276250E-01     -0.122182E-14      0.131441E-06     -0.581343E-20
  0.5968      0.375566E-05      0.272345E-01      0.745223E-15      0.133494E-06      0.365283E-20
  0.5999      0.388823E-05      0.268614E-01     -0.108344E-14      0.135599E-06     -0.546932E-20
  0.6030      0.402418E-05      0.265052E-01     -0.442444E-15      0.137758E-06     -0.229956E-20
  0.6062      0.416354E-05      0.261653E-01     -0.169780E-14      0.139972E-06     -0.908244E-20
  0.6093      0.430636E-05      0.258413E-01     -0.781419E-16      0.142244E-06     -0.430134E-21
  0.6125      0.445267E-05      0.255326E-01     -0.185293E-14      0.144575E-06     -0.104920E-19
  0.6156      0.460252E-05      0.252389E-01     -0.642078E-15      0.146968E-06     -0.373886E-20
  0.6187      0.475594E-05      0.249598E-01     -0.191451E-14      0.149425E-06     -0.114614E-19
  0.6219      0.491296E-05      0.246947E-01     -0.948570E-15      0.151948E-06     -0.583659E-20
  0.6250      0.507363E-05      0.244435E-01     -0.233200E-14      0.154540E-06     -0.147437E-19
  0.6282      0.523797E-05      0.242058E-01     -0.562451E-15      0.157204E-06     -0.365283E-20
