
 # six columns.
 # Omega (column 1); |pulse ft|^2 (2); cross section (Mb) (3); flux (column 5)

  0.0000      0.116743E-11      0.000000E+00     -0.000000E+00      0.235836E-07     -0.423516E-21
  0.0031      0.119151E-11      0.802863E+02     -0.146916E-11      0.237220E-07     -0.434089E-21
  0.0063      0.126494E-11      0.152141E+03      0.224318E-11      0.238616E-07      0.351817E-21
  0.0094      0.139132E-11      0.208707E+03      0.453040E-11      0.240025E-07      0.521020E-21
  0.0126      0.157656E-11      0.247035E+03      0.245079E-10      0.241447E-07      0.239535E-20
  0.0157      0.182880E-11      0.267786E+03      0.334367E-10      0.242882E-07      0.303270E-20
  0.0188      0.215825E-11      0.273915E+03      0.170919E-10      0.244330E-07      0.152458E-20
  0.0220      0.257705E-11      0.269235E+03     -0.125658E-10      0.245792E-07     -0.114717E-20
  0.0251      0.309903E-11      0.257408E+03      0.129171E-10      0.247268E-07      0.124082E-20
  0.0283      0.373943E-11      0.241436E+03     -0.225564E-10      0.248758E-07     -0.232404E-20
  0.0314      0.451470E-11      0.223539E+03      0.270445E-10      0.250261E-07      0.302774E-20
  0.0345      0.544210E-11      0.205227E+03     -0.399930E-11      0.251779E-07     -0.490647E-21
  0.0377      0.653943E-11      0.187450E+03      0.310876E-10      0.253311E-07      0.420104E-20
  0.0408      0.782463E-11      0.170753E+03      0.452368E-12      0.254858E-07      0.675186E-22
  0.0440      0.931538E-11      0.155406E+03      0.161112E-11      0.256420E-07      0.265835E-21
  0.0471      0.110288E-10      0.141504E+03     -0.855450E-11      0.257996E-07     -0.155970E-20
  0.0503      0.129807E-10      0.129031E+03      0.263347E-11      0.259588E-07      0.529809E-21
  0.0534      0.151859E-10      0.117913E+03      0.394449E-11      0.261195E-07      0.873761E-21
  0.0565      0.176568E-10      0.108045E+03     -0.132688E-10      0.262818E-07     -0.322761E-20
  0.0597      0.204037E-10      0.993089E+02      0.413324E-12      0.264456E-07      0.110067E-21
  0.0628      0.234341E-10      0.915869E+02     -0.240292E-10      0.266111E-07     -0.698182E-20
  0.0660      0.267523E-10      0.847670E+02      0.398449E-11      0.267781E-07      0.125871E-20
  0.0691      0.303591E-10      0.787463E+02      0.540484E-11      0.269468E-07      0.184952E-20
  0.0722      0.342512E-10      0.734320E+02      0.482881E-11      0.271172E-07      0.178319E-20
  0.0754      0.384210E-10      0.687420E+02      0.763409E-12      0.272892E-07      0.303058E-21
  0.0785      0.428564E-10      0.646041E+02     -0.169655E-11      0.274629E-07     -0.721198E-21
  0.0817      0.475402E-10      0.609557E+02     -0.686857E-12      0.276384E-07     -0.311434E-21
  0.0848      0.524501E-10      0.577425E+02      0.794265E-11      0.278156E-07      0.382612E-20
  0.0879      0.575585E-10      0.549176E+02      0.335067E-11      0.279946E-07      0.170802E-20
  0.0911      0.628324E-10      0.524413E+02      0.153593E-11      0.281754E-07      0.825216E-21
  0.0942      0.682329E-10      0.502796E+02      0.114433E-11      0.283580E-07      0.645408E-21
  0.0974      0.737161E-10      0.484039E+02     -0.174137E-11      0.285425E-07     -0.102684E-20
  0.1005      0.792323E-10      0.467902E+02      0.845209E-12      0.287289E-07      0.518952E-21
  0.1036      0.847267E-10      0.454190E+02      0.144522E-11      0.289171E-07      0.920135E-21
  0.1068      0.901394E-10      0.442748E+02      0.183793E-11      0.291074E-07      0.120830E-20
  0.1099      0.954060E-10      0.433455E+02      0.479086E-12      0.292997E-07      0.323841E-21
  0.1131      0.100458E-09      0.426225E+02     -0.160406E-11      0.294939E-07     -0.110997E-20
  0.1162      0.105223E-09      0.421007E+02      0.114553E-11      0.296900E-07      0.807845E-21
  0.1194      0.109627E-09      0.417788E+02      0.152251E-11      0.298882E-07      0.108919E-20
  0.1225      0.113591E-09      0.416588E+02      0.756595E-12      0.300884E-07      0.546456E-21
  0.1256      0.117040E-09      0.417470E+02      0.275973E-11      0.302907E-07      0.200240E-20
  0.1288      0.119894E-09      0.420540E+02     -0.193665E-11      0.304952E-07     -0.140435E-20
  0.1319      0.122077E-09      0.425959E+02      0.405718E-11      0.307018E-07      0.292429E-20
  0.1351      0.123516E-09      0.433950E+02     -0.138946E-11      0.309106E-07     -0.989722E-21
  0.1382      0.124143E-09      0.444818E+02      0.275738E-11      0.311216E-07      0.192919E-20
  0.1413      0.123893E-09      0.458969E+02     -0.196156E-11      0.313349E-07     -0.133921E-20
  0.1445      0.122713E-09      0.476939E+02      0.160336E-11      0.315504E-07      0.106065E-20
  0.1476      0.120558E-09      0.499442E+02     -0.113009E-11      0.317683E-07     -0.718820E-21
  0.1508      0.117396E-09      0.527435E+02     -0.419733E-12      0.319885E-07     -0.254565E-21
  0.1539      0.113213E-09      0.562206E+02      0.743529E-13      0.322111E-07      0.425998E-22
  0.1570      0.108008E-09      0.605526E+02     -0.329302E-12      0.324361E-07     -0.176396E-21
  0.1602      0.101804E-09      0.659869E+02     -0.254295E-11      0.326636E-07     -0.125876E-20
  0.1633      0.946485E-10      0.728768E+02      0.193298E-11      0.328935E-07      0.872469E-21
  0.1665      0.866148E-10      0.817414E+02     -0.178141E-11      0.331260E-07     -0.721922E-21
  0.1696      0.778081E-10      0.933680E+02      0.101613E-10      0.333611E-07      0.363070E-20
  0.1727      0.683682E-10      0.108998E+03     -0.111284E-10      0.335988E-07     -0.343032E-20
  0.1759      0.584742E-10      0.130686E+03     -0.107561E-10      0.338391E-07     -0.278512E-20
  0.1790      0.483483E-10      0.162035E+03     -0.130465E-11      0.340821E-07     -0.274417E-21
  0.1822      0.382604E-10      0.209852E+03     -0.251571E-12      0.343278E-07     -0.411522E-22
  0.1853      0.285335E-10      0.288313E+03     -0.170608E-10      0.345763E-07     -0.204603E-20
  0.1884      0.195479E-10      0.431085E+03     -0.142137E-10      0.348276E-07     -0.114833E-20
  0.1916      0.117473E-10      0.734620E+03     -0.570826E-10      0.350817E-07     -0.272597E-20
  0.1947      0.564374E-11      0.156554E+04      0.387887E-10      0.353388E-07      0.875571E-21
  0.1979      0.182396E-11      0.495849E+04     -0.286227E-09      0.355988E-07     -0.205492E-20
  0.2010      0.955106E-12      0.969056E+04     -0.143724E-09      0.358617E-07     -0.531877E-21
  0.2042      0.379126E-11      0.249781E+04     -0.316760E-09      0.361278E-07     -0.458155E-20
  0.2073      0.111800E-10      0.866473E+03     -0.471526E-10      0.363969E-07     -0.198068E-20
  0.2104      0.240693E-10      0.411624E+03     -0.164212E-10      0.366691E-07     -0.146287E-20
  0.2136      0.435146E-10      0.232816E+03     -0.794415E-11      0.369445E-07     -0.126062E-20
  0.2167      0.706864E-10      0.146526E+03     -0.309821E-11      0.372231E-07     -0.787062E-21
  0.2199      0.106878E-09      0.990581E+02     -0.396531E-11      0.375051E-07     -0.150133E-20
  0.2230      0.153512E-09      0.704834E+02     -0.157596E-11      0.377903E-07     -0.844965E-21
  0.2261      0.212151E-09      0.521149E+02     -0.435964E-11      0.380790E-07     -0.318547E-20
  0.2293      0.284504E-09      0.397034E+02     -0.602982E-12      0.383711E-07     -0.582749E-21
  0.2324      0.372436E-09      0.309817E+02      0.838415E-13      0.386667E-07      0.104638E-21
  0.2356      0.477978E-09      0.246562E+02      0.441235E-12      0.389659E-07      0.697313E-21
  0.2387      0.603331E-09      0.199477E+02      0.301067E-12      0.392686E-07      0.592675E-21
  0.2418      0.750884E-09      0.163655E+02     -0.913652E-12      0.395751E-07     -0.220940E-20
  0.2450      0.923215E-09      0.135892E+02      0.196855E-12      0.398853E-07      0.577786E-21
  0.2481      0.112311E-08      0.114028E+02     -0.665193E-13      0.401993E-07     -0.234506E-21
  0.2513      0.135356E-08      0.965698E+01      0.374886E-12      0.405171E-07      0.157288E-20
  0.2544      0.161778E-08      0.824572E+01     -0.403507E-12      0.408389E-07     -0.199847E-20
  0.2575      0.191923E-08      0.709252E+01     -0.208150E-12      0.411647E-07     -0.120810E-20
  0.2607      0.226161E-08      0.614103E+01     -0.520283E-14      0.414946E-07     -0.351552E-22
  0.2638      0.264885E-08      0.534912E+01     -0.160894E-12      0.418285E-07     -0.125814E-20
  0.2670      0.308520E-08      0.468484E+01     -0.842282E-13      0.421667E-07     -0.758111E-21
  0.2701      0.357513E-08      0.412362E+01     -0.191094E-12      0.425092E-07     -0.196993E-20
  0.2733      0.412343E-08      0.364637E+01     -0.123306E-12      0.428560E-07     -0.144922E-20
  0.2764      0.473519E-08      0.323810E+01     -0.533439E-13      0.432072E-07     -0.711789E-21
  0.2795      0.541581E-08      0.288690E+01     -0.158175E-12      0.435629E-07     -0.238683E-20
  0.2827      0.617101E-08      0.258327E+01      0.772549E-13      0.439232E-07      0.131356E-20
  0.2858      0.700684E-08      0.231951E+01     -0.241000E-12      0.442882E-07     -0.460161E-20
  0.2890      0.792971E-08      0.208938E+01      0.381783E-13      0.446579E-07      0.816014E-21
  0.2921      0.894638E-08      0.188777E+01      0.998659E-14      0.450325E-07      0.238228E-21
  0.2952      0.100640E-07      0.171047E+01     -0.177139E-12      0.454119E-07     -0.470294E-20
  0.2984      0.112901E-07      0.155398E+01     -0.228195E-13      0.457964E-07     -0.672498E-21
  0.3015      0.126326E-07      0.141540E+01      0.452361E-13      0.461860E-07      0.147610E-20
  0.3047      0.140998E-07      0.129228E+01     -0.305212E-14      0.465807E-07     -0.110015E-21
  0.3078      0.157004E-07      0.118256E+01     -0.451506E-13      0.469807E-07     -0.179374E-20
  0.3109      0.174437E-07      0.108452E+01     -0.162243E-13      0.473861E-07     -0.708894E-21
  0.3141      0.193393E-07      0.996664E+00     -0.264245E-13      0.477970E-07     -0.126724E-20
  0.3172      0.213973E-07      0.917741E+00     -0.181229E-13      0.482135E-07     -0.952085E-21
  0.3204      0.236282E-07      0.846668E+00      0.417597E-15      0.486356E-07      0.239882E-22
  0.3235      0.260430E-07      0.782516E+00     -0.471904E-13      0.490635E-07     -0.295883E-20
  0.3266      0.286534E-07      0.724482E+00     -0.130879E-13      0.494973E-07     -0.894182E-21
  0.3298      0.314714E-07      0.671871E+00     -0.306608E-13      0.499372E-07     -0.227888E-20
  0.3329      0.345095E-07      0.624082E+00      0.102461E-13      0.503831E-07      0.827181E-21
  0.3361      0.377808E-07      0.580587E+00      0.253562E-13      0.508353E-07      0.222015E-20
  0.3392      0.412990E-07      0.540927E+00      0.110522E-13      0.512938E-07      0.104804E-20
  0.3423      0.450782E-07      0.504700E+00     -0.478304E-14      0.517589E-07     -0.490518E-21
  0.3455      0.491332E-07      0.471553E+00     -0.345919E-13      0.522305E-07     -0.383150E-20
  0.3486      0.534794E-07      0.441173E+00      0.990060E-15      0.527089E-07      0.118287E-21
  0.3518      0.581327E-07      0.413285E+00      0.177762E-13      0.531941E-07      0.228798E-20
  0.3549      0.631095E-07      0.387647E+00     -0.651027E-14      0.536864E-07     -0.901627E-21
  0.3581      0.684271E-07      0.364041E+00     -0.389013E-14      0.541857E-07     -0.579026E-21
  0.3612      0.741031E-07      0.342277E+00     -0.277470E-14      0.546924E-07     -0.443369E-21
  0.3643      0.801559E-07      0.322182E+00      0.371708E-15      0.552065E-07      0.636929E-22
  0.3675      0.866045E-07      0.303605E+00     -0.762942E-14      0.557282E-07     -0.140042E-20
  0.3706      0.934686E-07      0.286409E+00     -0.846451E-14      0.562576E-07     -0.166263E-20
  0.3738      0.100768E-06      0.270471E+00      0.405347E-14      0.567949E-07      0.851169E-21
  0.3769      0.108525E-06      0.255682E+00     -0.830633E-14      0.573402E-07     -0.186281E-20
  0.3800      0.116760E-06      0.241943E+00      0.590776E-14      0.578938E-07      0.141365E-20
  0.3832      0.125495E-06      0.229165E+00      0.123875E-14      0.584558E-07      0.315983E-21
  0.3863      0.134755E-06      0.217268E+00      0.942653E-14      0.590263E-07      0.256095E-20
  0.3895      0.144561E-06      0.206180E+00      0.210018E-14      0.596056E-07      0.607151E-21
  0.3926      0.154939E-06      0.195835E+00      0.516970E-14      0.601938E-07      0.158901E-20
  0.3957      0.165914E-06      0.186173E+00     -0.248258E-15      0.607911E-07     -0.810637E-22
  0.3989      0.177511E-06      0.177141E+00      0.117179E-14      0.613977E-07      0.406146E-21
  0.4020      0.189758E-06      0.168690E+00      0.444168E-14      0.620139E-07      0.163285E-20
  0.4052      0.202680E-06      0.160775E+00      0.932036E-15      0.626397E-07      0.363132E-21
  0.4083      0.216306E-06      0.153355E+00     -0.812531E-14      0.632755E-07     -0.335256E-20
  0.4114      0.230665E-06      0.146394E+00      0.590872E-14      0.639215E-07      0.257998E-20
  0.4146      0.245786E-06      0.139858E+00      0.609094E-15      0.645778E-07      0.281241E-21
  0.4177      0.261699E-06      0.133716E+00     -0.445177E-14      0.652447E-07     -0.217218E-20
  0.4209      0.278435E-06      0.127939E+00     -0.314488E-14      0.659225E-07     -0.162045E-20
  0.4240      0.296025E-06      0.122502E+00     -0.637547E-14      0.666113E-07     -0.346671E-20
  0.4271      0.314501E-06      0.117380E+00      0.340855E-14      0.673115E-07      0.195463E-20
  0.4303      0.333897E-06      0.112552E+00      0.692545E-15      0.680232E-07      0.418553E-21
  0.4334      0.354245E-06      0.107998E+00      0.273797E-14      0.687468E-07      0.174287E-20
  0.4366      0.375581E-06      0.103699E+00     -0.360482E-15      0.694825E-07     -0.241537E-21
  0.4397      0.397938E-06      0.996386E-01      0.232597E-14      0.702307E-07      0.163947E-20
  0.4429      0.421354E-06      0.958003E-01     -0.788072E-15      0.709915E-07     -0.583990E-21
  0.4460      0.445864E-06      0.921700E-01      0.332946E-14      0.717653E-07      0.259238E-20
  0.4491      0.471505E-06      0.887341E-01     -0.228840E-14      0.725524E-07     -0.187108E-20
  0.4523      0.498315E-06      0.854803E-01      0.203198E-14      0.733532E-07      0.174370E-20
  0.4554      0.526332E-06      0.823972E-01     -0.187284E-14      0.741678E-07     -0.168579E-20
  0.4586      0.555596E-06      0.794740E-01     -0.377097E-14      0.749968E-07     -0.355853E-20
  0.4617      0.586146E-06      0.767009E-01     -0.227881E-14      0.758404E-07     -0.225324E-20
  0.4648      0.618022E-06      0.740688E-01     -0.196509E-14      0.766989E-07     -0.203486E-20
  0.4680      0.651266E-06      0.715692E-01     -0.195522E-14      0.775728E-07     -0.211924E-20
  0.4711      0.685919E-06      0.691942E-01      0.510775E-14      0.784625E-07      0.579192E-20
  0.4743      0.722022E-06      0.669363E-01     -0.126966E-15      0.793682E-07     -0.150547E-21
  0.4774      0.759619E-06      0.647889E-01     -0.610075E-15      0.802905E-07     -0.756043E-21
  0.4805      0.798753E-06      0.627455E-01     -0.169961E-14      0.812297E-07     -0.220030E-20
  0.4837      0.839468E-06      0.608002E-01     -0.185661E-14      0.821864E-07     -0.250967E-20
  0.4868      0.881808E-06      0.589475E-01     -0.254470E-15      0.831608E-07     -0.358996E-21
  0.4900      0.925817E-06      0.571821E-01      0.376585E-15      0.841535E-07      0.554211E-21
  0.4931      0.971542E-06      0.554994E-01     -0.239984E-14      0.851650E-07     -0.368261E-20
  0.4962      0.101903E-05      0.538947E-01     -0.171297E-14      0.861958E-07     -0.273962E-20
  0.4994      0.106832E-05      0.523638E-01     -0.294997E-14      0.872463E-07     -0.491511E-20
  0.5025      0.111947E-05      0.509029E-01     -0.142646E-14      0.883171E-07     -0.247492E-20
  0.5057      0.117251E-05      0.495082E-01     -0.298913E-14      0.894087E-07     -0.539818E-20
  0.5088      0.122751E-05      0.481762E-01     -0.401050E-14      0.905217E-07     -0.753562E-20
  0.5120      0.128450E-05      0.469038E-01     -0.244919E-14      0.916568E-07     -0.478607E-20
  0.5151      0.134353E-05      0.456878E-01      0.588781E-15      0.928144E-07      0.119610E-20
  0.5182      0.140466E-05      0.445255E-01     -0.298500E-14      0.939952E-07     -0.630146E-20
  0.5214      0.146792E-05      0.434141E-01      0.722753E-15      0.951999E-07      0.158488E-20
  0.5245      0.153338E-05      0.423511E-01     -0.190801E-14      0.964291E-07     -0.434435E-20
  0.5277      0.160107E-05      0.413342E-01     -0.129156E-14      0.976836E-07     -0.305230E-20
  0.5308      0.167105E-05      0.403612E-01     -0.340324E-14      0.989640E-07     -0.834460E-20
  0.5339      0.174336E-05      0.394299E-01     -0.822294E-15      0.100271E-06     -0.209111E-20
  0.5371      0.181807E-05      0.385384E-01      0.673295E-15      0.101606E-06      0.177513E-20
  0.5402      0.189520E-05      0.376849E-01     -0.132174E-14      0.102969E-06     -0.361147E-20
  0.5434      0.197482E-05      0.368675E-01      0.102043E-14      0.104361E-06      0.288851E-20
  0.5465      0.205698E-05      0.360847E-01     -0.941879E-15      0.105783E-06     -0.276113E-20
  0.5496      0.214172E-05      0.353350E-01      0.631254E-15      0.107236E-06      0.191575E-20
  0.5528      0.222909E-05      0.346167E-01     -0.249048E-14      0.108721E-06     -0.782182E-20
  0.5559      0.231914E-05      0.339287E-01     -0.114055E-15      0.110238E-06     -0.370577E-21
  0.5591      0.241192E-05      0.332696E-01     -0.209841E-14      0.111790E-06     -0.705089E-20
  0.5622      0.250748E-05      0.326381E-01     -0.352425E-16      0.113376E-06     -0.122423E-21
  0.5653      0.260587E-05      0.320332E-01     -0.156866E-14      0.114998E-06     -0.563145E-20
  0.5685      0.270713E-05      0.314537E-01     -0.215891E-15      0.116658E-06     -0.800711E-21
  0.5716      0.281132E-05      0.308986E-01     -0.244627E-14      0.118355E-06     -0.937030E-20
  0.5748      0.291847E-05      0.303670E-01     -0.118135E-14      0.120093E-06     -0.467192E-20
  0.5779      0.302865E-05      0.298578E-01     -0.245294E-14      0.121871E-06     -0.100122E-19
  0.5810      0.314189E-05      0.293704E-01     -0.142046E-14      0.123692E-06     -0.598217E-20
  0.5842      0.325824E-05      0.289038E-01      0.818056E-15      0.125556E-06      0.355357E-20
  0.5873      0.337775E-05      0.284573E-01     -0.986153E-15      0.127465E-06     -0.441714E-20
  0.5905      0.350046E-05      0.280302E-01      0.136156E-16      0.129421E-06      0.628657E-22
  0.5936      0.362641E-05      0.276217E-01     -0.115645E-14      0.131425E-06     -0.550241E-20
  0.5968      0.375566E-05      0.272313E-01      0.284184E-15      0.133479E-06      0.139297E-20
  0.5999      0.388823E-05      0.268584E-01     -0.173232E-14      0.135584E-06     -0.874495E-20
  0.6030      0.402418E-05      0.265023E-01      0.141964E-15      0.137744E-06      0.737845E-21
  0.6062      0.416354E-05      0.261626E-01     -0.112877E-14      0.139958E-06     -0.603842E-20
  0.6093      0.430636E-05      0.258388E-01     -0.501310E-15      0.142230E-06     -0.275947E-20
  0.6125      0.445267E-05      0.255303E-01     -0.190260E-14      0.144562E-06     -0.107732E-19
  0.6156      0.460252E-05      0.252368E-01      0.156258E-15      0.146955E-06      0.909899E-21
  0.6187      0.475594E-05      0.249578E-01     -0.210187E-14      0.149412E-06     -0.125831E-19
  0.6219      0.491296E-05      0.246929E-01     -0.436643E-15      0.151936E-06     -0.268668E-20
  0.6250      0.507363E-05      0.244418E-01     -0.216244E-14      0.154529E-06     -0.136716E-19
  0.6282      0.523797E-05      0.242042E-01      0.133990E-15      0.157194E-06      0.870194E-21
