 #KVL flux sum: time, flux integral, flux
 
    0.000000000000         0.00000000E+00      0.00000000E+00      0.00000000E+00      0.00000000E+00
    2.000000000000         0.38581760E-09     -0.37254410E-18      0.38581760E-09     -0.37254410E-18
    4.000000000000         0.48992504E-08      0.16888179E-15      0.45134328E-08      0.16925433E-15
    6.000000000000         0.37954412E-07      0.13761631E-15      0.33055161E-07     -0.31265484E-16
    8.000000000000         0.52766443E-07      0.13936608E-15      0.14812031E-07      0.17497752E-17
   10.000000000000         0.90382144E-07      0.13305060E-15      0.37615701E-07     -0.63154783E-17
   12.000000000000         0.51442822E-06      0.65658079E-16      0.42404607E-06     -0.67392526E-16
   14.000000000000         0.35793284E-05      0.23581437E-15      0.30649002E-05      0.17015629E-15
   16.000000000000         0.16579565E-04      0.33717274E-15      0.13000236E-04      0.10135837E-15
   18.000000000000         0.51764779E-04      0.50158552E-15      0.35185214E-04      0.16441278E-15
   20.000000000000         0.11525654E-03      0.63639915E-15      0.63491759E-04      0.13481363E-15
   22.000000000000         0.19660284E-03      0.68926049E-15      0.81346305E-04      0.52861333E-16
   24.000000000000         0.27941839E-03      0.74441668E-15      0.82815548E-04      0.55156193E-16
   26.000000000000         0.35292115E-03      0.88051740E-15      0.73502760E-04      0.13610072E-15
   28.000000000000         0.41312062E-03      0.95456962E-15      0.60199474E-04      0.74052220E-16
   30.000000000000         0.45968672E-03      0.98076595E-15      0.46566098E-04      0.26196334E-16
   32.000000000000         0.49462393E-03      0.10442490E-14      0.34937211E-04      0.63483050E-16
   34.000000000000         0.52210063E-03      0.10036590E-14      0.27476697E-04     -0.40589953E-16
   36.000000000000         0.54531529E-03      0.11079925E-14      0.23214654E-04      0.10433343E-15
   38.000000000000         0.56489011E-03      0.97620153E-15      0.19574820E-04     -0.13179094E-15
   40.000000000000         0.58103828E-03      0.95119151E-15      0.16148176E-04     -0.25010029E-16
   42.000000000000         0.59465444E-03      0.11294877E-14      0.13616162E-04      0.17829618E-15
   44.000000000000         0.60715439E-03      0.12187180E-14      0.12499948E-04      0.89230306E-16
   46.000000000000         0.61926195E-03      0.11940127E-14      0.12107561E-04     -0.24705280E-16
   48.000000000000         0.63036701E-03      0.11931477E-14      0.11105061E-04     -0.86504005E-18
   50.000000000000         0.63967226E-03      0.12578156E-14      0.93052461E-05      0.64667931E-16
   52.000000000000         0.64732290E-03      0.12405423E-14      0.76506377E-05     -0.17273302E-16
   54.000000000000         0.65404600E-03      0.13009719E-14      0.67231058E-05      0.60429613E-16
   56.000000000000         0.66027978E-03      0.14544795E-14      0.62337787E-05      0.15350762E-15
   58.000000000000         0.66616019E-03      0.13917485E-14      0.58804123E-05     -0.62730989E-16
   60.000000000000         0.67178574E-03      0.13346496E-14      0.56255446E-05     -0.57098983E-16
   62.000000000000         0.67719442E-03      0.14659490E-14      0.54086856E-05      0.13129944E-15
   64.000000000000         0.68223122E-03      0.15679110E-14      0.50367992E-05      0.10196201E-15
   66.000000000000         0.68669868E-03      0.16036592E-14      0.44674525E-05      0.35748175E-16
   68.000000000000         0.69067769E-03      0.16802110E-14      0.39790120E-05      0.76551796E-16
   70.000000000000         0.69446582E-03      0.17186225E-14      0.37881300E-05      0.38411474E-16
   72.000000000000         0.69822185E-03      0.17277994E-14      0.37560316E-05      0.91769239E-17
   74.000000000000         0.70186831E-03      0.18383446E-14      0.36464644E-05      0.11054517E-15
   76.000000000000         0.70529571E-03      0.18150458E-14      0.34274005E-05     -0.23298733E-16
   78.000000000000         0.70845196E-03      0.19266994E-14      0.31562451E-05      0.11165362E-15
   80.000000000000         0.71132395E-03      0.19537730E-14      0.28719916E-05      0.27073537E-16
   82.000000000000         0.71393884E-03      0.20154295E-14      0.26148903E-05      0.61656567E-16
   84.000000000000         0.71638469E-03      0.19483539E-14      0.24458490E-05     -0.67075683E-16
   86.000000000000         0.71874846E-03      0.19078558E-14      0.23637672E-05     -0.40498028E-16
   88.000000000000         0.72098560E-03      0.18748551E-14      0.22371443E-05     -0.33000700E-16
   90.000000000000         0.72300621E-03      0.19280834E-14      0.20206131E-05      0.53228280E-16
   92.000000000000         0.72482201E-03      0.19709464E-14      0.18157945E-05      0.42863007E-16
   94.000000000000         0.72650826E-03      0.19977180E-14      0.16862509E-05      0.26771583E-16
   96.000000000000         0.72811890E-03      0.20116982E-14      0.16106370E-05      0.13980241E-16
   98.000000000000         0.72965973E-03      0.19725847E-14      0.15408283E-05     -0.39113558E-16
  100.000000000000         0.73112320E-03      0.20861321E-14      0.14634756E-05      0.11354740E-15
  102.000000000000         0.73250435E-03      0.20899789E-14      0.13811526E-05      0.38468336E-17
  104.000000000000         0.73378285E-03      0.19727113E-14      0.12784948E-05     -0.11726759E-15
  106.000000000000         0.73496648E-03      0.20171640E-14      0.11836328E-05      0.44452678E-16
  108.000000000000         0.73610921E-03      0.20128919E-14      0.11427274E-05     -0.42720532E-17
  110.000000000000         0.73723371E-03      0.20671287E-14      0.11245028E-05      0.54236738E-16
  112.000000000000         0.73832728E-03      0.21016380E-14      0.10935649E-05      0.34509345E-16
  114.000000000000         0.73937652E-03      0.20942041E-14      0.10492402E-05     -0.74338825E-17
  116.000000000000         0.74038158E-03      0.21406244E-14      0.10050672E-05      0.46420262E-16
  118.000000000000         0.74135174E-03      0.22609494E-14      0.97015570E-06      0.12032500E-15
  120.000000000000         0.74229857E-03      0.22762064E-14      0.94682814E-06      0.15257016E-16
  122.000000000000         0.74324063E-03      0.22331703E-14      0.94205812E-06     -0.43036091E-16
  124.000000000000         0.74417730E-03      0.21734999E-14      0.93667127E-06     -0.59670401E-16
  126.000000000000         0.74509255E-03      0.21984711E-14      0.91525177E-06      0.24971199E-16
  128.000000000000         0.74596667E-03      0.23043528E-14      0.87411927E-06      0.10588164E-15
  130.000000000000         0.74679869E-03      0.23945931E-14      0.83202582E-06      0.90240295E-16
  132.000000000000         0.74762041E-03      0.22877138E-14      0.82171476E-06     -0.10687929E-15
  134.000000000000         0.74844288E-03      0.22628928E-14      0.82247483E-06     -0.24820970E-16
  136.000000000000         0.74925162E-03      0.21382752E-14      0.80873635E-06     -0.12461761E-15
  138.000000000000         0.75004080E-03      0.20257810E-14      0.78917842E-06     -0.11249416E-15
  140.000000000000         0.75080343E-03      0.19655073E-14      0.76263197E-06     -0.60273755E-16
  142.000000000000         0.75153695E-03      0.19479638E-14      0.73351685E-06     -0.17543493E-16
  144.000000000000         0.75225028E-03      0.20217516E-14      0.71333162E-06      0.73787795E-16
  146.000000000000         0.75294949E-03      0.22011467E-14      0.69921359E-06      0.17939516E-15
  148.000000000000         0.75363707E-03      0.23550593E-14      0.68758192E-06      0.15391254E-15
  150.000000000000         0.75429968E-03      0.24570801E-14      0.66260691E-06      0.10202084E-15
  152.000000000000         0.75492015E-03      0.24685155E-14      0.62046936E-06      0.11435416E-16
  154.000000000000         0.75550767E-03      0.24856906E-14      0.58751482E-06      0.17175029E-16
  156.000000000000         0.75608016E-03      0.24667271E-14      0.57249876E-06     -0.18963473E-16
  158.000000000000         0.75663469E-03      0.24067983E-14      0.55452832E-06     -0.59928823E-16
  160.000000000000         0.75717539E-03      0.24334216E-14      0.54069887E-06      0.26623348E-16
  162.000000000000         0.75769716E-03      0.24977890E-14      0.52176643E-06      0.64367399E-16
  164.000000000000         0.75819248E-03      0.25124509E-14      0.49532375E-06      0.14661904E-16
  166.000000000000         0.75866870E-03      0.26723819E-14      0.47622244E-06      0.15993101E-15
  168.000000000000         0.75912844E-03      0.27938625E-14      0.45973391E-06      0.12148059E-15
  170.000000000000         0.75957127E-03      0.28788309E-14      0.44282786E-06      0.84968405E-16
  172.000000000000         0.76000364E-03      0.29738419E-14      0.43237612E-06      0.95010989E-16
  174.000000000000         0.76042038E-03      0.29982891E-14      0.41673888E-06      0.24447199E-16
  176.000000000000         0.76081679E-03      0.29896288E-14      0.39640484E-06     -0.86602990E-17
  178.000000000000         0.76119835E-03      0.30565218E-14      0.38156176E-06      0.66892953E-16
  180.000000000000         0.76156217E-03      0.29465105E-14      0.36382047E-06     -0.11001129E-15
  182.000000000000         0.76191283E-03      0.28666189E-14      0.35065956E-06     -0.79891604E-16
  184.000000000000         0.76225345E-03      0.30651029E-14      0.34062006E-06      0.19848398E-15
  186.000000000000         0.76257880E-03      0.30753785E-14      0.32535605E-06      0.10275606E-16
  188.000000000000         0.76289275E-03      0.31053723E-14      0.31394183E-06      0.29993804E-16
  190.000000000000         0.76318689E-03      0.31581155E-14      0.29414783E-06      0.52743264E-16
  192.000000000000         0.76346142E-03      0.31724522E-14      0.27452502E-06      0.14336661E-16
  194.000000000000         0.76372878E-03      0.30777730E-14      0.26735812E-06     -0.94679178E-16
  196.000000000000         0.76398507E-03      0.30047798E-14      0.25629539E-06     -0.72993169E-16
  198.000000000000         0.76423492E-03      0.30686430E-14      0.24985176E-06      0.63863167E-16
  200.000000000000         0.76447957E-03      0.30502872E-14      0.24464492E-06     -0.18355787E-16
  202.000000000000         0.76470696E-03      0.30462305E-14      0.22739422E-06     -0.40567399E-17
  204.000000000000         0.76492026E-03      0.30536044E-14      0.21329500E-06      0.73739016E-17
  206.000000000000         0.76512880E-03      0.31834738E-14      0.20854406E-06      0.12986943E-15
  208.000000000000         0.76533439E-03      0.33278954E-14      0.20559202E-06      0.14442161E-15
  210.000000000000         0.76554163E-03      0.32522162E-14      0.20723213E-06     -0.75679234E-16
  212.000000000000         0.76574600E-03      0.32938207E-14      0.20437428E-06      0.41604508E-16
  214.000000000000         0.76593785E-03      0.34800694E-14      0.19185480E-06      0.18624870E-15
  216.000000000000         0.76612293E-03      0.35172360E-14      0.18507609E-06      0.37166623E-16
  218.000000000000         0.76630900E-03      0.35204999E-14      0.18607171E-06      0.32638996E-17
  220.000000000000         0.76649579E-03      0.35980223E-14      0.18678596E-06      0.77522334E-16
  222.000000000000         0.76668277E-03      0.36134403E-14      0.18697944E-06      0.15418054E-16
  224.000000000000         0.76686690E-03      0.36513839E-14      0.18413097E-06      0.37943573E-16
  226.000000000000         0.76704177E-03      0.35719753E-14      0.17486852E-06     -0.79408604E-16
  228.000000000000         0.76721133E-03      0.34916239E-14      0.16955777E-06     -0.80351393E-16
  230.000000000000         0.76738337E-03      0.36259624E-14      0.17204266E-06      0.13433849E-15
  232.000000000000         0.76755892E-03      0.35886484E-14      0.17555660E-06     -0.37314002E-16
  234.000000000000         0.76773362E-03      0.36269054E-14      0.17469561E-06      0.38257044E-16
  236.000000000000         0.76790140E-03      0.34900724E-14      0.16777840E-06     -0.13683300E-15
  238.000000000000         0.76806021E-03      0.33701588E-14      0.15881243E-06     -0.11991359E-15
  240.000000000000         0.76821573E-03      0.33280186E-14      0.15551639E-06     -0.42140260E-16
  242.000000000000         0.76837047E-03      0.34475385E-14      0.15474649E-06      0.11951991E-15
  244.000000000000         0.76852721E-03      0.34037494E-14      0.15673282E-06     -0.43789036E-16
  246.000000000000         0.76868657E-03      0.33936912E-14      0.15936505E-06     -0.10058205E-16
  248.000000000000         0.76884528E-03      0.35454299E-14      0.15871256E-06      0.15173863E-15
  250.000000000000         0.76899721E-03      0.34310964E-14      0.15192354E-06     -0.11433350E-15
  252.000000000000         0.76914798E-03      0.35640012E-14      0.15076871E-06      0.13290479E-15
  254.000000000000         0.76930612E-03      0.36387055E-14      0.15814095E-06      0.74704314E-16
  256.000000000000         0.76947451E-03      0.36283169E-14      0.16838751E-06     -0.10388529E-16
  258.000000000000         0.76965389E-03      0.37247310E-14      0.17938550E-06      0.96414052E-16
  260.000000000000         0.76983667E-03      0.36738364E-14      0.18278001E-06     -0.50894603E-16
  262.000000000000         0.77001490E-03      0.37985483E-14      0.17822913E-06      0.12471186E-15
  264.000000000000         0.77019331E-03      0.37614116E-14      0.17841428E-06     -0.37136642E-16
  266.000000000000         0.77037702E-03      0.37940001E-14      0.18370549E-06      0.32588531E-16
  268.000000000000         0.77057301E-03      0.40085807E-14      0.19598964E-06      0.21458053E-15
  270.000000000000         0.77078724E-03      0.39744290E-14      0.21423195E-06     -0.34151722E-16
  272.000000000000         0.77100711E-03      0.40120612E-14      0.21986815E-06      0.37632293E-16
  274.000000000000         0.77121711E-03      0.39738753E-14      0.21000299E-06     -0.38185951E-16
  276.000000000000         0.77141906E-03      0.39986105E-14      0.20194756E-06      0.24735184E-16
  278.000000000000         0.77162622E-03      0.41607465E-14      0.20716114E-06      0.16213597E-15
  280.000000000000         0.77184784E-03      0.41011020E-14      0.22161943E-06     -0.59644501E-16
  282.000000000000         0.77208045E-03      0.40651491E-14      0.23260702E-06     -0.35952839E-16
  284.000000000000         0.77231347E-03      0.41341997E-14      0.23302296E-06      0.69050541E-16
  286.000000000000         0.77253786E-03      0.44282648E-14      0.22439334E-06      0.29406517E-15
  288.000000000000         0.77275076E-03      0.44227961E-14      0.21289908E-06     -0.54687208E-17
  290.000000000000         0.77296338E-03      0.45818633E-14      0.21261398E-06      0.15906721E-15
  292.000000000000         0.77318834E-03      0.45847361E-14      0.22495926E-06      0.28727593E-17
  294.000000000000         0.77342734E-03      0.47601259E-14      0.23900000E-06      0.17538986E-15
  296.000000000000         0.77367159E-03      0.49402689E-14      0.24425723E-06      0.18014299E-15
  298.000000000000         0.77390833E-03      0.49874064E-14      0.23674009E-06      0.47137513E-16
  300.000000000000         0.77413447E-03      0.50471304E-14      0.22613620E-06      0.59723981E-16
  302.000000000000         0.77435812E-03      0.49805176E-14      0.22365163E-06     -0.66612801E-16
  304.000000000000         0.77458668E-03      0.49845605E-14      0.22855708E-06      0.40428893E-17
  306.000000000000         0.77482229E-03      0.49976910E-14      0.23561170E-06      0.13130469E-16
  308.000000000000         0.77506267E-03      0.50211768E-14      0.24037844E-06      0.23485878E-16
  310.000000000000         0.77529843E-03      0.51748703E-14      0.23575781E-06      0.15369344E-15
  312.000000000000         0.77551875E-03      0.51027512E-14      0.22031974E-06     -0.72119107E-16
  314.000000000000         0.77572300E-03      0.49276771E-14      0.20425458E-06     -0.17507404E-15
  316.000000000000         0.77592229E-03      0.49613696E-14      0.19929206E-06      0.33692449E-16
  318.000000000000         0.77612614E-03      0.48441757E-14      0.20385106E-06     -0.11719391E-15
  320.000000000000         0.77633508E-03      0.47670836E-14      0.20893973E-06     -0.77092068E-16
  322.000000000000         0.77653732E-03      0.50300656E-14      0.20223711E-06      0.26298198E-15
  324.000000000000         0.77672194E-03      0.51210487E-14      0.18462340E-06      0.90983134E-16
  326.000000000000         0.77688878E-03      0.50755022E-14      0.16683849E-06     -0.45546492E-16
  328.000000000000         0.77704692E-03      0.50474872E-14      0.15814097E-06     -0.28015078E-16
  330.000000000000         0.77720471E-03      0.49891838E-14      0.15778907E-06     -0.58303370E-16
  332.000000000000         0.77736711E-03      0.51017505E-14      0.16239880E-06      0.11256668E-15
  334.000000000000         0.77752589E-03      0.49650240E-14      0.15877484E-06     -0.13672645E-15
  336.000000000000         0.77767146E-03      0.51092352E-14      0.14557483E-06      0.14421116E-15
  338.000000000000         0.77780688E-03      0.51906647E-14      0.13542261E-06      0.81429516E-16
  340.000000000000         0.77794042E-03      0.52478087E-14      0.13353257E-06      0.57143988E-16
  342.000000000000         0.77807363E-03      0.52427772E-14      0.13321603E-06     -0.50314590E-17
  344.000000000000         0.77820992E-03      0.51431078E-14      0.13629286E-06     -0.99669445E-16
  346.000000000000         0.77834408E-03      0.51285088E-14      0.13415636E-06     -0.14599017E-16
  348.000000000000         0.77847357E-03      0.51205261E-14      0.12948845E-06     -0.79826271E-17
  350.000000000000         0.77860351E-03      0.51991902E-14      0.12994386E-06      0.78664079E-16
  352.000000000000         0.77873288E-03      0.54377953E-14      0.12936778E-06      0.23860512E-15
  354.000000000000         0.77886001E-03      0.54664683E-14      0.12712796E-06      0.28672967E-16
  356.000000000000         0.77898774E-03      0.55487714E-14      0.12772979E-06      0.82303052E-16
  358.000000000000         0.77911333E-03      0.56180624E-14      0.12559115E-06      0.69291034E-16
  360.000000000000         0.77924070E-03      0.55774668E-14      0.12737284E-06     -0.40595563E-16
  362.000000000000         0.77937221E-03      0.55862792E-14      0.13150645E-06      0.88123367E-17
  364.000000000000         0.77950202E-03      0.55486102E-14      0.12980761E-06     -0.37668998E-16
  366.000000000000         0.77962773E-03      0.55350996E-14      0.12571766E-06     -0.13510583E-16
  368.000000000000         0.77974817E-03      0.55587195E-14      0.12043676E-06      0.23619874E-16
  370.000000000000         0.77986370E-03      0.54956658E-14      0.11552561E-06     -0.63053646E-16
  372.000000000000         0.77998112E-03      0.56687716E-14      0.11742321E-06      0.17310577E-15
  374.000000000000         0.78009815E-03      0.57214215E-14      0.11703203E-06      0.52649965E-16
  376.000000000000         0.78021419E-03      0.58125965E-14      0.11603671E-06      0.91174999E-16
  378.000000000000         0.78033293E-03      0.57100574E-14      0.11874178E-06     -0.10253917E-15
  380.000000000000         0.78044917E-03      0.56840896E-14      0.11623765E-06     -0.25967796E-16
  382.000000000000         0.78056208E-03      0.57610189E-14      0.11290920E-06      0.76929338E-16
  384.000000000000         0.78067471E-03      0.58153924E-14      0.11262867E-06      0.54373478E-16
  386.000000000000         0.78078660E-03      0.57274098E-14      0.11189093E-06     -0.87982577E-16
  388.000000000000         0.78090412E-03      0.57165477E-14      0.11752117E-06     -0.10862064E-16
