 #KVL flux sum: time, flux integral, flux
 
    0.000000000000         0.00000000E+00      0.00000000E+00      0.00000000E+00      0.00000000E+00
    2.000000000000         0.17896165E-09     -0.16205546E-15      0.17896165E-09     -0.16205546E-15
    4.000000000000         0.70681436E-09     -0.24027480E-15      0.52785272E-09     -0.78219336E-16
    6.000000000000         0.29053090E-08     -0.49858420E-15      0.21984946E-08     -0.25830941E-15
    8.000000000000         0.78531135E-08     -0.71398846E-15      0.49478046E-08     -0.21540425E-15
   10.000000000000         0.37698980E-07     -0.99143509E-15      0.29845867E-07     -0.27744663E-15
   12.000000000000         0.46115616E-06     -0.10841658E-14      0.42345718E-06     -0.92730714E-16
   14.000000000000         0.35249788E-05     -0.10706881E-14      0.30638227E-05      0.13477724E-16
   16.000000000000         0.16522121E-04     -0.13040652E-14      0.12997142E-04     -0.23337708E-15
   18.000000000000         0.51700734E-04     -0.15270991E-14      0.35178613E-04     -0.22303396E-15
   20.000000000000         0.11518265E-03     -0.17716543E-14      0.63481917E-04     -0.24455517E-15
   22.000000000000         0.19651791E-03     -0.19578246E-14      0.81335255E-04     -0.18617028E-15
   24.000000000000         0.27932226E-03     -0.21262010E-14      0.82804358E-04     -0.16837639E-15
   26.000000000000         0.35281539E-03     -0.23230662E-14      0.73493128E-04     -0.19686527E-15
   28.000000000000         0.41300949E-03     -0.24197116E-14      0.60194096E-04     -0.96645398E-16
   30.000000000000         0.45957293E-03     -0.26266961E-14      0.46563446E-04     -0.20698443E-15
   32.000000000000         0.49450723E-03     -0.26966909E-14      0.34934294E-04     -0.69994791E-16
   34.000000000000         0.52198130E-03     -0.27017462E-14      0.27474072E-04     -0.50553697E-17
   36.000000000000         0.54519424E-03     -0.29078131E-14      0.23212943E-04     -0.20606690E-15
   38.000000000000         0.56476776E-03     -0.30396596E-14      0.19573522E-04     -0.13184651E-15
   40.000000000000         0.58091483E-03     -0.31840036E-14      0.16147068E-04     -0.14434400E-15
   42.000000000000         0.59453006E-03     -0.33058827E-14      0.13615226E-04     -0.12187909E-15
   44.000000000000         0.60702941E-03     -0.34006294E-14      0.12499348E-04     -0.94746654E-16
   46.000000000000         0.61913672E-03     -0.35650380E-14      0.12107310E-04     -0.16440864E-15
   48.000000000000         0.63024179E-03     -0.36954382E-14      0.11105077E-04     -0.13040015E-15
   50.000000000000         0.63954723E-03     -0.38276782E-14      0.93054360E-05     -0.13224008E-15
   52.000000000000         0.64719797E-03     -0.40830884E-14      0.76507445E-05     -0.25541016E-15
   54.000000000000         0.65392101E-03     -0.43462961E-14      0.67230369E-05     -0.26320774E-15
   56.000000000000         0.66015465E-03     -0.45716642E-14      0.62336357E-05     -0.22536801E-15
   58.000000000000         0.66603493E-03     -0.47989952E-14      0.58802861E-05     -0.22733107E-15
   60.000000000000         0.67166047E-03     -0.49838980E-14      0.56255324E-05     -0.18490273E-15
   62.000000000000         0.67706926E-03     -0.50030990E-14      0.54087945E-05     -0.19201033E-16
   64.000000000000         0.68210628E-03     -0.52635497E-14      0.50370157E-05     -0.26045067E-15
   66.000000000000         0.68657398E-03     -0.54999139E-14      0.44677050E-05     -0.23636421E-15
   68.000000000000         0.69055321E-03     -0.57525506E-14      0.39792257E-05     -0.25263669E-15
   70.000000000000         0.69434152E-03     -0.59893106E-14      0.37883102E-05     -0.23676008E-15
   72.000000000000         0.69809772E-03     -0.61242277E-14      0.37562040E-05     -0.13491704E-15
   74.000000000000         0.70174442E-03     -0.61777528E-14      0.36467000E-05     -0.53525165E-16
   76.000000000000         0.70517214E-03     -0.64471138E-14      0.34277151E-05     -0.26936094E-15
   78.000000000000         0.70832871E-03     -0.65752998E-14      0.31565745E-05     -0.12818603E-15
   80.000000000000         0.71120098E-03     -0.67405671E-14      0.28722669E-05     -0.16526728E-15
   82.000000000000         0.71381607E-03     -0.70086910E-14      0.26150937E-05     -0.26812389E-15
   84.000000000000         0.71626203E-03     -0.72282949E-14      0.24459597E-05     -0.21960395E-15
   86.000000000000         0.71862590E-03     -0.74379912E-14      0.23638640E-05     -0.20969628E-15
   88.000000000000         0.72086316E-03     -0.77099686E-14      0.22372647E-05     -0.27197739E-15
   90.000000000000         0.72288393E-03     -0.77378808E-14      0.20207700E-05     -0.27912205E-16
   92.000000000000         0.72469990E-03     -0.78380613E-14      0.18159703E-05     -0.10018045E-15
   94.000000000000         0.72638631E-03     -0.81058181E-14      0.16864089E-05     -0.26775684E-15
   96.000000000000         0.72799709E-03     -0.83420949E-14      0.16107767E-05     -0.23627675E-15
   98.000000000000         0.72953807E-03     -0.84874717E-14      0.15409834E-05     -0.14537679E-15
  100.000000000000         0.73100171E-03     -0.87383988E-14      0.14636415E-05     -0.25092712E-15
  102.000000000000         0.73238303E-03     -0.88435149E-14      0.13813215E-05     -0.10511614E-15
  104.000000000000         0.73366170E-03     -0.91031500E-14      0.12786637E-05     -0.25963506E-15
  106.000000000000         0.73484545E-03     -0.93541084E-14      0.11837565E-05     -0.25095844E-15
  108.000000000000         0.73598827E-03     -0.95354380E-14      0.11428141E-05     -0.18132956E-15
  110.000000000000         0.73711284E-03     -0.98212070E-14      0.11245737E-05     -0.28576903E-15
  112.000000000000         0.73820647E-03     -0.99744902E-14      0.10936342E-05     -0.15328321E-15
  114.000000000000         0.73925579E-03     -0.10116182E-13      0.10493151E-05     -0.14169205E-15
  116.000000000000         0.74026092E-03     -0.10201411E-13      0.10051346E-05     -0.85228372E-16
  118.000000000000         0.74123114E-03     -0.10334709E-13      0.97021324E-06     -0.13329803E-15
  120.000000000000         0.74217800E-03     -0.10420239E-13      0.94686448E-06     -0.85530675E-16
  122.000000000000         0.74312009E-03     -0.10782814E-13      0.94208618E-06     -0.36257479E-15
  124.000000000000         0.74405680E-03     -0.10917618E-13      0.93670937E-06     -0.13480417E-15
  126.000000000000         0.74497210E-03     -0.11151987E-13      0.91530342E-06     -0.23436836E-15
  128.000000000000         0.74584629E-03     -0.11362583E-13      0.87418479E-06     -0.21059637E-15
  130.000000000000         0.74667838E-03     -0.11608801E-13      0.83209068E-06     -0.24621798E-15
  132.000000000000         0.74750014E-03     -0.11899984E-13      0.82176190E-06     -0.29118309E-15
  134.000000000000         0.74832265E-03     -0.11951985E-13      0.82250730E-06     -0.52000647E-16
  136.000000000000         0.74913142E-03     -0.11993205E-13      0.80877002E-06     -0.41220585E-16
  138.000000000000         0.74992064E-03     -0.12025780E-13      0.78922681E-06     -0.32575129E-16
  140.000000000000         0.75068333E-03     -0.12114529E-13      0.76269256E-06     -0.88748366E-16
  142.000000000000         0.75141690E-03     -0.12307629E-13      0.73356152E-06     -0.19310058E-15
  144.000000000000         0.75213024E-03     -0.12485943E-13      0.71334426E-06     -0.17831369E-15
  146.000000000000         0.75282945E-03     -0.12570578E-13      0.69920833E-06     -0.84634967E-16
  148.000000000000         0.75351702E-03     -0.12750832E-13      0.68757098E-06     -0.18025355E-15
  150.000000000000         0.75417963E-03     -0.12926794E-13      0.66260977E-06     -0.17596260E-15
  152.000000000000         0.75480012E-03     -0.13180721E-13      0.62049409E-06     -0.25392656E-15
  154.000000000000         0.75538767E-03     -0.13314155E-13      0.58754345E-06     -0.13343401E-15
  156.000000000000         0.75596019E-03     -0.13228280E-13      0.57252066E-06      0.85875283E-16
  158.000000000000         0.75651474E-03     -0.13328498E-13      0.55455181E-06     -0.10021823E-15
  160.000000000000         0.75705548E-03     -0.13619944E-13      0.54074315E-06     -0.29144655E-15
  162.000000000000         0.75757731E-03     -0.13814422E-13      0.52182773E-06     -0.19447798E-15
  164.000000000000         0.75807271E-03     -0.13993740E-13      0.49540247E-06     -0.17931799E-15
  166.000000000000         0.75854901E-03     -0.14239803E-13      0.47629906E-06     -0.24606279E-15
  168.000000000000         0.75900880E-03     -0.14277819E-13      0.45978762E-06     -0.38015508E-16
  170.000000000000         0.75945166E-03     -0.14248612E-13      0.44285609E-06      0.29207049E-16
  172.000000000000         0.75988407E-03     -0.14452897E-13      0.43241143E-06     -0.20428522E-15
  174.000000000000         0.76030084E-03     -0.14607023E-13      0.41676941E-06     -0.15412647E-15
  176.000000000000         0.76069727E-03     -0.14769563E-13      0.39643515E-06     -0.16253953E-15
  178.000000000000         0.76107886E-03     -0.15021487E-13      0.38159234E-06     -0.25192377E-15
  180.000000000000         0.76144270E-03     -0.15242213E-13      0.36383576E-06     -0.22072646E-15
  182.000000000000         0.76179336E-03     -0.15404522E-13      0.35065732E-06     -0.16230858E-15
  184.000000000000         0.76213399E-03     -0.15584869E-13      0.34063014E-06     -0.18034695E-15
  186.000000000000         0.76245937E-03     -0.15715483E-13      0.32538016E-06     -0.13061409E-15
  188.000000000000         0.76277335E-03     -0.15722234E-13      0.31397834E-06     -0.67516376E-17
  190.000000000000         0.76306754E-03     -0.15874761E-13      0.29419516E-06     -0.15252707E-15
  192.000000000000         0.76334211E-03     -0.16084850E-13      0.27456661E-06     -0.21008902E-15
  194.000000000000         0.76360950E-03     -0.16288647E-13      0.26739259E-06     -0.20379659E-15
  196.000000000000         0.76386583E-03     -0.16617855E-13      0.25632778E-06     -0.32920832E-15
  198.000000000000         0.76411572E-03     -0.16796204E-13      0.24989175E-06     -0.17834867E-15
  200.000000000000         0.76436041E-03     -0.16957818E-13      0.24469226E-06     -0.16161401E-15
  202.000000000000         0.76458785E-03     -0.17212568E-13      0.22743561E-06     -0.25474982E-15
  204.000000000000         0.76480117E-03     -0.17422311E-13      0.21332507E-06     -0.20974326E-15
  206.000000000000         0.76500973E-03     -0.17640881E-13      0.20855967E-06     -0.21857005E-15
  208.000000000000         0.76521533E-03     -0.17877357E-13      0.20559306E-06     -0.23647555E-15
  210.000000000000         0.76542257E-03     -0.18013289E-13      0.20724111E-06     -0.13593261E-15
  212.000000000000         0.76562696E-03     -0.18256836E-13      0.20439122E-06     -0.24354716E-15
  214.000000000000         0.76581883E-03     -0.18534652E-13      0.19187644E-06     -0.27781600E-15
  216.000000000000         0.76600393E-03     -0.18821594E-13      0.18509538E-06     -0.28694122E-15
  218.000000000000         0.76619002E-03     -0.18994805E-13      0.18608580E-06     -0.17321129E-15
  220.000000000000         0.76637681E-03     -0.19249782E-13      0.18679650E-06     -0.25497685E-15
  222.000000000000         0.76656382E-03     -0.19429410E-13      0.18700455E-06     -0.17962867E-15
  224.000000000000         0.76674798E-03     -0.19615769E-13      0.18416828E-06     -0.18635825E-15
  226.000000000000         0.76692290E-03     -0.19800460E-13      0.17491239E-06     -0.18469120E-15
  228.000000000000         0.76709250E-03     -0.20092500E-13      0.16960111E-06     -0.29204001E-15
  230.000000000000         0.76726457E-03     -0.20305831E-13      0.17207139E-06     -0.21333099E-15
  232.000000000000         0.76744014E-03     -0.20465368E-13      0.17557354E-06     -0.15953714E-15
  234.000000000000         0.76761486E-03     -0.20627953E-13      0.17471387E-06     -0.16258451E-15
  236.000000000000         0.76778266E-03     -0.20858093E-13      0.16779979E-06     -0.23014013E-15
  238.000000000000         0.76794149E-03     -0.20857999E-13      0.15883265E-06      0.93516232E-19
  240.000000000000         0.76809702E-03     -0.20981342E-13      0.15553008E-06     -0.12334239E-15
  242.000000000000         0.76825176E-03     -0.21142175E-13      0.15474547E-06     -0.16083337E-15
  244.000000000000         0.76840849E-03     -0.21366535E-13      0.15672148E-06     -0.22435984E-15
  246.000000000000         0.76856785E-03     -0.21580801E-13      0.15935879E-06     -0.21426630E-15
  248.000000000000         0.76872657E-03     -0.21731034E-13      0.15872196E-06     -0.15023283E-15
  250.000000000000         0.76887851E-03     -0.21974403E-13      0.15194557E-06     -0.24336948E-15
  252.000000000000         0.76902931E-03     -0.22324211E-13      0.15079253E-06     -0.34980737E-15
  254.000000000000         0.76918747E-03     -0.22534955E-13      0.15816003E-06     -0.21074471E-15
  256.000000000000         0.76935587E-03     -0.22784311E-13      0.16840439E-06     -0.24935581E-15
  258.000000000000         0.76953528E-03     -0.22951881E-13      0.17940719E-06     -0.16756952E-15
  260.000000000000         0.76971809E-03     -0.23257566E-13      0.18281472E-06     -0.30568546E-15
  262.000000000000         0.76989636E-03     -0.23326280E-13      0.17827297E-06     -0.68713546E-16
  264.000000000000         0.77007481E-03     -0.23659242E-13      0.17844971E-06     -0.33296252E-15
  266.000000000000         0.77025854E-03     -0.23632804E-13      0.18372646E-06      0.26437898E-16
  268.000000000000         0.77045454E-03     -0.23832364E-13      0.19600016E-06     -0.19955970E-15
  270.000000000000         0.77066878E-03     -0.24002595E-13      0.21423974E-06     -0.17023067E-15
  272.000000000000         0.77088867E-03     -0.24197474E-13      0.21988542E-06     -0.19487898E-15
  274.000000000000         0.77109870E-03     -0.24492919E-13      0.21002951E-06     -0.29544494E-15
  276.000000000000         0.77130066E-03     -0.24681805E-13      0.20196396E-06     -0.18888636E-15
  278.000000000000         0.77150783E-03     -0.24742686E-13      0.20716830E-06     -0.60880920E-16
  280.000000000000         0.77172945E-03     -0.25024623E-13      0.22162719E-06     -0.28193750E-15
  282.000000000000         0.77196208E-03     -0.25206839E-13      0.23262074E-06     -0.18221524E-15
  284.000000000000         0.77219513E-03     -0.25342299E-13      0.23305533E-06     -0.13545990E-15
  286.000000000000         0.77241957E-03     -0.25544641E-13      0.22444068E-06     -0.20234291E-15
  288.000000000000         0.77263251E-03     -0.25772913E-13      0.21294249E-06     -0.22827127E-15
  290.000000000000         0.77284516E-03     -0.26038113E-13      0.21264726E-06     -0.26519984E-15
  292.000000000000         0.77307015E-03     -0.26123590E-13      0.22498495E-06     -0.85477371E-16
  294.000000000000         0.77330917E-03     -0.26297931E-13      0.23902391E-06     -0.17434070E-15
  296.000000000000         0.77355345E-03     -0.26455625E-13      0.24428261E-06     -0.15769469E-15
  298.000000000000         0.77379022E-03     -0.26585283E-13      0.23676567E-06     -0.12965785E-15
  300.000000000000         0.77401637E-03     -0.26635989E-13      0.22615249E-06     -0.50706149E-16
  302.000000000000         0.77424003E-03     -0.26764445E-13      0.22365528E-06     -0.12845566E-15
  304.000000000000         0.77446857E-03     -0.26943431E-13      0.22854827E-06     -0.17898645E-15
  306.000000000000         0.77470417E-03     -0.27135893E-13      0.23560015E-06     -0.19246115E-15
  308.000000000000         0.77494455E-03     -0.27267814E-13      0.24037570E-06     -0.13192144E-15
  310.000000000000         0.77518032E-03     -0.27449855E-13      0.23576966E-06     -0.18204052E-15
  312.000000000000         0.77540066E-03     -0.27570519E-13      0.22034157E-06     -0.12066396E-15
  314.000000000000         0.77560494E-03     -0.27670315E-13      0.20427843E-06     -0.99796573E-16
  316.000000000000         0.77580426E-03     -0.27843741E-13      0.19931698E-06     -0.17342583E-15
  318.000000000000         0.77600814E-03     -0.28030260E-13      0.20387836E-06     -0.18651889E-15
  320.000000000000         0.77621711E-03     -0.28345220E-13      0.20897085E-06     -0.31496037E-15
  322.000000000000         0.77641938E-03     -0.28588444E-13      0.20227810E-06     -0.24322340E-15
  324.000000000000         0.77660405E-03     -0.28774885E-13      0.18466722E-06     -0.18644131E-15
  326.000000000000         0.77677093E-03     -0.28780781E-13      0.16687483E-06     -0.58956854E-17
  328.000000000000         0.77692909E-03     -0.28901066E-13      0.15816553E-06     -0.12028543E-15
  330.000000000000         0.77708689E-03     -0.29093408E-13      0.15780126E-06     -0.19234208E-15
  332.000000000000         0.77724929E-03     -0.29197389E-13      0.16240132E-06     -0.10398131E-15
  334.000000000000         0.77740808E-03     -0.29339247E-13      0.15878058E-06     -0.14185786E-15
  336.000000000000         0.77755366E-03     -0.29532509E-13      0.14558424E-06     -0.19326188E-15
  338.000000000000         0.77768909E-03     -0.29760724E-13      0.13543084E-06     -0.22821516E-15
  340.000000000000         0.77782263E-03     -0.29893789E-13      0.13354404E-06     -0.13306481E-15
  342.000000000000         0.77795586E-03     -0.30030379E-13      0.13322565E-06     -0.13658937E-15
  344.000000000000         0.77809216E-03     -0.30079148E-13      0.13630317E-06     -0.48769190E-16
  346.000000000000         0.77822634E-03     -0.30190319E-13      0.13417726E-06     -0.11117144E-15
  348.000000000000         0.77835586E-03     -0.30245566E-13      0.12951919E-06     -0.55247263E-16
  350.000000000000         0.77848584E-03     -0.30482073E-13      0.12997985E-06     -0.23650702E-15
  352.000000000000         0.77861525E-03     -0.30696007E-13      0.12940789E-06     -0.21393375E-15
  354.000000000000         0.77874241E-03     -0.30887693E-13      0.12716260E-06     -0.19168569E-15
  356.000000000000         0.77887016E-03     -0.31066954E-13      0.12775208E-06     -0.17926094E-15
  358.000000000000         0.77899577E-03     -0.31291986E-13      0.12560569E-06     -0.22503205E-15
  360.000000000000         0.77912315E-03     -0.31658423E-13      0.12738252E-06     -0.36643690E-15
  362.000000000000         0.77925466E-03     -0.31893580E-13      0.13151389E-06     -0.23515775E-15
  364.000000000000         0.77938448E-03     -0.32236739E-13      0.12981717E-06     -0.34315858E-15
  366.000000000000         0.77951020E-03     -0.32624975E-13      0.12572292E-06     -0.38823633E-15
  368.000000000000         0.77963064E-03     -0.32762064E-13      0.12043403E-06     -0.13708907E-15
  370.000000000000         0.77974616E-03     -0.33021948E-13      0.11551835E-06     -0.25988329E-15
  372.000000000000         0.77986358E-03     -0.33167940E-13      0.11742362E-06     -0.14599226E-15
  374.000000000000         0.77998062E-03     -0.33322733E-13      0.11704361E-06     -0.15479253E-15
  376.000000000000         0.78009669E-03     -0.33583145E-13      0.11606136E-06     -0.26041285E-15
  378.000000000000         0.78021546E-03     -0.33784898E-13      0.11877523E-06     -0.20175277E-15
  380.000000000000         0.78033173E-03     -0.33880817E-13      0.11627021E-06     -0.95918617E-16
  382.000000000000         0.78044467E-03     -0.34098466E-13      0.11293576E-06     -0.21764901E-15
  384.000000000000         0.78055732E-03     -0.34387566E-13      0.11265754E-06     -0.28910022E-15
  386.000000000000         0.78066924E-03     -0.34605600E-13      0.11191957E-06     -0.21803390E-15
  388.000000000000         0.78078679E-03     -0.34675661E-13      0.11754847E-06     -0.70061265E-16
