 
 # Omega; pulse ft; proj flux t=    500.250000000000     
    0.000000000000         0.23910205E-10      0.00000000E+00      0.00000000E+00     -0.36949793E-01     -0.22692351E-15
    0.006276908399         0.59245936E-08     -0.61112656E+05     -0.61541393E-09     -0.22462934E-01     -0.22620523E-15
    0.012553816798         0.23666714E-07     -0.76468313E+04     -0.31189371E-09     -0.56139202E-02     -0.22897672E-15
    0.018830725196         0.53370592E-07     -0.22592827E+04     -0.20470310E-09     -0.24936075E-02     -0.22593418E-15
    0.025107633595         0.95237123E-07     -0.94873114E+03     -0.15374465E-09     -0.14014131E-02     -0.22710309E-15
    0.031384541994         0.14954832E-06     -0.48276713E+03     -0.11985161E-09     -0.89583078E-03     -0.22239866E-15
    0.037661450393         0.21666807E-06     -0.27722858E+03     -0.10093967E-09     -0.62109555E-03     -0.22614255E-15
    0.043938358791         0.29704308E-06     -0.17295100E+03     -0.86171048E-10     -0.45532472E-03     -0.22686083E-15
    0.050215267190         0.39120404E-06     -0.11468360E+03     -0.74603579E-10     -0.34792963E-03     -0.22633398E-15
    0.056492175589         0.49976695E-06     -0.79628371E+02     -0.65667374E-10     -0.27432767E-03     -0.22623064E-15
    0.062769083988         0.62343466E-06     -0.57239229E+02     -0.58432251E-10     -0.22139177E-03     -0.22600618E-15
    0.069045992387         0.76299851E-06     -0.42341323E+02     -0.52280954E-10     -0.18220999E-03     -0.22498381E-15
    0.075322900785         0.91934020E-06     -0.32076732E+02     -0.47784841E-10     -0.15246209E-03     -0.22712341E-15
    0.081599809184         0.10934337E-05     -0.24770632E+02     -0.43171353E-10     -0.12925964E-03     -0.22527942E-15
    0.087876717583         0.12863475E-05     -0.19439592E+02     -0.39890069E-10     -0.11081388E-03     -0.22739023E-15
    0.094153625982         0.14992463E-05     -0.15464645E+02     -0.36609280E-10     -0.95895550E-04     -0.22701245E-15
    0.100430534380         0.17333941E-05     -0.12445375E+02     -0.33770986E-10     -0.83649255E-04     -0.22698535E-15
    0.106707442779         0.19901556E-05     -0.10114140E+02     -0.31184729E-10     -0.73458797E-04     -0.22649407E-15
    0.112984351178         0.22709991E-05     -0.82891784E+01     -0.28956098E-10     -0.64883267E-04     -0.22665289E-15
    0.119261259577         0.25774989E-05     -0.68414762E+01     -0.26863426E-10     -0.57579975E-04     -0.22609088E-15
    0.125538167976         0.29113373E-05     -0.56801622E+01     -0.24887574E-10     -0.51297950E-04     -0.22476146E-15
    0.131815076374         0.32743070E-05     -0.47387659E+01     -0.23260123E-10     -0.45839737E-04     -0.22500329E-15
    0.138091984773         0.36683138E-05     -0.39678395E+01     -0.21712093E-10     -0.41046359E-04     -0.22460646E-15
    0.144368893172         0.40953781E-05     -0.33310926E+01     -0.20409636E-10     -0.36798458E-04     -0.22546450E-15
    0.150645801571         0.45576374E-05     -0.28007449E+01     -0.19280818E-10     -0.32997332E-04     -0.22715941E-15
    0.156922709970         0.50573481E-05     -0.23546013E+01     -0.18035744E-10     -0.29551326E-04     -0.22635685E-15
    0.163199618368         0.55968873E-05     -0.19757193E+01     -0.17000008E-10     -0.26386100E-04     -0.22703829E-15
    0.169476526767         0.61787544E-05     -0.16497979E+01     -0.15952453E-10     -0.23423116E-04     -0.22648602E-15
    0.175753435166         0.68055722E-05     -0.13650762E+01     -0.15257855E-10     -0.20584497E-04     -0.23007892E-15
    0.182030343565         0.74800884E-05     -0.11087326E+01     -0.14277538E-10     -0.17742398E-04     -0.22847507E-15
    0.188307251963         0.82051763E-05     -0.86790560E+00     -0.13396422E-10     -0.14727055E-04     -0.22731717E-15
    0.194584160362         0.89838351E-05     -0.60207877E+00     -0.12621577E-10     -0.10825056E-04     -0.22692923E-15
    0.200861068761         0.98191904E-05     -0.22337731E+00     -0.11919410E-10     -0.42524725E-05     -0.22691187E-15
    0.207137977160         0.10714494E-04      0.88127174E+00     -0.11291987E-10      0.17751879E-04     -0.22745990E-15
    0.213414885559         0.11673124E-04      0.29101817E+01     -0.10710302E-10      0.61987632E-04     -0.22813223E-15
    0.219691793957         0.12698583E-04      0.40742663E+01     -0.10057193E-10      0.91709301E-04     -0.22638141E-15
    0.225968702356         0.13794497E-04      0.43307611E+01     -0.95428077E-11      0.10295426E-03     -0.22685914E-15
    0.232245610755         0.14964614E-04      0.55390152E+01     -0.90995865E-11      0.13898665E-03     -0.22832959E-15
    0.238522519154         0.16212802E-04      0.69218875E+01     -0.86284619E-11      0.18322122E-03     -0.22839396E-15
    0.244799427552         0.17543047E-04      0.77713429E+01     -0.82324757E-11      0.21687688E-03     -0.22974583E-15
    0.251076335951         0.18959448E-04      0.83986874E+01     -0.79221137E-11      0.24697550E-03     -0.23296117E-15
    0.257353244350         0.20466216E-04      0.88130659E+01     -0.73812121E-11      0.27293389E-03     -0.22859048E-15
    0.263630152749         0.22067666E-04      0.93044975E+01     -0.70971284E-11      0.30330306E-03     -0.23134841E-15
    0.269907061148         0.23768218E-04      0.97694253E+01     -0.67976131E-11      0.33502246E-03     -0.23311024E-15
    0.276183969546         0.25572386E-04      0.10262704E+02     -0.65538534E-11      0.37004722E-03     -0.23631542E-15
    0.282460877945         0.27484778E-04      0.10748009E+02     -0.63388913E-11      0.40727192E-03     -0.24019822E-15
    0.288737786344         0.29510084E-04      0.11202260E+02     -0.61506470E-11      0.44585643E-03     -0.24479930E-15
    0.295014694743         0.31653075E-04      0.11589041E+02     -0.53376459E-11      0.48421953E-03     -0.22302039E-15
    0.301291603141         0.33918591E-04      0.11854357E+02     -0.51464651E-11      0.51969832E-03     -0.22562247E-15
    0.307568511540         0.36311537E-04      0.12058829E+02     -0.49861689E-11      0.55440920E-03     -0.22924100E-15
    0.313845419939         0.38836871E-04      0.12177685E+02     -0.48718333E-11      0.58683459E-03     -0.23477043E-15
    0.320122328338         0.41499597E-04      0.12301888E+02     -0.47634472E-11      0.62104378E-03     -0.24047604E-15
    0.326399236737         0.44304758E-04      0.12388602E+02     -0.46659925E-11      0.65485640E-03     -0.24664244E-15
    0.332676145135         0.47257422E-04      0.12505261E+02     -0.45712792E-11      0.69177311E-03     -0.25287660E-15
    0.338953053534         0.50362672E-04      0.12594108E+02     -0.41422241E-11      0.72871743E-03     -0.23967644E-15
    0.345229961933         0.53625599E-04      0.12695684E+02     -0.37034537E-11      0.76796661E-03     -0.22402327E-15
    0.351506870332         0.57051287E-04      0.12761666E+02     -0.36477199E-11      0.80660621E-03     -0.23055559E-15
    0.357783778731         0.60644802E-04      0.12809565E+02     -0.35901722E-11      0.84553163E-03     -0.23697949E-15
    0.364060687129         0.64411179E-04      0.12830305E+02     -0.35375010E-11      0.88398925E-03     -0.24372865E-15
    0.370337595528         0.68355412E-04      0.12815908E+02     -0.34998337E-11      0.92118538E-03     -0.25156201E-15
    0.376614503927         0.72482440E-04      0.12794623E+02     -0.34668049E-11      0.95892754E-03     -0.25982905E-15
    0.382891412326         0.76797129E-04      0.12734138E+02     -0.30836472E-11      0.99462973E-03     -0.24085551E-15
    0.389168320724         0.81304267E-04      0.12694881E+02     -0.30647320E-11      0.10328257E-02     -0.24933939E-15
    0.395445229123         0.86008542E-04      0.12611422E+02     -0.30359974E-11      0.10681736E-02     -0.25714565E-15
    0.401722137522         0.90914532E-04      0.12561736E+02     -0.26726370E-11      0.11070819E-02     -0.23554292E-15
    0.407999045921         0.96026689E-04      0.12465478E+02     -0.26648202E-11      0.11425212E-02     -0.24424364E-15
    0.414275954320         0.10134933E-03      0.12407054E+02     -0.26712586E-11      0.11820133E-02     -0.25448935E-15
    0.420552862718         0.10688660E-03      0.12307417E+02     -0.26712087E-11      0.12181258E-02     -0.26438270E-15
    0.426829771117         0.11264250E-03      0.12241771E+02     -0.23378138E-11      0.12580976E-02     -0.24025920E-15
    0.433106679516         0.11862082E-03      0.12141350E+02     -0.23436180E-11      0.12949576E-02     -0.24996281E-15
    0.439383587915         0.12482516E-03      0.12060295E+02     -0.23564281E-11      0.13342548E-02     -0.26069641E-15
    0.445660496313         0.13125892E-03      0.11966460E+02     -0.23745574E-11      0.13725019E-02     -0.27235159E-15
    0.451937404712         0.13792525E-03      0.11875682E+02     -0.20535143E-11      0.14113886E-02     -0.24405391E-15
    0.458214313111         0.14482706E-03      0.11794958E+02     -0.20819116E-11      0.14517773E-02     -0.25625118E-15
    0.464491221510         0.15196699E-03      0.11696469E+02     -0.21053081E-11      0.14902155E-02     -0.26823162E-15
    0.470768129909         0.15934743E-03      0.11643622E+02     -0.18095575E-11      0.15347890E-02     -0.23852448E-15
    0.477045038307         0.16697047E-03      0.11543780E+02     -0.18342847E-11      0.15734425E-02     -0.25001702E-15
    0.483321946706         0.17483788E-03      0.11549695E+02     -0.18663817E-11      0.16270169E-02     -0.26291903E-15
    0.489598855105         0.18295113E-03      0.11476019E+02     -0.18999108E-11      0.16699693E-02     -0.27647155E-15
    0.495875763504         0.19131136E-03      0.11656549E+02     -0.19448165E-11      0.17512995E-02     -0.29219249E-15
    0.502152671902         0.19991936E-03      0.11701192E+02     -0.19968747E-11      0.18141438E-02     -0.30959393E-15
    0.508429580301         0.20877557E-03      0.12874110E+02     -0.17350386E-11      0.20586789E-02     -0.27744734E-15
    0.514706488700         0.21788006E-03      0.12247679E+02     -0.14318196E-11      0.20189900E-02     -0.23603081E-15
    0.520983397099         0.22723252E-03      0.91226677E+01     -0.17040058E-11      0.15494979E-02     -0.28942777E-15
    0.527260305498         0.23683224E-03      0.91087330E+01     -0.14724041E-11      0.15932953E-02     -0.25755223E-15
    0.533537213896         0.24667813E-03      0.97276755E+01     -0.12477039E-11      0.17514492E-02     -0.22464669E-15
    0.539814122295         0.25676868E-03      0.91782697E+01     -0.15434766E-11      0.17001262E-02     -0.28590411E-15
    0.546091030694         0.26710195E-03      0.88697778E+01     -0.13171616E-11      0.16894576E-02     -0.25088438E-15
    0.552367939093         0.27767559E-03      0.87361605E+01     -0.15980839E-11      0.17102216E-02     -0.31284654E-15
    0.558644847491         0.28848680E-03      0.86668172E+01     -0.13874641E-11      0.17428994E-02     -0.27901943E-15
    0.564921755890         0.29953234E-03      0.84725014E+01     -0.16542905E-11      0.17494020E-02     -0.34157789E-15
    0.571198664289         0.31080855E-03      0.83393965E+01     -0.14451853E-11      0.17671074E-02     -0.30623290E-15
    0.577475572688         0.32231128E-03      0.81910864E+01     -0.17044757E-11      0.17803522E-02     -0.37047188E-15
    0.583752481087         0.33403594E-03      0.80883067E+01     -0.10426665E-11      0.18023728E-02     -0.23234453E-15
    0.590029389485         0.34597750E-03      0.79444365E+01     -0.85512033E-12      0.18140943E-02     -0.19526481E-15
    0.596306297884         0.35813043E-03      0.78347529E+01     -0.11167416E-11      0.18323975E-02     -0.26118430E-15
    0.602583206283         0.37048878E-03      0.77115157E+01     -0.93508211E-12      0.18463768E-02     -0.22388775E-15
    0.608860114682         0.38304611E-03      0.76077726E+01     -0.11868969E-11      0.18638613E-02     -0.29078302E-15
    0.615137023081         0.39579552E-03      0.74918496E+01     -0.10038682E-11      0.18772002E-02     -0.25153490E-15
    0.621413931479         0.40872967E-03      0.73853098E+01     -0.12482665E-11      0.18916746E-02     -0.31973122E-15
    0.627690839878         0.42184075E-03      0.72742636E+01     -0.10721345E-11      0.19037693E-02     -0.28059152E-15
    0.633967748277         0.43512051E-03      0.71693368E+01     -0.13114479E-11      0.19162136E-02     -0.35052256E-15
    0.640244656676         0.44856023E-03      0.70650184E+01     -0.11401014E-11      0.19275722E-02     -0.31105760E-15
    0.646521565074         0.46215079E-03      0.69610035E+01     -0.97643060E-12      0.19377381E-02     -0.27180948E-15
    0.652798473473         0.47588259E-03      0.68612145E+01     -0.12049427E-11      0.19477994E-02     -0.34206579E-15
    0.659075381872         0.48974566E-03      0.67582731E+01     -0.10355958E-11      0.19556619E-02     -0.29967348E-15
    0.665352290271         0.50372956E-03      0.66617706E+01     -0.12613513E-11      0.19640747E-02     -0.37188135E-15
    0.671629198670         0.51782348E-03      0.65597290E+01     -0.73051887E-12      0.19695210E-02     -0.21933410E-15
    0.677906107068         0.53201623E-03      0.64660225E+01     -0.95394470E-12      0.19761281E-02     -0.29154196E-15
    0.684183015467         0.54629619E-03      0.63660423E+01     -0.80545971E-12      0.19794656E-02     -0.25045070E-15
    0.690459923866         0.56065144E-03      0.62750111E+01     -0.66414497E-12      0.19842277E-02     -0.21000996E-15
    0.696736832265         0.57506964E-03      0.61774680E+01     -0.87465860E-12      0.19855678E-02     -0.28113362E-15
    0.703013740663         0.58953818E-03      0.60894114E+01     -0.73704258E-12      0.19885933E-02     -0.24069288E-15
    0.709290649062         0.60404409E-03      0.59956234E+01     -0.94055281E-12      0.19883887E-02     -0.31192497E-15
    0.715567557461         0.61857410E-03      0.59103842E+01     -0.80355792E-12      0.19896622E-02     -0.27050844E-15
    0.721844465860         0.63311469E-03      0.58197035E+01     -0.10030811E-11      0.19877518E-02     -0.34260789E-15
    0.728121374259         0.64765203E-03      0.57367657E+01     -0.87015090E-12      0.19871361E-02     -0.30140820E-15
    0.734398282657         0.66217208E-03      0.56505429E+01     -0.10643631E-11      0.19840469E-02     -0.37372449E-15
    0.740675191056         0.67666057E-03      0.55721398E+01     -0.93070852E-12      0.19823833E-02     -0.33111534E-15
    0.746952099455         0.69110303E-03      0.54917082E+01     -0.80523713E-12      0.19787004E-02     -0.29013250E-15
    0.753229007854         0.70548480E-03      0.54163960E+01     -0.99134072E-12      0.19755752E-02     -0.36158142E-15
    0.759505916252         0.71979107E-03      0.53394918E+01     -0.56316356E-12      0.19705967E-02     -0.20784156E-15
    0.765782824651         0.73400692E-03      0.52667201E+01     -0.74852725E-12      0.19658814E-02     -0.27939890E-15
    0.772059733050         0.74811728E-03      0.51942454E+01     -0.63297046E-12      0.19600348E-02     -0.23884974E-15
    0.778336641449         0.76210702E-03      0.51240518E+01     -0.81264612E-12      0.19538200E-02     -0.30986498E-15
    0.784613549848         0.77596097E-03      0.50549735E+01     -0.69731605E-12      0.19468187E-02     -0.26855688E-15
    0.790890458246         0.78966389E-03      0.49868134E+01     -0.87584997E-12      0.19389723E-02     -0.34054790E-15
    0.797167366645         0.80320056E-03      0.49211086E+01     -0.76292113E-12      0.19309009E-02     -0.29934822E-15
    0.803444275044         0.81655577E-03      0.48548957E+01     -0.65335019E-12      0.19214653E-02     -0.25858222E-15
    0.809721183443         0.82971435E-03      0.47912845E+01     -0.82135854E-12      0.19119107E-02     -0.32775432E-15
    0.815998091842         0.84266121E-03      0.47262115E+01     -0.71660337E-12      0.19006387E-02     -0.28818094E-15
    0.822275000240         0.85538134E-03      0.46644665E+01     -0.88025584E-12      0.18895884E-02     -0.35659409E-15
    0.828551908639         0.86785989E-03      0.46004854E+01     -0.77534370E-12      0.18765325E-02     -0.31626177E-15
    0.834828817038         0.88008214E-03      0.45397099E+01     -0.92856182E-12      0.18637018E-02     -0.38120548E-15
    0.841105725437         0.89203353E-03      0.44760223E+01     -0.82745303E-12      0.18486103E-02     -0.34174052E-15
    0.847382633835         0.90369974E-03      0.44171495E+01     -0.98002555E-12      0.18344642E-02     -0.40700950E-15
    0.853659542234         0.91506666E-03      0.43582184E+01     -0.63373767E-12      0.18192801E-02     -0.26454533E-15
    0.859936450633         0.92612043E-03      0.43027474E+01     -0.54133150E-12      0.18045524E-02     -0.22703193E-15
    0.866213359032         0.93684749E-03      0.42455369E+01     -0.69426401E-12      0.17881304E-02     -0.29240933E-15
    0.872490267431         0.94723458E-03      0.41927488E+01     -0.60264095E-12      0.17726310E-02     -0.25478751E-15
    0.878767175829         0.95726876E-03      0.41410973E+01     -0.74578382E-12      0.17567018E-02     -0.31637019E-15
    0.885044084228         0.96693747E-03      0.40953540E+01     -0.65721215E-12      0.17423984E-02     -0.27961574E-15
    0.891320992627         0.97622851E-03      0.40532022E+01     -0.80021208E-12      0.17287737E-02     -0.34130684E-15
    0.897597901026         0.98513008E-03      0.40163873E+01     -0.71409235E-12      0.17166031E-02     -0.30520291E-15
    0.903874809424         0.99363082E-03      0.39869930E+01     -0.63011720E-12      0.17068085E-02     -0.26974950E-15
    0.910151717823         0.10017198E-02      0.39744692E+01     -0.77482257E-12      0.17034686E-02     -0.33209113E-15
    0.916428626222         0.10093866E-02      0.39730111E+01     -0.69082569E-12      0.17041240E-02     -0.29631245E-15
    0.922705534621         0.10166212E-02      0.39916299E+01     -0.83262053E-12      0.17126509E-02     -0.35724462E-15
    0.928982443020         0.10234142E-02      0.40184750E+01     -0.75235471E-12      0.17239622E-02     -0.32276699E-15
    0.935259351418         0.10297566E-02      0.40894417E+01     -0.90322647E-12      0.17534326E-02     -0.38727702E-15
    0.941536259817         0.10356401E-02      0.41995665E+01     -0.58899597E-12      0.17988659E-02     -0.25229385E-15
    0.947813168216         0.10410567E-02      0.44054730E+01     -0.75180848E-12      0.18843725E-02     -0.32157436E-15
    0.954090076615         0.10459994E-02      0.45980518E+01     -0.66915436E-12      0.19630820E-02     -0.28568727E-15
    0.960366985013         0.10504613E-02      0.48691864E+01     -0.57702739E-12      0.20740621E-02     -0.24578863E-15
    0.966643893412         0.10544364E-02      0.50716817E+01     -0.76492808E-12      0.21544102E-02     -0.32493539E-15
    0.972920801811         0.10579192E-02      0.52698157E+01     -0.66699170E-12      0.22314800E-02     -0.28243467E-15
    0.979197710210         0.10609050E-02      0.53560468E+01     -0.85982001E-12      0.22598157E-02     -0.36277405E-15
    0.985474618609         0.10633895E-02      0.56867690E+01     -0.76578119E-12      0.23896542E-02     -0.32179120E-15
    0.991751527007         0.10653692E-02      0.80064333E+01     -0.11496934E-11      0.33493372E-02     -0.48095208E-15
    0.998028435406         0.10668411E-02      0.94641787E+01     -0.10715075E-11      0.39396921E-02     -0.44604077E-15
    1.004305343805         0.10678029E-02      0.88911227E+01     -0.13606033E-11      0.36813278E-02     -0.56335145E-15
    1.010582252204         0.10682532E-02      0.97415357E+01     -0.12384196E-11      0.40100751E-02     -0.50979186E-15
    1.016859160602         0.10681909E-02      0.11788204E+02     -0.11417614E-11      0.48223449E-02     -0.46707430E-15
