 
 # eight columns.
 # Omega (column 1); |pulse ft|^2 (2); cross section (Mb) (3); flux (5); flux in
 tegral domega (7)
 
  0.0000      0.445563E-06      0.000000E+00      0.000000E+00      0.000000E+00      0.000000E+00      0.000000E+00      0.000000E+00
  0.0063      0.450872E-06     -0.158183E+00      0.209597E-10     -0.704926E-06      0.934045E-16     -0.442034E-08      0.585707E-18
  0.0125      0.466841E-06     -0.147858E+00      0.897372E-10     -0.341125E-06      0.207034E-15     -0.655941E-08      0.188394E-17
  0.0188      0.493600E-06     -0.175154E-01      0.150709E-09     -0.284842E-07      0.245088E-15     -0.673803E-08      0.342080E-17
  0.0251      0.531365E-06      0.179976E-02      0.191054E-09      0.236307E-08      0.250854E-15     -0.672321E-08      0.499382E-17
  0.0314      0.580441E-06      0.328146E-01      0.216835E-09      0.376519E-07      0.248799E-15     -0.648711E-08      0.655395E-17
  0.0376      0.641220E-06      0.678967E-01      0.241676E-09      0.717191E-07      0.255281E-15     -0.603738E-08      0.815473E-17
  0.0439      0.714180E-06      0.101910E+00      0.251834E-09      0.102768E-06      0.253954E-15     -0.539296E-08      0.974719E-17
  0.0502      0.799893E-06      0.489440E-01      0.256505E-09      0.483695E-07      0.253495E-15     -0.508965E-08      0.113368E-16
  0.0564      0.899019E-06     -0.146483E-02      0.253856E-09     -0.144625E-08      0.250637E-15     -0.509872E-08      0.129084E-16
  0.0627      0.101231E-05      0.350419E-01      0.250838E-09      0.350616E-07      0.250979E-15     -0.487886E-08      0.144822E-16
  0.0690      0.114061E-05      0.623193E-01      0.244878E-09      0.638702E-07      0.250973E-15     -0.447835E-08      0.160560E-16
  0.0752      0.128487E-05      0.495597E-01      0.236290E-09      0.524488E-07      0.250065E-15     -0.414947E-08      0.176240E-16
  0.0815      0.144611E-05      0.413223E-01      0.228040E-09      0.454331E-07      0.250726E-15     -0.386457E-08      0.191963E-16
  0.0878      0.162548E-05      0.393834E-01      0.216951E-09      0.451956E-07      0.248969E-15     -0.358116E-08      0.207575E-16
  0.0941      0.182420E-05      0.374677E-01      0.208813E-09      0.450369E-07      0.250997E-15     -0.329875E-08      0.223314E-16
  0.1003      0.204362E-05      0.353641E-01      0.198895E-09      0.446450E-07      0.251093E-15     -0.301880E-08      0.239059E-16
  0.1066      0.228517E-05      0.329885E-01      0.188407E-09      0.438292E-07      0.250321E-15     -0.274396E-08      0.254755E-16
  0.1129      0.255041E-05      0.300408E-01      0.179096E-09      0.420707E-07      0.250815E-15     -0.248015E-08      0.270483E-16
  0.1191      0.284097E-05      0.276406E-01      0.169957E-09      0.408500E-07      0.251179E-15     -0.222400E-08      0.286234E-16
  0.1254      0.315864E-05      0.255545E-01      0.160516E-09      0.398903E-07      0.250563E-15     -0.197386E-08      0.301946E-16
  0.1317      0.350527E-05      0.241279E-01      0.152271E-09      0.398063E-07      0.251217E-15     -0.172425E-08      0.317699E-16
  0.1380      0.388285E-05      0.246584E-01      0.144130E-09      0.430154E-07      0.251428E-15     -0.145452E-08      0.333465E-16
  0.1442      0.429349E-05      0.252995E-01      0.135990E-09      0.466794E-07      0.250911E-15     -0.116180E-08      0.349198E-16
  0.1505      0.473940E-05      0.243789E-01      0.128869E-09      0.475835E-07      0.251532E-15     -0.863426E-09      0.364971E-16
  0.1568      0.522292E-05      0.233316E-01      0.121896E-09      0.481780E-07      0.251707E-15     -0.561319E-09      0.380755E-16
  0.1630      0.574649E-05      0.229293E-01      0.114962E-09      0.500901E-07      0.251139E-15     -0.247222E-09      0.396503E-16
  0.1693      0.631270E-05      0.220835E-01      0.108856E-09      0.510329E-07      0.251555E-15      0.727869E-10      0.412277E-16
  0.1756      0.692424E-05      0.229872E-01      0.102924E-09      0.561863E-07      0.251570E-15      0.425111E-09      0.428052E-16
  0.1818      0.758392E-05      0.242770E-01      0.971652E-10      0.627510E-07      0.251152E-15      0.818601E-09      0.443801E-16
  0.1881      0.829468E-05      0.390586E-01      0.919786E-10      0.106740E-06      0.251360E-15      0.148793E-08      0.459563E-16
  0.1944      0.905960E-05      0.904543E-01      0.871816E-10      0.261280E-06      0.251827E-15      0.312632E-08      0.475354E-16
  0.2007      0.988184E-05      0.502857E+00      0.822619E-10      0.153484E-05      0.251083E-15      0.127507E-07      0.491098E-16
  0.2069      0.107647E-04      0.271251E+01      0.780078E-10      0.874563E-05      0.251511E-15      0.675915E-07      0.506870E-16
  0.2132      0.117117E-04      0.669212E+01      0.739438E-10      0.227843E-04      0.251752E-15      0.210464E-06      0.522656E-16
  0.2195      0.127263E-04      0.901510E+01      0.700081E-10      0.323992E-04      0.251601E-15      0.413627E-06      0.538433E-16
  0.2257      0.138121E-04      0.961650E+01      0.662531E-10      0.364675E-04      0.251244E-15      0.642302E-06      0.554188E-16
  0.2320      0.149731E-04      0.117672E+02      0.627534E-10      0.470668E-04      0.251002E-15      0.937441E-06      0.569927E-16
  0.2383      0.162130E-04      0.146252E+02      0.594483E-10      0.616756E-04      0.250698E-15      0.132419E-05      0.585648E-16
  0.2446      0.175360E-04      0.164725E+02      0.564326E-10      0.732074E-04      0.250800E-15      0.178324E-05      0.601374E-16
  0.2508      0.189461E-04      0.176159E+02      0.534839E-10      0.824696E-04      0.250388E-15      0.230038E-05      0.617075E-16
  0.2571      0.204475E-04      0.184244E+02      0.507753E-10      0.908197E-04      0.250288E-15      0.286988E-05      0.632770E-16
  0.2634      0.220447E-04      0.192920E+02      0.481039E-10      0.100083E-03      0.249555E-15      0.349747E-05      0.648419E-16
  0.2696      0.237420E-04      0.202189E+02      0.455529E-10      0.110341E-03      0.248597E-15      0.418938E-05      0.664007E-16
  0.2759      0.255441E-04      0.211817E+02      0.436510E-10      0.121543E-03      0.250474E-15      0.495153E-05      0.679714E-16
  0.2822      0.274554E-04      0.221665E+02      0.413686E-10      0.133673E-03      0.249469E-15      0.578974E-05      0.695357E-16
  0.2884      0.294807E-04      0.230959E+02      0.392008E-10      0.146300E-03      0.248317E-15      0.670714E-05      0.710928E-16
  0.2947      0.316249E-04      0.238717E+02      0.377085E-10      0.158761E-03      0.250784E-15      0.770268E-05      0.726654E-16
  0.3010      0.338927E-04      0.244177E+02      0.357188E-10      0.170412E-03      0.249283E-15      0.877127E-05      0.742286E-16
  0.3073      0.362891E-04      0.247854E+02      0.338571E-10      0.181429E-03      0.247834E-15      0.990895E-05      0.757826E-16
  0.3135      0.388191E-04      0.250186E+02      0.327383E-10      0.191986E-03      0.251224E-15      0.111128E-04      0.773580E-16
  0.3198      0.414877E-04      0.252127E+02      0.310112E-10      0.202721E-03      0.249344E-15      0.123840E-04      0.789215E-16
  0.3261      0.442999E-04      0.253875E+02      0.293979E-10      0.213772E-03      0.247540E-15      0.137245E-04      0.804738E-16
  0.3323      0.472608E-04      0.255833E+02      0.278100E-10      0.225483E-03      0.245107E-15      0.151384E-04      0.820107E-16
  0.3386      0.503756E-04      0.257732E+02      0.270459E-10      0.237644E-03      0.249378E-15      0.166286E-04      0.835745E-16
  0.3449      0.536495E-04      0.259586E+02      0.256331E-10      0.250273E-03      0.247135E-15      0.181980E-04      0.851242E-16
  0.3512      0.570874E-04      0.260989E+02      0.242568E-10      0.262969E-03      0.244409E-15      0.198470E-04      0.866568E-16
  0.3574      0.606946E-04      0.261890E+02      0.237079E-10      0.275629E-03      0.249516E-15      0.215753E-04      0.882214E-16
  0.3637      0.644761E-04      0.262210E+02      0.224985E-10      0.288105E-03      0.247204E-15      0.233819E-04      0.897716E-16
  0.3700      0.684370E-04      0.261937E+02      0.212909E-10      0.300308E-03      0.244098E-15      0.252651E-04      0.913022E-16
  0.3762      0.725824E-04      0.261229E+02      0.201641E-10      0.312343E-03      0.241095E-15      0.272237E-04      0.928140E-16
  0.3825      0.769172E-04      0.260118E+02      0.198377E-10      0.324187E-03      0.247238E-15      0.292565E-04      0.943644E-16
  0.3888      0.814462E-04      0.258926E+02      0.187945E-10      0.336191E-03      0.244029E-15      0.313646E-04      0.958946E-16
  0.3951      0.861743E-04      0.257456E+02      0.185540E-10      0.348074E-03      0.250845E-15      0.335473E-04      0.974675E-16
  0.4013      0.911063E-04      0.256012E+02      0.176123E-10      0.360213E-03      0.247808E-15      0.358061E-04      0.990215E-16
  0.4076      0.962467E-04      0.254325E+02      0.166940E-10      0.372214E-03      0.244322E-15      0.381401E-04      0.100554E-15
  0.4139      0.101600E-03      0.252725E+02      0.158207E-10      0.384528E-03      0.240716E-15      0.405513E-04      0.102063E-15
  0.4201      0.107170E-03      0.250951E+02      0.149909E-10      0.396752E-03      0.237006E-15      0.430392E-04      0.103549E-15
  0.4264      0.112962E-03      0.249289E+02      0.148928E-10      0.409316E-03      0.244529E-15      0.456059E-04      0.105082E-15
  0.4327      0.118980E-03      0.247406E+02      0.141339E-10      0.421662E-03      0.240888E-15      0.482500E-04      0.106593E-15
  0.4389      0.125226E-03      0.245573E+02      0.140919E-10      0.434220E-03      0.249171E-15      0.509728E-04      0.108155E-15
  0.4452      0.131706E-03      0.243650E+02      0.133660E-10      0.446729E-03      0.245064E-15      0.537741E-04      0.109692E-15
  0.4515      0.138422E-03      0.241820E+02      0.126714E-10      0.459511E-03      0.240785E-15      0.566555E-04      0.111202E-15
  0.4578      0.145378E-03      0.239948E+02      0.120136E-10      0.472307E-03      0.236471E-15      0.596172E-04      0.112685E-15
  0.4640      0.152576E-03      0.238231E+02      0.113733E-10      0.485494E-03      0.231777E-15      0.626616E-04      0.114138E-15
  0.4703      0.160020E-03      0.236621E+02      0.114523E-10      0.498995E-03      0.241510E-15      0.657906E-04      0.115653E-15
  0.4766      0.167711E-03      0.235297E+02      0.108544E-10      0.513211E-03      0.236747E-15      0.690087E-04      0.117137E-15
  0.4828      0.175653E-03      0.234418E+02      0.109408E-10      0.528549E-03      0.246686E-15      0.723231E-04      0.118684E-15
  0.4891      0.183846E-03      0.234551E+02      0.103846E-10      0.546422E-03      0.241924E-15      0.757495E-04      0.120201E-15
  0.4954      0.192293E-03      0.236450E+02      0.983190E-11      0.568860E-03      0.236540E-15      0.793166E-04      0.121684E-15
  0.5017      0.200995E-03      0.243919E+02      0.927656E-11      0.605719E-03      0.230362E-15      0.831149E-04      0.123129E-15
  0.5079      0.209952E-03      0.282485E+02      0.858498E-11      0.723702E-03      0.219940E-15      0.876529E-04      0.124508E-15
  0.5142      0.219165E-03      0.309076E+02      0.878938E-11      0.816495E-03      0.232192E-15      0.927729E-04      0.125964E-15
  0.5205      0.228635E-03      0.272050E+02      0.835315E-11      0.740704E-03      0.227429E-15      0.974176E-04      0.127390E-15
  0.5267      0.238361E-03      0.259378E+02      0.790458E-11      0.727478E-03      0.221700E-15      0.101979E-03      0.128780E-15
  0.5330      0.248343E-03      0.334868E+02      0.705574E-11      0.967025E-03      0.203754E-15      0.108043E-03      0.130058E-15
  0.5393      0.258580E-03      0.400732E+02      0.613615E-11      0.119092E-02      0.182357E-15      0.115511E-03      0.131202E-15
  0.5455      0.269071E-03      0.374092E+02      0.785086E-11      0.114355E-02      0.239991E-15      0.122682E-03      0.132706E-15
  0.5518      0.279813E-03      0.331214E+02      0.738586E-11      0.104094E-02      0.232123E-15      0.129209E-03      0.134162E-15
  0.5581      0.290805E-03      0.326984E+02      0.690106E-11      0.105601E-02      0.222874E-15      0.135831E-03      0.135560E-15
  0.5644      0.302045E-03      0.326945E+02      0.640680E-11      0.108451E-02      0.212520E-15      0.142632E-03      0.136892E-15
  0.5706      0.313528E-03      0.319807E+02      0.595493E-11      0.108906E-02      0.202788E-15      0.149461E-03      0.138164E-15
  0.5769      0.325252E-03      0.309525E+02      0.555448E-11      0.108158E-02      0.194091E-15      0.156243E-03      0.139381E-15
  0.5832      0.337213E-03      0.300427E+02      0.686399E-11      0.107669E-02      0.245996E-15      0.162995E-03      0.140923E-15
  0.5894      0.349406E-03      0.292765E+02      0.644018E-11      0.107560E-02      0.236609E-15      0.169739E-03      0.142407E-15
  0.5957      0.361827E-03      0.284836E+02      0.603957E-11      0.107227E-02      0.227360E-15      0.176463E-03      0.143833E-15
  0.6020      0.374470E-03      0.277605E+02      0.565898E-11      0.107029E-02      0.218180E-15      0.183174E-03      0.145201E-15
  0.6083      0.387330E-03      0.271247E+02      0.529025E-11      0.107055E-02      0.208793E-15      0.189887E-03      0.146510E-15
  0.6145      0.400400E-03      0.265543E+02      0.494641E-11      0.107234E-02      0.199751E-15      0.196612E-03      0.147763E-15
  0.6208      0.413674E-03      0.259674E+02      0.460424E-11      0.107247E-02      0.190157E-15      0.203337E-03      0.148955E-15
  0.6271      0.427145E-03      0.254003E+02      0.572697E-11      0.107237E-02      0.241786E-15      0.210061E-03      0.150471E-15
  0.6333      0.440805E-03      0.248579E+02      0.539378E-11      0.107231E-02      0.232675E-15      0.216785E-03      0.151930E-15
  0.6396      0.454646E-03      0.243191E+02      0.505889E-11      0.107140E-02      0.222874E-15      0.223504E-03      0.153328E-15
  0.6459      0.468659E-03      0.237794E+02      0.475315E-11      0.106943E-02      0.213763E-15      0.230210E-03      0.154668E-15
  0.6521      0.482836E-03      0.232479E+02      0.446133E-11      0.106680E-02      0.204721E-15      0.236899E-03      0.155952E-15
  0.6584      0.497167E-03      0.227303E+02      0.417676E-11      0.106377E-02      0.195472E-15      0.243570E-03      0.157178E-15
  0.6647      0.511642E-03      0.222377E+02      0.390772E-11      0.106092E-02      0.186430E-15      0.250222E-03      0.158347E-15
  0.6710      0.526252E-03      0.217667E+02      0.488579E-11      0.105812E-02      0.237506E-15      0.256857E-03      0.159836E-15
  0.6772      0.540984E-03      0.213168E+02      0.460895E-11      0.105539E-02      0.228188E-15      0.263475E-03      0.161267E-15
  0.6835      0.555829E-03      0.208788E+02      0.434525E-11      0.105233E-02      0.219008E-15      0.270074E-03      0.162640E-15
  0.6898      0.570774E-03      0.204535E+02      0.409534E-11      0.104898E-02      0.210035E-15      0.276652E-03      0.163957E-15
  0.6960      0.585808E-03      0.200342E+02      0.385053E-11      0.104505E-02      0.200855E-15      0.283205E-03      0.165217E-15
  0.7023      0.600919E-03      0.196262E+02      0.361441E-11      0.104079E-02      0.191675E-15      0.289732E-03      0.166419E-15
  0.7086      0.616093E-03      0.192238E+02      0.449060E-11      0.103594E-02      0.241993E-15      0.296228E-03      0.167936E-15
  0.7149      0.631317E-03      0.188308E+02      0.425211E-11      0.103072E-02      0.232744E-15      0.302691E-03      0.169396E-15
  0.7211      0.646579E-03      0.184430E+02      0.402546E-11      0.102491E-02      0.223702E-15      0.309118E-03      0.170799E-15
  0.7274      0.661864E-03      0.180660E+02      0.381370E-11      0.101883E-02      0.215074E-15      0.315507E-03      0.172147E-15
  0.7337      0.677159E-03      0.176982E+02      0.360405E-11      0.101243E-02      0.206170E-15      0.321855E-03      0.173440E-15
  0.7399      0.692448E-03      0.173438E+02      0.340465E-11      0.100596E-02      0.197473E-15      0.328163E-03      0.174678E-15
  0.7462      0.707718E-03      0.169999E+02      0.321382E-11      0.999285E-03      0.188914E-15      0.334429E-03      0.175863E-15
  0.7525      0.722954E-03      0.166648E+02      0.303111E-11      0.992342E-03      0.180494E-15      0.340652E-03      0.176995E-15
  0.7587      0.738140E-03      0.163380E+02      0.378107E-11      0.985107E-03      0.227981E-15      0.346829E-03      0.178424E-15
  0.7650      0.753262E-03      0.160191E+02      0.359667E-11      0.977587E-03      0.219491E-15      0.352959E-03      0.179801E-15
  0.7713      0.768303E-03      0.157093E+02      0.341430E-11      0.969872E-03      0.210795E-15      0.359041E-03      0.181123E-15
  0.7776      0.783248E-03      0.154046E+02      0.324371E-11      0.961744E-03      0.202512E-15      0.365072E-03      0.182392E-15
  0.7838      0.798081E-03      0.151073E+02      0.308331E-11      0.953357E-03      0.194574E-15      0.371050E-03      0.183612E-15
  0.7901      0.812787E-03      0.148145E+02      0.376191E-11      0.944549E-03      0.239853E-15      0.376973E-03      0.185117E-15
  0.7964      0.827349E-03      0.145318E+02      0.359533E-11      0.935698E-03      0.231501E-15      0.382840E-03      0.186568E-15
  0.8026      0.841750E-03      0.142531E+02      0.343739E-11      0.926433E-03      0.223426E-15      0.388650E-03      0.187969E-15
  0.8089      0.855976E-03      0.139803E+02      0.328038E-11      0.916892E-03      0.215143E-15      0.394399E-03      0.189318E-15
  0.8152      0.870010E-03      0.137082E+02      0.313040E-11      0.906759E-03      0.207067E-15      0.400085E-03      0.190617E-15
  0.8215      0.883835E-03      0.134415E+02      0.299129E-11      0.896351E-03      0.199475E-15      0.405706E-03      0.191868E-15
  0.8277      0.897435E-03      0.131752E+02      0.285340E-11      0.885355E-03      0.191744E-15      0.411257E-03      0.193070E-15
  0.8340      0.910794E-03      0.129123E+02      0.272272E-11      0.873985E-03      0.184290E-15      0.416738E-03      0.194226E-15
  0.8403      0.923897E-03      0.126499E+02      0.259895E-11      0.862061E-03      0.177112E-15      0.422144E-03      0.195336E-15
  0.8465      0.936727E-03      0.123915E+02      0.247882E-11      0.849832E-03      0.170002E-15      0.427473E-03      0.196402E-15
  0.8528      0.949269E-03      0.121393E+02      0.305748E-11      0.837480E-03      0.210933E-15      0.432724E-03      0.197725E-15
  0.8591      0.961506E-03      0.118942E+02      0.293529E-11      0.825081E-03      0.203616E-15      0.437898E-03      0.199002E-15
  0.8653      0.973424E-03      0.116532E+02      0.281953E-11      0.812453E-03      0.196576E-15      0.442993E-03      0.200234E-15
  0.8716      0.985007E-03      0.114138E+02      0.270605E-11      0.799440E-03      0.189536E-15      0.448006E-03      0.201423E-15
  0.8779      0.996240E-03      0.111822E+02      0.323747E-11      0.786494E-03      0.227705E-15      0.452937E-03      0.202851E-15
  0.8842      0.100711E-02      0.109569E+02      0.312275E-11      0.773524E-03      0.220458E-15      0.457788E-03      0.204233E-15
  0.8904      0.101760E-02      0.107453E+02      0.301211E-11      0.761094E-03      0.213348E-15      0.462560E-03      0.205571E-15
  0.8967      0.102769E-02      0.105413E+02      0.290830E-11      0.748776E-03      0.206584E-15      0.467256E-03      0.206866E-15
  0.9030      0.103738E-02      0.103598E+02      0.280531E-11      0.737663E-03      0.199751E-15      0.471881E-03      0.208119E-15
  0.9092      0.104665E-02      0.102017E+02      0.270787E-11      0.727847E-03      0.193194E-15      0.476445E-03      0.209330E-15
  0.9155      0.105549E-02      0.100812E+02      0.261195E-11      0.720354E-03      0.186637E-15      0.480962E-03      0.210501E-15
