 
 # Omega; pulse ft; projected flux at t=    200.250000000000     
    0.000000000000         0.32424486E-08      0.00000000E+00      0.00000000E+00     -0.58991739E-02     -0.54562474E-16
    0.015668791290         0.10964870E-06     -0.13116660E+04     -0.20158580E-10     -0.35744875E-02     -0.54935169E-16
    0.031337582579         0.43337014E-06     -0.16159106E+03     -0.10177212E-10     -0.87022861E-03     -0.54808114E-16
    0.047006373869         0.98799011E-06     -0.44877853E+02     -0.66651241E-11     -0.36732498E-03     -0.54554004E-16
    0.062675165159         0.17963946E-05     -0.16956352E+02     -0.49722392E-11     -0.18926104E-03     -0.55498446E-16
    0.078343956449         0.28911298E-05     -0.72892937E+01     -0.38179461E-11     -0.10475387E-03     -0.54867406E-16
    0.094012747738         0.43148763E-05     -0.31634131E+01     -0.30494944E-11     -0.56540553E-04     -0.54504453E-16
    0.109681539028         0.61210155E-05     -0.11430451E+01     -0.25186523E-11     -0.24841388E-04     -0.54736963E-16
    0.125350330318         0.83742565E-05     -0.37923524E-01     -0.21027717E-11     -0.98662475E-06     -0.54706060E-16
    0.141019121608         0.11151287E-04      0.64311620E+00     -0.17802019E-11      0.19804277E-04     -0.54819972E-16
    0.156687912897         0.14541411E-04      0.11582341E+01     -0.15102849E-11      0.41859104E-04     -0.54582380E-16
    0.172356704187         0.18647120E-04      0.18321448E+01     -0.13076798E-11      0.77190867E-04     -0.55094411E-16
    0.188025495477         0.23584570E-04      0.33443269E+01     -0.11160472E-11      0.16335879E-03     -0.54515040E-16
    0.203694286766         0.29483904E-04      0.63034989E+01     -0.95896157E-12      0.35531240E-03     -0.54054255E-16
    0.219363078056         0.36489373E-04      0.10391344E+02     -0.80401704E-12      0.67312717E-03     -0.52082362E-16
    0.235031869346         0.44759239E-04      0.14228603E+02     -0.74924812E-12      0.10552145E-02     -0.55565361E-16
    0.250700660636         0.54465379E-04      0.16646711E+02     -0.61961105E-12      0.14083676E-02     -0.52421175E-16
    0.266369451925         0.65792604E-04      0.18169265E+02     -0.49314329E-12      0.17476424E-02     -0.47433845E-16
    0.282038243215         0.78937621E-04      0.19682422E+02     -0.52025156E-12      0.21452460E-02     -0.56703774E-16
    0.297707034505         0.94107649E-04      0.20871078E+02     -0.41307104E-12      0.25692316E-02     -0.50849082E-16
    0.313375825794         0.11151866E-03      0.21507724E+02     -0.31176976E-12      0.29805682E-02     -0.43205457E-16
    0.329044617084         0.13139326E-03      0.21913458E+02     -0.52918950E-12      0.34076246E-02     -0.82290945E-16
    0.344713408374         0.15395814E-03      0.22118595E+02     -0.44259000E-12      0.38470210E-02     -0.76978354E-16
    0.360382199664         0.17944129E-03      0.22075484E+02     -0.35785630E-12      0.42804735E-02     -0.69388939E-16
    0.376050990953         0.20806873E-03      0.21836906E+02     -0.27775810E-12      0.47051527E-02     -0.59847960E-16
    0.391719782243         0.24006107E-03      0.21385795E+02     -0.20261722E-12      0.51038062E-02     -0.48355417E-16
    0.407388573533         0.27562974E-03      0.20859705E+02     -0.13332620E-12      0.54960155E-02     -0.35128150E-16
    0.423057364823         0.31497306E-03      0.20247834E+02     -0.69554707E-13      0.58705024E-02     -0.20166160E-16
    0.438726156112         0.35827208E-03      0.19530524E+02     -0.11591702E-13      0.62109192E-02     -0.36862874E-17
    0.454394947402         0.40568646E-03      0.18837545E+02     -0.22701894E-12      0.65494354E-02     -0.78929918E-16
    0.470063738692         0.45735023E-03      0.17999393E+02     -0.16882921E-12      0.68198142E-02     -0.63967928E-16
    0.485732529981         0.51336767E-03      0.17285333E+02     -0.11643369E-12      0.71142908E-02     -0.47921736E-16
    0.501401321271         0.57380931E-03      0.16430677E+02     -0.69091394E-13      0.73225125E-02     -0.30791342E-16
    0.517070112561         0.63870815E-03      0.14947574E+02     -0.30202264E-13      0.71902879E-02     -0.14528309E-16
    0.532738903851         0.70805623E-03      0.13897559E+02      0.54463776E-14      0.71930722E-02      0.28189256E-17
    0.548407695140         0.78180143E-03      0.13389782E+02      0.38668738E-13      0.74334251E-02      0.21467203E-16
    0.564076486430         0.85984493E-03      0.12737649E+02     -0.11177817E-12      0.75612562E-02     -0.66353173E-16
    0.579745277720         0.94203900E-03      0.12138303E+02     -0.77445199E-13      0.76809015E-02     -0.49005938E-16
    0.595414069010         0.10281855E-02      0.11552629E+02     -0.47078021E-13      0.77688325E-02     -0.31658703E-16
    0.611082860299         0.11180349E-02      0.10984200E+02     -0.18869229E-13      0.78261152E-02     -0.13444107E-16
    0.626751651589         0.12112861E-02      0.10459099E+02      0.74910007E-14      0.78716914E-02      0.56378513E-17
    0.642420442879         0.13075868E-02      0.99259478E+01     -0.11052179E-12      0.78676622E-02     -0.87603536E-16
    0.658089234168         0.14065349E-02      0.94397093E+01     -0.21727915E-12      0.78568215E-02     -0.18084492E-15
    0.673758025458         0.15076802E-02      0.89583096E+01     -0.59222863E-13      0.78064556E-02     -0.51608023E-16
    0.689426816748         0.16105273E-02      0.85166013E+01     -0.15827265E-12      0.77476285E-02     -0.14398205E-15
    0.705095608038         0.17145389E-02      0.80899165E+01     -0.17403315E-13      0.76606553E-02     -0.16479873E-16
    0.720764399327         0.18191400E-02      0.76868144E+01     -0.10854505E-12      0.75551264E-02     -0.10668549E-15
    0.736433190617         0.19237225E-02      0.73094051E+01      0.17052915E-13      0.74355595E-02      0.17347235E-16
    0.752101981907         0.20276510E-02      0.69444491E+01     -0.66918510E-13      0.72908274E-02     -0.70256301E-16
    0.767770773197         0.21302682E-02      0.66107475E+01     -0.14369049E-12      0.71429208E-02     -0.15525775E-15
    0.783439564486         0.22309019E-02      0.62810601E+01     -0.33633434E-13      0.69651497E-02     -0.37296555E-16
    0.799108355776         0.23288711E-02      0.59815948E+01     -0.10470285E-12      0.67885859E-02     -0.11882856E-15
    0.814777147066         0.24234939E-02      0.56876771E+01     -0.63649287E-14      0.65881060E-02     -0.73725748E-17
    0.830445938355         0.25140943E-02      0.54130300E+01     -0.72467580E-13      0.63816528E-02     -0.85435131E-16
    0.846114729645         0.26000094E-02      0.51533033E+01      0.15221286E-13      0.61667155E-02      0.18214596E-16
    0.861783520935         0.26805976E-02      0.49054700E+01     -0.45827298E-13      0.59420541E-02     -0.55511151E-16
    0.877452312225         0.27552450E-02      0.46916838E+01      0.32273972E-13      0.57370413E-02      0.39464959E-16
    0.893121103514         0.28233730E-02      0.44792365E+01     -0.24659703E-13      0.55142246E-02     -0.30357661E-16
    0.908789894804         0.28844451E-02      0.43108245E+01     -0.75788392E-13      0.53282141E-02     -0.93675068E-16
    0.924458686094         0.29379726E-02      0.41206565E+01     -0.12334744E-12      0.50997535E-02     -0.15265567E-15
    0.940127477383         0.29835211E-02      0.39166429E+01     -0.54392253E-13      0.48403737E-02     -0.67220535E-16
    0.955796268673         0.30207155E-02      0.34518203E+01     -0.95317028E-13      0.42483004E-02     -0.11731068E-15
    0.971465059963         0.30492444E-02      0.31657604E+01     -0.38495717E-13      0.38695961E-02     -0.47054374E-16
    0.987133851253         0.30688638E-02      0.41845115E+01     -0.87046722E-13      0.50660432E-02     -0.10538445E-15
    1.002802642542         0.30794005E-02      0.50460867E+01     -0.11967707E-13      0.60343147E-02     -0.14311469E-16
    1.018471433832         0.30807537E-02      0.42984516E+01     -0.69582718E-13      0.50634056E-02     -0.81965684E-16
    1.034140225122         0.30728968E-02      0.31409357E+01     -0.11993036E-13      0.36345457E-02     -0.13877788E-16
    1.049809016412         0.30558772E-02      0.23454589E+01     -0.49926673E-13      0.26587407E-02     -0.56595353E-16
    1.065477807701         0.30298164E-02      0.19691147E+01     -0.18308697E-13      0.21805470E-02     -0.20274581E-16
    1.081146598991         0.29949078E-02      0.18903036E+01     -0.43418279E-13      0.20391678E-02     -0.46837534E-16
    1.096815390281         0.29514152E-02      0.18330010E+01     -0.14278087E-13      0.19207995E-02     -0.14961990E-16
    1.112484181570         0.28996694E-02      0.17598133E+01     -0.88656623E-13      0.17862563E-02     -0.89988780E-16
    1.128152972860         0.28400639E-02      0.17675806E+01     -0.61268519E-13      0.17328537E-02     -0.60064800E-16
    1.143821764150         0.27730509E-02      0.18314430E+01     -0.85784504E-13      0.17290814E-02     -0.80989902E-16
    1.159490555440         0.26991358E-02      0.17211637E+01     -0.57527471E-13      0.15602790E-02     -0.52150124E-16
    1.175159346729         0.26188713E-02      0.15775902E+01     -0.79581068E-13      0.13690967E-02     -0.69063678E-16
    1.190828138019         0.25328511E-02      0.15101070E+01     -0.56547173E-13      0.12508085E-02     -0.46837534E-16
    1.206496929309         0.24417034E-02      0.14373524E+01     -0.78001708E-13      0.11327981E-02     -0.61474263E-16
    1.222165720599         0.23460834E-02      0.13455379E+01     -0.58666868E-13      0.10058468E-02     -0.43855978E-16
    1.237834511888         0.22466669E-02      0.12461859E+01     -0.78998504E-13      0.88080844E-03     -0.55836412E-16
    1.253503303178         0.21441421E-02      0.11704540E+01     -0.63640913E-13      0.77965952E-03     -0.42392305E-16
    1.269172094468         0.20392031E-02      0.10973997E+01     -0.83174269E-13      0.68663725E-03     -0.52041704E-16
    1.284840885757         0.19325423E-02      0.10405113E+01     -0.10189794E-12      0.60946534E-03     -0.59685330E-16
    1.300509677047         0.18248433E-02      0.97791784E+00     -0.64584267E-13      0.53436364E-03     -0.35290781E-16
    1.316178468337         0.17167746E-02      0.91136277E+00     -0.13681927E-12      0.46292680E-03     -0.69497359E-16
    1.331847259627         0.16089830E-02      0.87599551E+00     -0.10549188E-12      0.41211788E-03     -0.49629354E-16
    1.347516050916         0.15020878E-02      0.91008962E+00     -0.12475612E-12      0.39506456E-03     -0.54155899E-16
    1.363184842206         0.13966754E-02      0.95136702E+00     -0.14843573E-12      0.37958703E-03     -0.59224544E-16
    1.378853633496         0.12932946E-02      0.94555882E+00     -0.17171641E-12      0.34537459E-03     -0.62721096E-16
    1.394522424785         0.11924522E-02      0.92069922E+00     -0.14366698E-12      0.30658845E-03     -0.47840421E-16
    1.410191216075         0.10946098E-02      0.87578308E+00     -0.17010369E-12      0.26472833E-03     -0.51418288E-16
    1.425860007365         0.10001807E-02      0.82186037E+00     -0.20212367E-12      0.22450302E-03     -0.55212996E-16
    1.441528798655         0.90952796E-03      0.76041216E+00     -0.23414382E-12      0.18683762E-03     -0.57530478E-16
    1.457197589944         0.82296262E-03      0.72492241E+00     -0.22565991E-12      0.15943209E-03     -0.49629354E-16
    1.472866381234         0.74074333E-03      0.70372944E+00     -0.26585859E-12      0.13782648E-03     -0.52068809E-16
    1.488535172524         0.66307610E-03      0.68954284E+00     -0.31293217E-12      0.11961567E-03     -0.54284648E-16
    1.504203963814         0.59011483E-03      0.68178404E+00     -0.36370711E-12      0.10415957E-03     -0.55565361E-16
    1.519872755103         0.52196262E-03      0.67456418E+00     -0.41968480E-12      0.90214842E-04     -0.56127791E-16
    1.535541546393         0.45867341E-03      0.66210703E+00     -0.48624614E-12      0.77018089E-04     -0.56561472E-16
    1.551210337683         0.40025437E-03      0.64842220E+00     -0.53727567E-12      0.65154708E-04     -0.53986492E-16
    1.566879128972         0.34666855E-03      0.64859932E+00     -0.62320835E-12      0.55882778E-04     -0.53695113E-16
    1.582547920262         0.29783814E-03      0.65439763E+00     -0.75126716E-12      0.47960941E-04     -0.55060530E-16
    1.598216711552         0.25364785E-03      0.67798857E+00     -0.89582021E-12      0.41902549E-04     -0.55365462E-16
    1.613885502842         0.21394880E-03      0.70325885E+00     -0.10443659E-11      0.36305706E-04     -0.53915341E-16
    1.629554294131         0.17856242E-03      0.74364048E+00     -0.12577639E-11      0.31732683E-04     -0.53671396E-16
    1.645223085421         0.14728458E-03      0.80778490E+00     -0.16134877E-11      0.28161174E-04     -0.56249764E-16
    1.660891876711         0.11988983E-03      0.90951085E+00     -0.19553654E-11      0.25566508E-04     -0.54965662E-16
    1.676560668001         0.96135559E-04      0.10159102E+01     -0.24716144E-11      0.22685201E-04     -0.55190973E-16
    1.692229459290         0.75766166E-04      0.11239483E+01     -0.31140081E-11      0.19596790E-04     -0.54294812E-16
    1.707898250580         0.58517107E-04      0.12822292E+01     -0.41042979E-11      0.17108386E-04     -0.54762374E-16
    1.723567041870         0.44118776E-04      0.15388482E+01     -0.54629335E-11      0.15339585E-04     -0.54455748E-16
    1.739235833159         0.32300184E-04      0.19574502E+01     -0.76306054E-11      0.14156627E-04     -0.55185891E-16
    1.754904624449         0.22792383E-04      0.25876128E+01     -0.10711995E-10      0.13087540E-04     -0.54178768E-16
    1.770573415739         0.15331613E-04      0.36699805E+01     -0.16090785E-10      0.12375427E-04     -0.54259237E-16
    1.786242207029         0.96621339E-05      0.55712275E+01     -0.25831557E-10      0.11735623E-04     -0.54413397E-16
    1.801910998318         0.55387214E-05      0.91059828E+01     -0.45771140E-10      0.10899976E-04     -0.54788632E-16
    1.817579789608         0.27288170E-05      0.17286273E+02     -0.93753688E-10      0.10106595E-04     -0.54814043E-16
    1.833248580898         0.10143196E-05      0.44845314E+02     -0.25307838E-09      0.96625790E-05     -0.54529440E-16
    1.848917372188         0.19301761E-06      0.22862084E+03     -0.13417889E-08      0.92943236E-05     -0.54548922E-16
    1.864586163477         0.79666251E-07      0.53783843E+03     -0.32868735E-08      0.89488308E-05     -0.54688682E-16
    1.880254954767         0.50671812E-06      0.84200455E+02     -0.51447868E-09      0.88366300E-05     -0.53993268E-16
    1.895923746057         0.13247231E-05      0.33316250E+02     -0.19871580E-09      0.90653147E-05     -0.54070348E-16
    1.911592537346         0.24024158E-05      0.18961118E+02     -0.11244093E-09      0.92798153E-05     -0.55030037E-16
    1.927261328636         0.36265145E-05      0.12300475E+02     -0.74428734E-10      0.90134955E-05     -0.54539604E-16
    1.942930119926         0.49012571E-05      0.93814212E+01     -0.55318642E-10      0.92159790E-05     -0.54343093E-16
    1.958598911216         0.61477036E-05      0.80190054E+01     -0.44116134E-10      0.98019043E-05     -0.53924659E-16
    1.974267702505         0.73028364E-05      0.67026431E+01     -0.37588014E-10      0.96550420E-05     -0.54144887E-16
    1.989936493795         0.83184897E-05      0.59611216E+01     -0.33372956E-10      0.97041119E-05     -0.54327846E-16
    2.005605285085         0.91601420E-05      0.54825292E+01     -0.30186135E-10      0.97512488E-05     -0.53689183E-16
    2.021274076374         0.98056032E-05      0.48680972E+01     -0.29352009E-10      0.91966760E-05     -0.55451012E-16
    2.036942867664         0.10243630E-04      0.46189871E+01     -0.27927594E-10      0.90457444E-05     -0.54692917E-16
    2.052611658954         0.10472498E-04      0.44086629E+01     -0.27705167E-10      0.87593707E-05     -0.55046130E-16
    2.068280450244         0.10498564E-04      0.40901586E+01     -0.27129596E-10      0.80850584E-05     -0.53627350E-16
    2.083949241533         0.10334843E-04      0.39576522E+01     -0.28823190E-10      0.76432298E-05     -0.55664888E-16
    2.099618032823         0.99996220E-05      0.37671585E+01     -0.29427699E-10      0.69868228E-05     -0.54578568E-16
    2.115286824113         0.95151388E-05      0.35706905E+01     -0.31338191E-10      0.62549036E-05     -0.54896205E-16
    2.130955615403         0.89063415E-05      0.35595484E+01     -0.32690876E-10      0.57935182E-05     -0.53207645E-16
    2.146624406692         0.81997437E-05      0.37401505E+01     -0.36422735E-10      0.55635991E-05     -0.54180039E-16
    2.162293197982         0.74223908E-05      0.41568672E+01     -0.40677393E-10      0.55567125E-05     -0.54375704E-16
    2.177961989272         0.66009450E-05      0.46510268E+01     -0.46599442E-10      0.54894295E-05     -0.54999543E-16
    2.193630780561         0.57608965E-05      0.50764990E+01     -0.53022902E-10      0.51917455E-05     -0.54226626E-16
    2.209299571851         0.49259042E-05      0.56873875E+01     -0.62810823E-10      0.49381776E-05     -0.54536640E-16
    2.224968363141         0.41172657E-05      0.66791582E+01     -0.76113082E-10      0.48131492E-05     -0.54848771E-16
    2.240637154431         0.33535162E-05      0.80030581E+01     -0.94367921E-10      0.46645246E-05     -0.55001661E-16
    2.256305945720         0.26501495E-05      0.99380212E+01     -0.11869421E-09      0.45456380E-05     -0.54290577E-16
    2.271974737010         0.20194561E-05      0.12815468E+02     -0.15805580E-09      0.44359632E-05     -0.54709646E-16
    2.287643528300         0.14704692E-05      0.17238742E+02     -0.21779258E-09      0.43151482E-05     -0.54517158E-16
    2.303312319590         0.10090088E-05      0.24632551E+02     -0.31850807E-09      0.42021744E-05     -0.54335681E-16
    2.318981110879         0.63781185E-06      0.38361180E+02     -0.50776537E-09      0.41087515E-05     -0.54385233E-16
    2.334649902169         0.35673748E-06      0.67737501E+02     -0.92322519E-09      0.40306834E-05     -0.54936016E-16
    2.350318693459         0.16303377E-06      0.14630349E+03     -0.20246863E-08      0.39521009E-05     -0.54692917E-16
    2.365987484748         0.51653227E-07      0.45617116E+03     -0.64237327E-08      0.38782462E-05     -0.54612873E-16
    2.381656276038         0.15604243E-07      0.14909187E+04     -0.21418132E-07      0.38039966E-05     -0.54647178E-16
    2.397325067328         0.46325825E-07      0.49627354E+03     -0.72606118E-08      0.37345640E-05     -0.54637649E-16
    2.412993858618         0.13407364E-06      0.16961546E+03     -0.25313261E-08      0.36700770E-05     -0.54771903E-16
    2.428662649907         0.26830611E-06      0.83872788E+02     -0.12891983E-08      0.36083362E-05     -0.55463294E-16
    2.444331441197         0.43806030E-06      0.50844973E+02     -0.78126966E-09      0.35484964E-05     -0.54525205E-16
    2.460000232487         0.63230847E-06      0.34927116E+02     -0.55768093E-09      0.34960620E-05     -0.55821589E-16
    2.475669023776         0.84028743E-06      0.26128577E+02     -0.41593838E-09      0.34536123E-05     -0.54977732E-16
    2.491337815066         0.10517940E-05      0.20698588E+02     -0.33562614E-09      0.34029953E-05     -0.55179326E-16
    2.507006606356         0.12574416E-05      0.17134436E+02     -0.27989680E-09      0.33467611E-05     -0.54670471E-16
    2.522675397646         0.14488737E-05      0.14735537E+02     -0.24688114E-09      0.32957759E-05     -0.55217866E-16
    2.538344188935         0.16189324E-05      0.13078652E+02     -0.21611759E-09      0.32483569E-05     -0.53677325E-16
