 
 # Omega; pulse ft; proj flux t=    500.250000000000     
    0.000000000000         0.13366901E-05      0.00000000E+00      0.00000000E+00      0.00000000E+00      0.00000000E+00      0.00000000E+00      0.00000000E+00
    0.006270644019         0.13526158E-05     -0.31248782E-01     -0.39616234E-11     -0.41777078E-06     -0.52963681E-16     -0.26196918E-08     -0.33211639E-18
    0.012541288038         0.14005224E-05     -0.36429161E-01     -0.17927174E-10     -0.25213885E-06     -0.12408019E-15     -0.42007648E-08     -0.11101791E-17
    0.018811932057         0.14807994E-05     -0.26201015E-01     -0.28035051E-10     -0.12782729E-06     -0.13677504E-15     -0.50023243E-08     -0.19678466E-17
    0.025082576077         0.15940962E-05     -0.23953188E-01     -0.34887897E-10     -0.94351410E-07     -0.13742314E-15     -0.55939684E-08     -0.28295782E-17
    0.031353220096         0.17413245E-05     -0.17595120E-01     -0.41014200E-10     -0.60566498E-07     -0.14118042E-15     -0.59737593E-08     -0.37148704E-17
    0.037623864115         0.19236591E-05     -0.12072290E-01     -0.43089035E-10     -0.38255777E-07     -0.13654448E-15     -0.62136477E-08     -0.45710922E-17
    0.043894508134         0.21425409E-05     -0.52650814E-02     -0.45428071E-10     -0.15928200E-07     -0.13743138E-15     -0.63135278E-08     -0.54328755E-17
    0.050165152153         0.23996797E-05     -0.11101668E-01     -0.47080811E-10     -0.32914104E-07     -0.13958468E-15     -0.65199204E-08     -0.63081613E-17
    0.056435796172         0.26970571E-05     -0.16591166E-01     -0.48014849E-10     -0.49142254E-07     -0.14221773E-15     -0.68280740E-08     -0.71999581E-17
    0.062706440191         0.30369306E-05     -0.94162194E-02     -0.47449636E-10     -0.28264543E-07     -0.14242895E-15     -0.70053109E-08     -0.80930793E-17
    0.068977084211         0.34218375E-05     -0.29394712E-02     -0.46702926E-10     -0.90378771E-08     -0.14359566E-15     -0.70619842E-08     -0.89935166E-17
    0.075247728230         0.38545993E-05     -0.18759431E-02     -0.45238364E-10     -0.59559107E-08     -0.14362678E-15     -0.70993316E-08     -0.98941490E-17
    0.081518372249         0.43383269E-05     -0.50791182E-03     -0.43466573E-10     -0.16753200E-08     -0.14337217E-15     -0.71098369E-08     -0.10793185E-16
    0.087789016268         0.48764252E-05     -0.52679048E-04     -0.41843345E-10     -0.18136019E-09     -0.14405570E-15     -0.71109742E-08     -0.11696507E-16
    0.094059660287         0.54725985E-05      0.57325487E-03     -0.39440094E-10      0.20671910E-08     -0.14222331E-15     -0.70980115E-08     -0.12588339E-16
    0.100330304306         0.61308563E-05      0.12740191E-02     -0.37628511E-10      0.48251146E-08     -0.14251111E-15     -0.70677550E-08     -0.13481975E-16
    0.106600948325         0.68555186E-05      0.20635322E-02     -0.35953382E-10      0.82249483E-08     -0.14330511E-15     -0.70161792E-08     -0.14380590E-16
    0.112871592345         0.76512216E-05      0.32731851E-02     -0.34032913E-10      0.13751794E-07     -0.14298416E-15     -0.69299466E-08     -0.15277193E-16
    0.119142236364         0.85229237E-05      0.46999815E-02     -0.32243638E-10      0.20838271E-07     -0.14295836E-15     -0.67992773E-08     -0.16173634E-16
    0.125412880383         0.94759108E-05      0.65055572E-02     -0.30609873E-10      0.30465338E-07     -0.14334515E-15     -0.66082400E-08     -0.17072501E-16
    0.131683524402         0.10515802E-04      0.86265206E-02     -0.28831414E-10      0.42696207E-07     -0.14269855E-15     -0.63405073E-08     -0.17967312E-16
    0.137954168421         0.11648555E-04      0.11789827E-01     -0.27213401E-10      0.61700309E-07     -0.14241729E-15     -0.59536066E-08     -0.18860361E-16
    0.144224812440         0.12880472E-04      0.15786176E-01     -0.25765638E-10      0.87379871E-07     -0.14261834E-15     -0.54056785E-08     -0.19754669E-16
    0.150495456459         0.14218202E-04      0.21539003E-01     -0.24287738E-10      0.12612162E-06     -0.14221685E-15     -0.46148147E-08     -0.20646461E-16
    0.156766100479         0.15668749E-04      0.32058775E-01     -0.22937735E-10      0.19859659E-06     -0.14209389E-15     -0.33694862E-08     -0.21537481E-16
    0.163036744498         0.17239474E-04      0.55924379E-01     -0.21774337E-10      0.36650708E-06     -0.14270071E-15     -0.10712508E-08     -0.22432306E-16
    0.169307388517         0.18938099E-04      0.11929307E+00     -0.20534070E-10      0.82702446E-06     -0.14235679E-15      0.41147252E-08     -0.23324975E-16
    0.175578032536         0.20772707E-04      0.95836038E+00     -0.19439759E-10      0.70273962E-05     -0.14254647E-15      0.48181025E-07     -0.24218833E-16
    0.181848676555         0.22751750E-04      0.33238182E+01     -0.18425737E-10      0.25774165E-04     -0.14288025E-15      0.20980164E-06     -0.25114784E-16
    0.188119320574         0.24884049E-04      0.47707697E+01     -0.17436127E-10      0.39112787E-04     -0.14294874E-15      0.45506400E-06     -0.26011165E-16
    0.194389964593         0.27178789E-04      0.35402149E+01     -0.16468475E-10      0.30678107E-04     -0.14270932E-15      0.64743549E-06     -0.26906044E-16
    0.200660608613         0.29645528E-04      0.43436269E+01     -0.15604877E-10      0.39773357E-04     -0.14288942E-15      0.89684005E-06     -0.27802053E-16
    0.206931252632         0.32294190E-04      0.10388774E+02     -0.14847155E-10      0.10048594E-03     -0.14360984E-15      0.15269516E-05     -0.28702579E-16
    0.213201896651         0.35135065E-04      0.16277789E+02     -0.14088509E-10      0.16626001E-03     -0.14389887E-15      0.25695089E-05     -0.29604918E-16
    0.219472540670         0.38178807E-04      0.16536243E+02     -0.13245430E-10      0.17828782E-03     -0.14280746E-15      0.36874884E-05     -0.30500412E-16
    0.225743184689         0.41436430E-04      0.14719411E+02     -0.12669968E-10      0.16745603E-03     -0.14414045E-15      0.47375455E-05     -0.31404266E-16
    0.232013828708         0.44919301E-04      0.15858787E+02     -0.12188042E-10      0.19029691E-03     -0.14624995E-15      0.59308297E-05     -0.32321347E-16
    0.238284472727         0.48639135E-04      0.18062749E+02     -0.11508306E-10      0.22851601E-03     -0.14559424E-15      0.73637723E-05     -0.33234317E-16
    0.244555116747         0.52607990E-04      0.19136291E+02     -0.10843092E-10      0.25513814E-03     -0.14456753E-15      0.89636527E-05     -0.34140849E-16
    0.250825760766         0.56838253E-04      0.19608806E+02     -0.10470337E-10      0.27539903E-03     -0.14705234E-15      0.10690582E-04     -0.35062961E-16
    0.257096404785         0.61342637E-04      0.19933368E+02     -0.98681928E-11      0.29477442E-03     -0.14593072E-15      0.12539007E-04     -0.35978041E-16
    0.263367048804         0.66134162E-04      0.20426293E+02     -0.95560892E-11      0.31790448E-03     -0.14872613E-15      0.14532473E-04     -0.36910650E-16
    0.269637692823         0.71226148E-04      0.21007128E+02     -0.92970827E-11      0.34392853E-03     -0.15221177E-15      0.16689127E-04     -0.37865115E-16
    0.275908336842         0.76632201E-04      0.21596090E+02     -0.84752958E-11      0.37176138E-03     -0.14589621E-15      0.19020310E-04     -0.38779979E-16
    0.282178980861         0.82366191E-04      0.22176689E+02     -0.82523933E-11      0.40120256E-03     -0.14929557E-15      0.21536108E-04     -0.39716158E-16
    0.288449624880         0.88442244E-04      0.22704480E+02     -0.80823333E-11      0.43146345E-03     -0.15359222E-15      0.24241662E-04     -0.40679280E-16
    0.294720268900         0.94874717E-04      0.23140548E+02     -0.72709020E-11      0.46169674E-03     -0.14506794E-15      0.27136798E-04     -0.41588950E-16
    0.300990912919         0.10167818E-03      0.23441972E+02     -0.71422005E-11      0.49080751E-03     -0.14953715E-15      0.30214477E-04     -0.42526644E-16
    0.307261556938         0.10886740E-03      0.23653702E+02     -0.70311133E-11      0.51943523E-03     -0.15440323E-15      0.33471671E-04     -0.43494851E-16
    0.313532200957         0.11645730E-03      0.23804319E+02     -0.62617777E-11      0.54800306E-03     -0.14415340E-15      0.36908003E-04     -0.44398786E-16
    0.319802844976         0.12446296E-03      0.23936354E+02     -0.61979543E-11      0.57737566E-03     -0.14950264E-15      0.40528520E-04     -0.45336264E-16
    0.326073488995         0.13289958E-03      0.24048499E+02     -0.61369043E-11      0.60748949E-03     -0.15502443E-15      0.44337870E-04     -0.46308367E-16
    0.332344133014         0.14178245E-03      0.24162691E+02     -0.60927606E-11      0.63888462E-03     -0.16109841E-15      0.48344088E-04     -0.47318558E-16
    0.338614777034         0.15112692E-03      0.24265092E+02     -0.53797311E-11      0.67121327E-03     -0.14881241E-15      0.52553028E-04     -0.48251707E-16
    0.344885421053         0.16094837E-03      0.24332523E+02     -0.53716967E-11      0.70378751E-03     -0.15536954E-15      0.56966229E-04     -0.49225974E-16
    0.351156065072         0.17126219E-03      0.24354083E+02     -0.53660445E-11      0.73616604E-03     -0.16220277E-15      0.61582464E-04     -0.50243090E-16
    0.357426709091         0.18208374E-03      0.24324988E+02     -0.46891146E-11      0.76803230E-03     -0.14805316E-15      0.66398521E-04     -0.51171479E-16
    0.363697353110         0.19342833E-03      0.24251228E+02     -0.47082626E-11      0.79938565E-03     -0.15519699E-15      0.71411184E-04     -0.52144664E-16
    0.369967997129         0.20531113E-03      0.24132221E+02     -0.47289730E-11      0.83001952E-03     -0.16265141E-15      0.76615941E-04     -0.53164593E-16
    0.376238641148         0.21774722E-03      0.23985813E+02     -0.47634480E-11      0.86037213E-03     -0.17086508E-15      0.82011028E-04     -0.54236027E-16
    0.382509285168         0.23075149E-03      0.23814038E+02     -0.41305534E-11      0.89038585E-03     -0.15443774E-15      0.87594321E-04     -0.55204451E-16
    0.388779929187         0.24433861E-03      0.23631019E+02     -0.41730190E-11      0.92047796E-03     -0.16254788E-15      0.93366310E-04     -0.56223731E-16
    0.395050573206         0.25852303E-03      0.23430111E+02     -0.35584037E-11      0.95030621E-03     -0.14432595E-15      0.99325342E-04     -0.57128748E-16
    0.401321217225         0.27331888E-03      0.23219659E+02     -0.36219624E-11      0.98011273E-03     -0.15288474E-15      0.10547128E-03     -0.58087434E-16
    0.407591861244         0.28873998E-03      0.22996597E+02     -0.36848848E-11      0.10096891E-02     -0.16178863E-15      0.11180268E-03     -0.59101953E-16
    0.413862505263         0.30479977E-03      0.22766206E+02     -0.37515948E-11      0.10391827E-02     -0.17124471E-15      0.11831903E-03     -0.60175767E-16
    0.420133149282         0.32151130E-03      0.22523513E+02     -0.38287700E-11      0.10682874E-02     -0.18159808E-15      0.12501788E-03     -0.61314504E-16
    0.426403793302         0.33888713E-03      0.22269305E+02     -0.32592931E-11      0.10969412E-02     -0.16054623E-15      0.13189640E-03     -0.62321232E-16
    0.432674437321         0.35693934E-03      0.22003194E+02     -0.33370522E-11      0.11250235E-02     -0.17062351E-15      0.13895103E-03     -0.63391152E-16
    0.438945081340         0.37567949E-03      0.21723175E+02     -0.28027614E-11      0.11523205E-02     -0.14867437E-15      0.14617682E-03     -0.64323436E-16
    0.445215725359         0.39511852E-03      0.21432783E+02     -0.28848936E-11      0.11789032E-02     -0.15868262E-15      0.15356930E-03     -0.65318478E-16
    0.451486369378         0.41526677E-03      0.21133439E+02     -0.29760969E-11      0.12047457E-02     -0.16965719E-15      0.16112383E-03     -0.66382338E-16
    0.457757013397         0.43613390E-03      0.20832631E+02     -0.30659225E-11      0.12301884E-02     -0.18104590E-15      0.16883790E-03     -0.67517612E-16
    0.464027657416         0.45772885E-03      0.20525803E+02     -0.31453169E-11      0.12548946E-02     -0.19229656E-15      0.17670690E-03     -0.68723435E-16
    0.470298301436         0.48005983E-03      0.20216425E+02     -0.26500452E-11      0.12789954E-02     -0.16765554E-15      0.18472703E-03     -0.69774744E-16
    0.476568945455         0.50313422E-03      0.19899112E+02     -0.27447127E-11      0.13020705E-02     -0.17959643E-15      0.19289185E-03     -0.70900929E-16
    0.482839589474         0.52695859E-03      0.19586733E+02     -0.22724499E-11      0.13248853E-02     -0.15371301E-15      0.20119973E-03     -0.71864808E-16
    0.489110233493         0.55153859E-03      0.19283346E+02     -0.23672635E-11      0.13477031E-02     -0.16544682E-15      0.20965070E-03     -0.72902266E-16
    0.495380877512         0.57687900E-03      0.19007086E+02     -0.24644309E-11      0.13718408E-02     -0.17787086E-15      0.21825302E-03     -0.74017631E-16
    0.501651521531         0.60298360E-03      0.18778803E+02     -0.25543542E-11      0.13989878E-02     -0.19029491E-15      0.22702558E-03     -0.75210903E-16
    0.507922165550         0.62985518E-03      0.18803404E+02     -0.26609446E-11      0.14451825E-02     -0.20451353E-15      0.23608780E-03     -0.76493334E-16
    0.514192809570         0.65749549E-03      0.17878906E+02     -0.22138923E-11      0.14169366E-02     -0.17545508E-15      0.24497291E-03     -0.77593551E-16
    0.520463453589         0.68590523E-03      0.15938654E+02     -0.22494788E-11      0.13018717E-02     -0.18373777E-15      0.25313648E-03     -0.78745705E-16
    0.526734097608         0.71508395E-03      0.15693943E+02     -0.23231399E-11      0.13205059E-02     -0.19547159E-15      0.26141690E-03     -0.79971438E-16
    0.533004741627         0.74503011E-03      0.16348231E+02     -0.24443327E-11      0.14163031E-02     -0.21176089E-15      0.27029804E-03     -0.81299315E-16
    0.539275385646         0.77574094E-03      0.15912184E+02     -0.25114379E-11      0.14186608E-02     -0.22390884E-15      0.27919395E-03     -0.82703368E-16
    0.545546029665         0.80721252E-03      0.15325180E+02     -0.16904448E-11      0.14054155E-02     -0.15502443E-15      0.28800681E-03     -0.83675471E-16
    0.551816673684         0.83943965E-03      0.15118038E+02     -0.17833244E-11      0.14253869E-02     -0.16813870E-15      0.29694491E-03     -0.84729808E-16
    0.558087317704         0.87241592E-03      0.14945671E+02     -0.18636486E-11      0.14480365E-02     -0.18056274E-15      0.30602503E-03     -0.85862053E-16
    0.564357961723         0.90613359E-03      0.14684684E+02     -0.19448592E-11      0.14613184E-02     -0.19353896E-15      0.31518844E-03     -0.87075667E-16
    0.570628605742         0.94058365E-03      0.14395688E+02     -0.20241638E-11      0.14706827E-02     -0.20679127E-15      0.32441056E-03     -0.88372381E-16
    0.576899249761         0.97575574E-03      0.14127766E+02     -0.20924759E-11      0.14810077E-02     -0.21935336E-15      0.33369744E-03     -0.89747868E-16
    0.583169893780         0.10116382E-02      0.13871046E+02     -0.13776767E-11      0.14913584E-02     -0.14812219E-15      0.34304921E-03     -0.90676690E-16
    0.589440537799         0.10482179E-02      0.13614175E+02     -0.14616284E-11      0.15005331E-02     -0.16109841E-15      0.35245852E-03     -0.91686881E-16
    0.595711181818         0.10854806E-02      0.13361040E+02     -0.15401462E-11      0.15089305E-02     -0.17393658E-15      0.36192049E-03     -0.92777575E-16
    0.601981825838         0.11234103E-02      0.13117166E+02     -0.16207740E-11      0.15171821E-02     -0.18746499E-15      0.37143420E-03     -0.93953101E-16
    0.608252469857         0.11619899E-02      0.12878235E+02     -0.16963764E-11      0.15248162E-02     -0.20085534E-15      0.38099578E-03     -0.95212594E-16
    0.614523113876         0.12012008E-02      0.12641255E+02     -0.17638891E-11      0.15314763E-02     -0.21369352E-15      0.39059912E-03     -0.96552590E-16
    0.620793757895         0.12410231E-02      0.12404085E+02     -0.18372398E-11      0.15368799E-02     -0.22763605E-15      0.40023635E-03     -0.97980014E-16
    0.627064401914         0.12814354E-02      0.12167453E+02     -0.12108970E-11      0.15410861E-02     -0.15336789E-15      0.40989995E-03     -0.98941730E-16
    0.633335045933         0.13224148E-02      0.11931791E+02     -0.12864438E-11      0.15441251E-02     -0.16648216E-15      0.41958261E-03     -0.99985680E-16
    0.639605689952         0.13639374E-02      0.11698661E+02     -0.13619878E-11      0.15461831E-02     -0.18001056E-15      0.42927817E-03     -0.10111446E-15
    0.645876333972         0.14059774E-02      0.11468521E+02     -0.14324411E-11      0.15473162E-02     -0.19326287E-15      0.43898084E-03     -0.10232634E-15
    0.652146977991         0.14485081E-02      0.11242539E+02     -0.14971388E-11      0.15476849E-02     -0.20610105E-15      0.44868582E-03     -0.10361873E-15
    0.658417622010         0.14915013E-02      0.11020038E+02     -0.15623540E-11      0.15472053E-02     -0.21935336E-15      0.45838780E-03     -0.10499422E-15
    0.664688266029         0.15349273E-02      0.10801979E+02     -0.16242393E-11      0.15460225E-02     -0.23246763E-15      0.46808235E-03     -0.10645194E-15
    0.670958910048         0.15787553E-02      0.10587615E+02     -0.10828913E-11      0.15440441E-02     -0.15792337E-15      0.47776450E-03     -0.10744222E-15
    0.677229554067         0.16229531E-02      0.10377879E+02     -0.11524692E-11      0.15414213E-02     -0.17117569E-15      0.48743021E-03     -0.10851560E-15
    0.683500198086         0.16674874E-02      0.10171533E+02     -0.12197203E-11      0.15379882E-02     -0.18442800E-15      0.49707439E-03     -0.10967209E-15
    0.689770842106         0.17123234E-02      0.99693739E+01     -0.12803265E-11      0.15338805E-02     -0.19699008E-15      0.50669280E-03     -0.11090734E-15
    0.696041486125         0.17574255E-02      0.97702511E+01     -0.13417300E-11      0.15289391E-02     -0.20996631E-15      0.51628024E-03     -0.11222396E-15
    0.702312130144         0.18027565E-02      0.95755133E+01     -0.14013394E-11      0.15233919E-02     -0.22294253E-15      0.52583288E-03     -0.11362196E-15
    0.708582774163         0.18482784E-02      0.93839815E+01     -0.92134517E-12      0.15170735E-02     -0.14895046E-15      0.53534591E-03     -0.11455597E-15
    0.714853418182         0.18939520E-02      0.91960232E+01     -0.98526568E-12      0.15100618E-02     -0.16178863E-15      0.54481497E-03     -0.11557049E-15
    0.721124062201         0.19397371E-02      0.90103576E+01     -0.10482830E-11      0.15021649E-02     -0.17476485E-15      0.55423451E-03     -0.11666638E-15
    0.727394706220         0.19855926E-02      0.88286244E+01     -0.11047814E-11      0.14936737E-02     -0.18691281E-15      0.56360081E-03     -0.11783844E-15
    0.733665350240         0.20314763E-02      0.86506924E+01     -0.11615320E-11      0.14845926E-02     -0.19933685E-15      0.57291016E-03     -0.11908841E-15
    0.739935994259         0.20773451E-02      0.84773420E+01     -0.12162010E-11      0.14750844E-02     -0.21162284E-15      0.58215989E-03     -0.12041542E-15
    0.746206638278         0.21231554E-02      0.83070839E+01     -0.12665827E-11      0.14649201E-02     -0.22335666E-15      0.59134588E-03     -0.12181601E-15
    0.752477282297         0.21688625E-02      0.81393839E+01     -0.13167663E-11      0.14540282E-02     -0.23522852E-15      0.60046358E-03     -0.12329105E-15
    0.758747926316         0.22144210E-02      0.79734910E+01     -0.91121185E-12      0.14422942E-02     -0.16482562E-15      0.60950769E-03     -0.12432461E-15
    0.765018570335         0.22597852E-02      0.78097914E+01     -0.96288280E-12      0.14298066E-02     -0.17628335E-15      0.61847350E-03     -0.12543002E-15
