 
 # Omega; pulse ft; proj flux t=    500.250000000000     
    0.000000000000         0.44556337E-06      0.00000000E+00      0.00000000E+00      0.00000000E+00      0.00000000E+00      0.00000000E+00      0.00000000E+00
    0.006270644019         0.45087192E-06      0.23624491E+00     -0.90904037E-11      0.10528007E-05     -0.40510433E-16      0.66017385E-08     -0.25402651E-18
    0.012541288038         0.46684081E-06      0.55262945E+00     -0.40395444E-10      0.12749800E-05     -0.93196958E-16      0.14596684E-07     -0.83843145E-18
    0.018811932057         0.49359979E-06      0.10233376E+00     -0.64638077E-10      0.16641910E-06     -0.10511693E-15      0.15640239E-07     -0.14975823E-17
    0.025082576077         0.53136541E-06      0.61775768E-01     -0.81689809E-10      0.81111413E-07     -0.10725850E-15      0.16148860E-07     -0.21701621E-17
    0.031353220096         0.58044149E-06      0.10652634E-02     -0.94289908E-10      0.12222949E-08     -0.10818927E-15      0.16156524E-07     -0.28485785E-17
    0.037623864115         0.64121969E-06     -0.17696508E-01     -0.10154418E-09     -0.18692771E-07     -0.10726083E-15      0.16039309E-07     -0.35211730E-17
    0.043894508134         0.71418031E-06     -0.36261159E-01     -0.10721072E-09     -0.36566386E-07     -0.10811316E-15      0.15810014E-07     -0.41991122E-17
    0.050165152153         0.79989324E-06     -0.44889611E-01     -0.10948829E-09     -0.44362745E-07     -0.10820324E-15      0.15531831E-07     -0.48776162E-17
    0.056435796172         0.89901904E-06     -0.51482286E-01     -0.11047465E-09     -0.50829371E-07     -0.10907358E-15      0.15213098E-07     -0.55615777E-17
    0.062706440191         0.10123102E-05     -0.54462028E-01     -0.10929140E-09     -0.54492653E-07     -0.10935285E-15      0.14871394E-07     -0.62472905E-17
    0.068977084211         0.11406125E-05     -0.56056189E-01     -0.10693384E-09     -0.57451257E-07     -0.10959510E-15      0.14511138E-07     -0.69345224E-17
    0.075247728230         0.12848664E-05     -0.56796139E-01     -0.10350998E-09     -0.60107143E-07     -0.10954422E-15      0.14134227E-07     -0.76214352E-17
    0.081518372249         0.14461090E-05     -0.56475887E-01     -0.99962485E-10     -0.62094232E-07     -0.10990697E-15      0.13744856E-07     -0.83106227E-17
    0.087789016268         0.16254751E-05     -0.54644218E-01     -0.95812528E-10     -0.62708587E-07     -0.10995250E-15      0.13351633E-07     -0.90000957E-17
    0.094059660287         0.18241995E-05     -0.52438839E-01     -0.91059796E-10     -0.63032520E-07     -0.10945567E-15      0.12956379E-07     -0.96864533E-17
    0.100330304306         0.20436188E-05     -0.50707885E-01     -0.86890405E-10     -0.64015615E-07     -0.10969384E-15      0.12554959E-07     -0.10374304E-16
    0.106600948325         0.22851729E-05     -0.48706538E-01     -0.82591494E-10     -0.64712463E-07     -0.10973268E-15      0.12149171E-07     -0.11062399E-16
    0.112871592345         0.25504072E-05     -0.46370813E-01     -0.78385061E-10     -0.64939997E-07     -0.10977434E-15      0.11741955E-07     -0.11750755E-16
    0.119142236364         0.28409746E-05     -0.43898342E-01     -0.74288513E-10     -0.64877244E-07     -0.10979080E-15      0.11335133E-07     -0.12439214E-16
    0.125412880383         0.31586369E-05     -0.41580456E-01     -0.70234869E-10     -0.64906694E-07     -0.10963596E-15      0.10928126E-07     -0.13126702E-16
    0.131683524402         0.35052673E-05     -0.39265423E-01     -0.66429261E-10     -0.64780255E-07     -0.10959527E-15      0.10521912E-07     -0.13813935E-16
    0.137954168421         0.38828517E-05     -0.37202709E-01     -0.62799837E-10     -0.64898283E-07     -0.10955121E-15      0.10114958E-07     -0.14500891E-16
    0.144224812440         0.42934906E-05     -0.35099446E-01     -0.59409497E-10     -0.64760989E-07     -0.10961477E-15      0.97088651E-08     -0.15188247E-16
    0.150495456459         0.47394007E-05     -0.32999881E-01     -0.56138413E-10     -0.64410265E-07     -0.10957282E-15      0.93049713E-08     -0.15875339E-16
    0.156766100479         0.52229165E-05     -0.30941380E-01     -0.53026572E-10     -0.63891529E-07     -0.10949572E-15      0.89043302E-08     -0.16561947E-16
    0.163036744498         0.57464915E-05     -0.29051684E-01     -0.50150690E-10     -0.63464557E-07     -0.10955617E-15      0.85063666E-08     -0.17248935E-16
    0.169307388517         0.63126995E-05     -0.27228018E-01     -0.47417532E-10     -0.62921332E-07     -0.10957736E-15      0.81118093E-08     -0.17936056E-16
    0.175578032536         0.69242356E-05     -0.25551263E-01     -0.44841668E-10     -0.62453489E-07     -0.10960392E-15      0.77201857E-08     -0.18623343E-16
    0.181848676555         0.75839168E-05     -0.23950101E-01     -0.42424591E-10     -0.61906099E-07     -0.10965887E-15      0.73319946E-08     -0.19310975E-16
    0.188119320574         0.82946828E-05     -0.22462317E-01     -0.40116053E-10     -0.61385190E-07     -0.10962945E-15      0.69470699E-08     -0.19998422E-16
    0.194389964593         0.90595963E-05     -0.21039756E-01     -0.37953297E-10     -0.60774079E-07     -0.10962944E-15      0.65659773E-08     -0.20685869E-16
    0.200660608613         0.98818426E-05     -0.19583550E-01     -0.35938175E-10     -0.59773668E-07     -0.10969189E-15      0.61911579E-08     -0.21373708E-16
    0.206931252632         0.10764730E-04     -0.18170273E-01     -0.34002644E-10     -0.58584290E-07     -0.10963076E-15      0.58237967E-08     -0.22061163E-16
    0.213201896651         0.11711688E-04     -0.17319834E-01     -0.32173798E-10     -0.58967790E-07     -0.10954018E-15      0.54540307E-08     -0.22748051E-16
    0.219472540670         0.12726269E-04     -0.16157867E-01     -0.30494642E-10     -0.58069438E-07     -0.10959409E-15      0.50898979E-08     -0.23435276E-16
    0.225743184689         0.13812143E-04     -0.14848582E-01     -0.28881594E-10     -0.56308516E-07     -0.10952424E-15      0.47368072E-08     -0.24122064E-16
    0.232013828708         0.14973100E-04     -0.13909691E-01     -0.27385808E-10     -0.55636270E-07     -0.10953833E-15      0.43879320E-08     -0.24808940E-16
    0.238284472727         0.16213045E-04     -0.12772041E-01     -0.25986622E-10     -0.53860680E-07     -0.10958758E-15      0.40501908E-08     -0.25496124E-16
    0.244555116747         0.17535997E-04     -0.11964926E-01     -0.24659668E-10     -0.53174863E-07     -0.10959320E-15      0.37167502E-08     -0.26183344E-16
    0.250825760766         0.18946084E-04     -0.11120773E-01     -0.23410887E-10     -0.52062495E-07     -0.10959932E-15      0.33902848E-08     -0.26870603E-16
    0.257096404785         0.20447546E-04     -0.10283949E-01     -0.22239282E-10     -0.50692972E-07     -0.10962475E-15      0.30724073E-08     -0.27558020E-16
    0.263367048804         0.22044721E-04     -0.95975628E-02     -0.21115132E-10     -0.49790536E-07     -0.10954174E-15      0.27601885E-08     -0.28244918E-16
    0.269637692823         0.23742049E-04     -0.88396851E-02     -0.20080359E-10     -0.48241086E-07     -0.10958516E-15      0.24576859E-08     -0.28932087E-16
    0.275908336842         0.25544067E-04     -0.82103906E-02     -0.19096419E-10     -0.47112019E-07     -0.10957711E-15      0.21622632E-08     -0.29619206E-16
    0.282178980861         0.27455397E-04     -0.75253542E-02     -0.18163272E-10     -0.45380857E-07     -0.10953170E-15      0.18776960E-08     -0.30306041E-16
    0.288449624880         0.29480748E-04     -0.69669247E-02     -0.17293116E-10     -0.44131868E-07     -0.10954295E-15      0.16009607E-08     -0.30992945E-16
    0.294720268900         0.31624906E-04     -0.63516162E-02     -0.16468996E-10     -0.42242164E-07     -0.10952897E-15      0.13360752E-08     -0.31679763E-16
    0.300990912919         0.33892727E-04     -0.58541488E-02     -0.15693764E-10     -0.40856349E-07     -0.10952743E-15      0.10798795E-08     -0.32366570E-16
    0.307261556938         0.36289132E-04     -0.53216663E-02     -0.14965877E-10     -0.38954593E-07     -0.10955021E-15      0.83560915E-09     -0.33053521E-16
    0.313532200957         0.38819099E-04     -0.48540791E-02     -0.14271023E-10     -0.37248846E-07     -0.10951184E-15      0.60203489E-09     -0.33740230E-16
    0.319802844976         0.41487653E-04     -0.43814147E-02     -0.13626501E-10     -0.35228454E-07     -0.10956291E-15      0.38112980E-09     -0.34427260E-16
    0.326073488995         0.44299860E-04     -0.39342233E-02     -0.13015280E-10     -0.33127491E-07     -0.10959306E-15      0.17339910E-09     -0.35114479E-16
    0.332344133014         0.47260816E-04     -0.34949198E-02     -0.12437727E-10     -0.30803006E-07     -0.10962179E-15     -0.19755587E-10     -0.35801879E-16
    0.338614777034         0.50375638E-04     -0.30631593E-02     -0.11885971E-10     -0.28244046E-07     -0.10959531E-15     -0.19686394E-09     -0.36489112E-16
    0.344885421053         0.53649455E-04     -0.26545516E-02     -0.11371426E-10     -0.25593185E-07     -0.10963471E-15     -0.35734969E-09     -0.37176592E-16
    0.351156065072         0.57087396E-04     -0.22294680E-02     -0.10880520E-10     -0.22463839E-07     -0.10963075E-15     -0.49821243E-09     -0.37864048E-16
    0.357426709091         0.60694581E-04     -0.18375083E-02     -0.10417230E-10     -0.19339040E-07     -0.10963717E-15     -0.61948066E-09     -0.38551543E-16
    0.363697353110         0.64476108E-04     -0.14244187E-02     -0.99775328E-11     -0.15650889E-07     -0.10962876E-15     -0.71762182E-09     -0.39238986E-16
    0.369967997129         0.68437043E-04     -0.10421612E-02     -0.95638670E-11     -0.11948259E-07     -0.10964865E-15     -0.79254510E-09     -0.39926554E-16
    0.376238641148         0.72582407E-04     -0.61625867E-03     -0.91691143E-11     -0.73684084E-08     -0.10963217E-15     -0.83874977E-09     -0.40614018E-16
    0.382509285168         0.76917163E-04     -0.21423169E-03     -0.87949297E-11     -0.26699779E-08     -0.10961155E-15     -0.85549225E-09     -0.41301353E-16
    0.388779929187         0.81446204E-04      0.22266219E-03     -0.84451804E-11      0.28910537E-08     -0.10965252E-15     -0.83736348E-09     -0.41988945E-16
    0.395050573206         0.86174343E-04      0.66495193E-03     -0.81057481E-11      0.89899694E-08     -0.10958751E-15     -0.78099058E-09     -0.42676129E-16
    0.401321217225         0.91106293E-04      0.11652372E-02     -0.77901614E-11      0.16395070E-07     -0.10960879E-15     -0.67818293E-09     -0.43363447E-16
    0.407591861244         0.96246660E-04      0.16673981E-02     -0.74889887E-11      0.24402939E-07     -0.10960390E-15     -0.52516079E-09     -0.44050734E-16
    0.413862505263         0.10159992E-03      0.22414282E-02     -0.72025880E-11      0.34103961E-07     -0.10958940E-15     -0.31130699E-09     -0.44737930E-16
    0.420133149282         0.10717043E-03      0.28747972E-02     -0.69331463E-11      0.45450423E-07     -0.10961275E-15     -0.26303568E-10     -0.45425273E-16
    0.426403793302         0.11296238E-03      0.36161514E-02     -0.66760125E-11      0.59374784E-07     -0.10961565E-15      0.34601456E-09     -0.46112634E-16
    0.432674437321         0.11897978E-03      0.44347724E-02     -0.64297755E-11      0.75583316E-07     -0.10958482E-15      0.81997063E-09     -0.46799801E-16
    0.438945081340         0.12522650E-03      0.54285129E-02     -0.61986405E-11      0.95986375E-07     -0.10960369E-15      0.14218670E-08     -0.47487087E-16
    0.445215725359         0.13170617E-03      0.66193419E-02     -0.59768079E-11      0.12136491E-06     -0.10958412E-15      0.21829032E-08     -0.48174250E-16
    0.451486369378         0.13842226E-03      0.81401035E-02     -0.57680403E-11      0.15467990E-06     -0.10960547E-15      0.31528457E-08     -0.48861547E-16
    0.457757013397         0.14537797E-03      0.10036176E-01     -0.55687750E-11      0.19754885E-06     -0.10961398E-15      0.43916043E-08     -0.49548897E-16
    0.464027657416         0.15257628E-03      0.12673890E-01     -0.53781918E-11      0.25828297E-06     -0.10960292E-15      0.60112049E-08     -0.50236178E-16
    0.470298301436         0.16001994E-03      0.16263346E-01     -0.51953203E-11      0.34296775E-06     -0.10956093E-15      0.81618335E-08     -0.50923195E-16
    0.476568945455         0.16771141E-03      0.21675215E-01     -0.50222069E-11      0.47276243E-06     -0.10954035E-15      0.11126358E-07     -0.51610084E-16
    0.482839589474         0.17565286E-03      0.29975149E-01     -0.48559157E-11      0.67585945E-06     -0.10948791E-15      0.15364432E-07     -0.52296644E-16
    0.489110233493         0.18384620E-03      0.45854658E-01     -0.46999833E-11      0.10682528E-05     -0.10949314E-15      0.22063065E-07     -0.52983236E-16
    0.495380877512         0.19229300E-03      0.79073758E-01     -0.45534436E-11      0.19023889E-05     -0.10954861E-15      0.33992269E-07     -0.53670176E-16
    0.501651521531         0.20099453E-03      0.19015438E+00     -0.44156266E-11      0.47220559E-05     -0.10965214E-15      0.63602601E-07     -0.54357766E-16
    0.507922165550         0.20995173E-03      0.14202942E+01     -0.43341662E-11      0.36386751E-04     -0.11103772E-15      0.29177097E-06     -0.55054044E-16
    0.514192809570         0.21916516E-03      0.45803739E+01     -0.42503335E-11      0.12100105E-03     -0.11228228E-15      0.10505255E-05     -0.55758126E-16
    0.520463453589         0.22863508E-03      0.63065164E+01     -0.42209416E-11      0.17170574E-03     -0.11492239E-15      0.21272311E-05     -0.56478764E-16
    0.526734097608         0.23836132E-03      0.63038757E+01     -0.41556273E-11      0.17680505E-03     -0.11655304E-15      0.32359126E-05     -0.57209626E-16
    0.533004741627         0.24834337E-03      0.11066701E+02     -0.43309624E-11      0.31958202E-03     -0.12506869E-15      0.52398977E-05     -0.57993887E-16
    0.539275385646         0.25858031E-03      0.16790894E+02     -0.46497214E-11      0.49900092E-03     -0.13818295E-15      0.83689548E-05     -0.58860383E-16
    0.545546029665         0.26907084E-03      0.15381314E+02     -0.37222149E-11      0.47018778E-03     -0.11378352E-15      0.11317335E-04     -0.59573879E-16
    0.551816673684         0.27981322E-03      0.12202184E+02     -0.37006177E-11      0.38348967E-03     -0.11630284E-15      0.13722062E-04     -0.60303173E-16
    0.558087317704         0.29080531E-03      0.11999813E+02     -0.37048565E-11      0.38754070E-03     -0.11965042E-15      0.16152192E-04     -0.61053458E-16
    0.564357961723         0.30204453E-03      0.12254826E+02     -0.37288027E-11      0.40650525E-03     -0.12368824E-15      0.18701242E-04     -0.61829063E-16
    0.570628605742         0.31352788E-03      0.11954993E+02     -0.37355145E-11      0.40711268E-03     -0.12720838E-15      0.21254100E-04     -0.62626742E-16
    0.576899249761         0.32525191E-03      0.11360461E+02     -0.37224080E-11      0.39697075E-03     -0.13007281E-15      0.23743363E-04     -0.63442382E-16
    0.583169893780         0.33721273E-03      0.10838990E+02     -0.30930319E-11      0.38845467E-03     -0.11085006E-15      0.26179224E-04     -0.64137483E-16
    0.589440537799         0.34940598E-03      0.10445292E+02     -0.31073695E-11      0.38375462E-03     -0.11416314E-15      0.28585612E-04     -0.64853360E-16
    0.595711181818         0.36182686E-03      0.10022971E+02     -0.31142124E-11      0.37731510E-03     -0.11723464E-15      0.30951621E-04     -0.65588496E-16
    0.601981825838         0.37447010E-03      0.96414603E+01     -0.31204077E-11      0.37172285E-03     -0.12030614E-15      0.33282563E-04     -0.66342893E-16
    0.608252469857         0.38732997E-03      0.93242084E+01     -0.31243057E-11      0.36800343E-03     -0.12330861E-15      0.35590181E-04     -0.67116118E-16
    0.614523113876         0.40040028E-03      0.90579139E+01     -0.31278265E-11      0.36578595E-03     -0.12631109E-15      0.37883895E-04     -0.67908170E-16
    0.620793757895         0.41367437E-03      0.87801118E+01     -0.31302154E-11      0.36262187E-03     -0.12927906E-15      0.40157767E-04     -0.68718833E-16
    0.627064401914         0.42714512E-03      0.85149296E+01     -0.26460443E-11      0.35949019E-03     -0.11171284E-15      0.42412002E-04     -0.69419344E-16
    0.633335045933         0.44080494E-03      0.82665236E+01     -0.26576906E-11      0.35659769E-03     -0.11464630E-15      0.44648099E-04     -0.70138250E-16
    0.639605689952         0.45464578E-03      0.80166646E+01     -0.26704465E-11      0.35318093E-03     -0.11764877E-15      0.46862771E-04     -0.70875984E-16
    0.645876333972         0.46865914E-03      0.77660331E+01     -0.26773859E-11      0.34926063E-03     -0.12040967E-15      0.49052860E-04     -0.71631030E-16
    0.652146977991         0.48283605E-03      0.75181322E+01     -0.26841704E-11      0.34499026E-03     -0.12317057E-15      0.51216171E-04     -0.72403389E-16
    0.658417622010         0.49716709E-03      0.72813262E+01     -0.26893824E-11      0.34076430E-03     -0.12586244E-15      0.53352983E-04     -0.73192627E-16
    0.664688266029         0.51164243E-03      0.70610667E+01     -0.26931604E-11      0.33686937E-03     -0.12848530E-15      0.55465371E-04     -0.73998313E-16
    0.670958910048         0.52625176E-03      0.68584975E+01     -0.23065868E-11      0.33340284E-03     -0.11212698E-15      0.57556021E-04     -0.74701421E-16
    0.677229554067         0.54098437E-03      0.66690579E+01     -0.23205060E-11      0.33018397E-03     -0.11488787E-15      0.59626488E-04     -0.75421842E-16
    0.683500198086         0.55582913E-03      0.64888194E+01     -0.23321674E-11      0.32704764E-03     -0.11754524E-15      0.61677287E-04     -0.76158927E-16
    0.689770842106         0.57077448E-03      0.63153525E+01     -0.23424053E-11      0.32389182E-03     -0.12013358E-15      0.63708297E-04     -0.76912241E-16
    0.696041486125         0.58580849E-03      0.61462933E+01     -0.23526588E-11      0.32060958E-03     -0.12272192E-15      0.65718726E-04     -0.77681787E-16
    0.702312130144         0.60091883E-03      0.59821067E+01     -0.23616691E-11      0.31723601E-03     -0.12524124E-15      0.67708000E-04     -0.78467130E-16
    0.708582774163         0.61609280E-03      0.58208709E+01     -0.20371633E-11      0.31367953E-03     -0.10978021E-15      0.69674973E-04     -0.79155523E-16
    0.714853418182         0.63131734E-03      0.56638978E+01     -0.20519713E-11      0.31001935E-03     -0.11231679E-15      0.71618994E-04     -0.79859821E-16
    0.721124062201         0.64657905E-03      0.55101679E+01     -0.20664464E-11      0.30620985E-03     -0.11483611E-15      0.73539126E-04     -0.80579918E-16
    0.727394706220         0.66186420E-03      0.53618147E+01     -0.20778907E-11      0.30238012E-03     -0.11718287E-15      0.75435245E-04     -0.81314730E-16
    0.733665350240         0.67715875E-03      0.52179206E+01     -0.20891890E-11      0.29849196E-03     -0.11951238E-15      0.77306981E-04     -0.82064149E-16
    0.739935994259         0.69244838E-03      0.50796784E+01     -0.20997913E-11      0.29462673E-03     -0.12179012E-15      0.79154481E-04     -0.82827852E-16
    0.746206638278         0.70771846E-03      0.49462258E+01     -0.21091773E-11      0.29074887E-03     -0.12398158E-15      0.80977663E-04     -0.83605296E-16
    0.752477282297         0.72295415E-03      0.48173130E+01     -0.21177218E-11      0.28685664E-03     -0.12610402E-15      0.82776439E-04     -0.84396050E-16
    0.758747926316         0.73814035E-03      0.46930013E+01     -0.18587692E-11      0.28296634E-03     -0.11207521E-15      0.84550820E-04     -0.85098833E-16
    0.765018570335         0.75326174E-03      0.45722874E+01     -0.18712877E-11      0.27902951E-03     -0.11419765E-15      0.86300515E-04     -0.85814926E-16
