 
 # Omega; pulse ft; projected flux at t=    500.250000000000     
    0.000000000000         0.23910205E-10      0.00000000E+00      0.00000000E+00     -0.36951425E-01      0.37394133E-15
    0.006276908399         0.59245936E-08     -0.61111930E+05      0.10186721E-08     -0.22462667E-01      0.37442922E-15
    0.012553816798         0.23666714E-07     -0.76465227E+04      0.50692534E-09     -0.56136936E-02      0.37215917E-15
    0.018830725196         0.53370592E-07     -0.22592984E+04      0.33961854E-09     -0.24936248E-02      0.37484257E-15
    0.025107633595         0.95237123E-07     -0.94871912E+03      0.25290145E-09     -0.14013954E-02      0.37357202E-15
    0.031384541994         0.14954832E-06     -0.48277042E+03      0.20385574E-09     -0.89583688E-03      0.37827814E-15
    0.037661450393         0.21666807E-06     -0.27723800E+03      0.16724751E-09     -0.62111664E-03      0.37469688E-15
    0.043938358791         0.29704308E-06     -0.17297729E+03      0.14209423E-09     -0.45539393E-03      0.37408871E-15
    0.050215267190         0.39120404E-06     -0.11468869E+03      0.12339822E-09     -0.34794508E-03      0.37436823E-15
    0.056492175589         0.49976695E-06     -0.79614176E+02      0.10878342E-09     -0.27427876E-03      0.37476973E-15
    0.062769083988         0.62343466E-06     -0.57247010E+02      0.96873179E-10     -0.22142186E-03      0.37468926E-15
    0.069045992387         0.76299851E-06     -0.42362414E+02      0.87346714E-10     -0.18230075E-03      0.37588442E-15
    0.075322900785         0.91934020E-06     -0.32089468E+02      0.78596209E-10     -0.15252263E-03      0.37357118E-15
    0.081599809184         0.10934337E-05     -0.24781819E+02      0.71991266E-10     -0.12931802E-03      0.37566928E-15
    0.087876717583         0.12863475E-05     -0.19448647E+02      0.65505421E-10     -0.11086549E-03      0.37340855E-15
    0.094153625982         0.14992463E-05     -0.15472845E+02      0.60328838E-10     -0.95946399E-04      0.37409634E-15
    0.100430534380         0.17333941E-05     -0.12452617E+02      0.55606180E-10     -0.83697930E-04      0.37374651E-15
    0.106707442779         0.19901556E-05     -0.10120926E+02      0.51567571E-10     -0.73508085E-04      0.37453425E-15
    0.112984351178         0.22709991E-05     -0.82952553E+01      0.47808410E-10     -0.64930834E-04      0.37421873E-15
    0.119261259577         0.25774989E-05     -0.68471275E+01      0.44508611E-10     -0.57627538E-04      0.37459820E-15
    0.125538167976         0.29113373E-05     -0.56853983E+01      0.41599109E-10     -0.51345238E-04      0.37568452E-15
    0.131815076374         0.32743070E-05     -0.47436961E+01      0.38831727E-10     -0.45887428E-04      0.37563285E-15
    0.138091984773         0.36683138E-05     -0.39725224E+01      0.36326550E-10     -0.41094803E-04      0.37578956E-15
    0.144368893172         0.40953781E-05     -0.33355812E+01      0.33953428E-10     -0.36848044E-04      0.37508228E-15
    0.150645801571         0.45576374E-05     -0.28048869E+01      0.31725702E-10     -0.33046132E-04      0.37378039E-15
    0.156922709970         0.50573481E-05     -0.23585037E+01      0.29856450E-10     -0.29600302E-04      0.37471213E-15
    0.163199618368         0.55968873E-05     -0.19793785E+01      0.28009507E-10     -0.26434970E-04      0.37407220E-15
    0.169476526767         0.61787544E-05     -0.16532073E+01      0.26391179E-10     -0.23471522E-04      0.37469053E-15
    0.175753435166         0.68055722E-05     -0.13682586E+01      0.24618953E-10     -0.20632486E-04      0.37123845E-15
    0.182030343565         0.74800884E-05     -0.11115922E+01      0.23277322E-10     -0.17788157E-04      0.37249333E-15
    0.188307251963         0.82051763E-05     -0.87042098E+00      0.22010753E-10     -0.14769737E-04      0.37348944E-15
    0.194584160362         0.89838351E-05     -0.60305579E+00      0.20802424E-10     -0.10842622E-04      0.37401650E-15
    0.200861068761         0.98191904E-05     -0.22262430E+00      0.19637153E-10     -0.42381374E-05      0.37383587E-15
    0.207137977160         0.10714494E-04      0.88225822E+00      0.18536599E-10      0.17771750E-04      0.37339160E-15
    0.213414885559         0.11673124E-04      0.29095291E+01      0.17502508E-10      0.61973731E-04      0.37280800E-15
    0.219691793957         0.12698583E-04      0.40747522E+01      0.16633294E-10      0.91720236E-04      0.37440550E-15
    0.225968702356         0.13794497E-04      0.43328067E+01      0.15749830E-10      0.10300289E-03      0.37441736E-15
    0.232245610755         0.14964614E-04      0.55407944E+01      0.14853076E-10      0.13903130E-03      0.37269788E-15
    0.238522519154         0.16212802E-04      0.69257835E+01      0.14066658E-10      0.18332435E-03      0.37234213E-15
    0.244799427552         0.17543047E-04      0.77737438E+01      0.13295505E-10      0.21694388E-03      0.37104109E-15
    0.251076335951         0.18959448E-04      0.84016484E+01      0.12512142E-10      0.24706257E-03      0.36793756E-15
    0.257353244350         0.20466216E-04      0.88151739E+01      0.12024938E-10      0.27299917E-03      0.37240312E-15
    0.263630152749         0.22067666E-04      0.93064463E+01      0.11338858E-10      0.30336658E-03      0.36961807E-15
    0.269907061148         0.23768218E-04      0.97714762E+01      0.10719959E-10      0.33509280E-03      0.36761908E-15
    0.276183969546         0.25572386E-04      0.10264729E+02      0.10109668E-10      0.37012022E-03      0.36452910E-15
    0.282460877945         0.27484778E-04      0.10749348E+02      0.95114665E-11      0.40732268E-03      0.36041591E-15
    0.288737786344         0.29510084E-04      0.11202278E+02      0.89469218E-11      0.44585712E-03      0.35609265E-15
    0.295014694743         0.31653075E-04      0.11591792E+02      0.90479845E-11      0.48433449E-03      0.37804775E-15
    0.301291603141         0.33918591E-04      0.11855747E+02      0.85525050E-11      0.51975927E-03      0.37494422E-15
    0.307568511540         0.36311537E-04      0.12060963E+02      0.80816321E-11      0.55450734E-03      0.37155608E-15
    0.313845419939         0.38836871E-04      0.12178544E+02      0.76023435E-11      0.58687600E-03      0.36635191E-15
    0.320122328338         0.41499597E-04      0.12304322E+02      0.71368488E-11      0.62116668E-03      0.36029393E-15
    0.326399236737         0.44304758E-04      0.12390429E+02      0.66960671E-11      0.65495296E-03      0.35395135E-15
    0.332676145135         0.47257422E-04      0.12508155E+02      0.62906230E-11      0.69193319E-03      0.34798824E-15
    0.338953053534         0.50362672E-04      0.12596420E+02      0.62399204E-11      0.72885125E-03      0.36105288E-15
    0.345229961933         0.53625599E-04      0.12697715E+02      0.62347071E-11      0.76808943E-03      0.37713973E-15
    0.351506870332         0.57051287E-04      0.12764622E+02      0.58575366E-11      0.80679305E-03      0.37022794E-15
    0.357783778731         0.60644802E-04      0.12812288E+02      0.55193303E-11      0.84571134E-03      0.36431904E-15
    0.364060687129         0.64411179E-04      0.12833948E+02      0.51854761E-11      0.88424028E-03      0.35727172E-15
    0.370337595528         0.68355412E-04      0.12817810E+02      0.48573815E-11      0.92132211E-03      0.34914020E-15
    0.376614503927         0.72482440E-04      0.12798895E+02      0.45503171E-11      0.95924774E-03      0.34103579E-15
    0.382891412326         0.76797129E-04      0.12738165E+02      0.46102018E-11      0.99494427E-03      0.36009065E-15
    0.389168320724         0.81304267E-04      0.12700531E+02      0.43240740E-11      0.10332854E-02      0.35179650E-15
    0.395445229123         0.86008542E-04      0.12615767E+02      0.40594104E-11      0.10685416E-02      0.34382761E-15
    0.401722137522         0.90914532E-04      0.12567470E+02      0.41433562E-11      0.11075873E-02      0.36515929E-15
    0.407999045921         0.96026689E-04      0.12470237E+02      0.38912113E-11      0.11429575E-02      0.35664830E-15
    0.414275954320         0.10134933E-03      0.12413294E+02      0.36334694E-11      0.11826077E-02      0.34615865E-15
    0.420552862718         0.10688660E-03      0.12313347E+02      0.34002181E-11      0.12187127E-02      0.33653635E-15
    0.426829771117         0.11264250E-03      0.12245998E+02      0.35083032E-11      0.12585321E-02      0.36055143E-15
    0.433106679516         0.11862082E-03      0.12144272E+02      0.32859446E-11      0.12952692E-02      0.35046835E-15
    0.439383587915         0.12482516E-03      0.12064504E+02      0.30713436E-11      0.13347205E-02      0.33978896E-15
    0.445660496313         0.13125892E-03      0.11971558E+02      0.28623247E-11      0.13730866E-02      0.32829642E-15
    0.451937404712         0.13792525E-03      0.11879128E+02      0.30031848E-11      0.14117981E-02      0.35691936E-15
    0.458214313111         0.14482706E-03      0.11799293E+02      0.27998121E-11      0.14523109E-02      0.34461366E-15
    0.464491221510         0.15196699E-03      0.11698644E+02      0.26099353E-11      0.14904926E-02      0.33252481E-15
    0.470768129909         0.15934743E-03      0.11647022E+02      0.27509387E-11      0.15352371E-02      0.36261142E-15
    0.477045038307         0.16697047E-03      0.11545308E+02      0.25660896E-11      0.15736507E-02      0.34976362E-15
    0.483321946706         0.17483788E-03      0.11551374E+02      0.24035918E-11      0.16272534E-02      0.33859634E-15
    0.489598855105         0.18295113E-03      0.11472147E+02      0.22266210E-11      0.16694058E-02      0.32401382E-15
    0.495875763504         0.19131136E-03      0.11653135E+02      0.20545056E-11      0.17507865E-02      0.30867236E-15
    0.502152671902         0.19991936E-03      0.11693770E+02      0.18786916E-11      0.18129932E-02      0.29127091E-15
    0.508429580301         0.20877557E-03      0.12850227E+02      0.20198046E-11      0.20548599E-02      0.32298383E-15
    0.514706488700         0.21788006E-03      0.12243555E+02      0.22131709E-11      0.20183103E-02      0.36483403E-15
    0.520983397099         0.22723252E-03      0.91347477E+01      0.18297556E-11      0.15515497E-02      0.31078655E-15
    0.527260305498         0.23683224E-03      0.91012308E+01      0.19605195E-11      0.15919830E-02      0.34293315E-15
    0.533537213896         0.24667813E-03      0.97255254E+01      0.20889406E-11      0.17510621E-02      0.37610973E-15
    0.539814122295         0.25676868E-03      0.91789533E+01      0.16997558E-11      0.17002528E-02      0.31485231E-15
    0.546091030694         0.26710195E-03      0.88673615E+01      0.18377080E-11      0.16889974E-02      0.35003467E-15
    0.552367939093         0.27767559E-03      0.87320816E+01      0.14707024E-11      0.17094231E-02      0.28790989E-15
    0.558644847491         0.28848680E-03      0.86608793E+01      0.16004225E-11      0.17417053E-02      0.32184541E-15
    0.564921755890         0.29953234E-03      0.84679002E+01      0.12539108E-11      0.17484519E-02      0.25890748E-15
    0.571198664289         0.31080855E-03      0.83380489E+01      0.13914609E-11      0.17668218E-02      0.29484878E-15
    0.577475572688         0.32231128E-03      0.81890748E+01      0.10594985E-11      0.17799150E-02      0.23028454E-15
    0.583752481087         0.33403594E-03      0.80779785E+01      0.16532809E-11      0.18000713E-02      0.36841190E-15
    0.590029389485         0.34597750E-03      0.79378872E+01      0.17752887E-11      0.18125988E-02      0.40538319E-15
    0.596306297884         0.35813043E-03      0.78286122E+01      0.14528303E-11      0.18309613E-02      0.33978896E-15
    0.602583206283         0.37048878E-03      0.77065126E+01      0.15740172E-11      0.18451789E-02      0.37686868E-15
    0.608860114682         0.38304611E-03      0.75993915E+01      0.12630140E-11      0.18618080E-02      0.30943130E-15
    0.615137023081         0.39579552E-03      0.74854577E+01      0.13937326E-11      0.18755986E-02      0.34922152E-15
    0.621413931479         0.40872967E-03      0.73779600E+01      0.10975772E-11      0.18897921E-02      0.28113362E-15
    0.627690839878         0.42184075E-03      0.72678351E+01      0.12250006E-11      0.19020869E-02      0.32059858E-15
    0.633967748277         0.43512051E-03      0.71614185E+01      0.93703826E-12      0.19140972E-02      0.25045070E-15
    0.640244656676         0.44856023E-03      0.70579141E+01      0.10614189E-11      0.19256339E-02      0.28959040E-15
    0.646521565074         0.46215079E-03      0.69533276E+01      0.11809085E-11      0.19356014E-02      0.32873010E-15
    0.652798473473         0.47588259E-03      0.68536216E+01      0.91086795E-12      0.19456439E-02      0.25858222E-15
    0.659075381872         0.48974566E-03      0.67506540E+01      0.10374691E-11      0.19534572E-02      0.30021558E-15
    0.665352290271         0.50372956E-03      0.66537791E+01      0.77740429E-12      0.19617186E-02      0.22920034E-15
    0.671629198670         0.51782348E-03      0.65523922E+01      0.12707345E-11      0.19673182E-02      0.38153074E-15
    0.677906107068         0.53201623E-03      0.64575766E+01      0.10121250E-11      0.19735468E-02      0.30932288E-15
    0.684183015467         0.54629619E-03      0.63585134E+01      0.11265975E-11      0.19771245E-02      0.35030572E-15
    0.690459923866         0.56065144E-03      0.62661587E+01      0.12360571E-11      0.19814285E-02      0.39085488E-15
    0.696736832265         0.57506964E-03      0.61704596E+01      0.99440554E-12      0.19833152E-02      0.31962280E-15
    0.703013740663         0.58953818E-03      0.60809244E+01      0.11025759E-11      0.19858218E-02      0.36006354E-15
    0.709290649062         0.60404409E-03      0.59886184E+01      0.87026472E-12      0.19860656E-02      0.28861462E-15
    0.715567557461         0.61857410E-03      0.59016423E+01      0.98101701E-12      0.19867193E-02      0.33024798E-15
    0.721844465860         0.63311469E-03      0.58129740E+01      0.75612001E-12      0.19854533E-02      0.25825696E-15
    0.728121374259         0.64765203E-03      0.57286044E+01      0.86451683E-12      0.19843091E-02      0.29945664E-15
    0.734398282657         0.66217208E-03      0.56437032E+01      0.64720192E-12      0.19816453E-02      0.22724878E-15
    0.740675191056         0.67666057E-03      0.55633273E+01      0.75791489E-12      0.19792481E-02      0.26964108E-15
    0.746952099455         0.69110303E-03      0.54842740E+01      0.86060471E-12      0.19760218E-02      0.31008182E-15
    0.753229007854         0.70548480E-03      0.54086128E+01      0.65722768E-12      0.19727364E-02      0.23971710E-15
    0.759505916252         0.71979107E-03      0.53332903E+01      0.10646347E-11      0.19683080E-02      0.39291487E-15
    0.765782824651         0.73400692E-03      0.52600940E+01      0.86064659E-12      0.19634081E-02      0.32124910E-15
    0.772059733050         0.74811728E-03      0.51880136E+01      0.95994295E-12      0.19576833E-02      0.36223195E-15
    0.778336641449         0.76210702E-03      0.51176312E+01      0.76373949E-12      0.19513718E-02      0.29121670E-15
    0.784613549848         0.77596097E-03      0.50481006E+01      0.86228464E-12      0.19441717E-02      0.33209113E-15
    0.790890458246         0.78966389E-03      0.49801394E+01      0.67089941E-12      0.19363773E-02      0.26085904E-15
    0.797167366645         0.80320056E-03      0.49138664E+01      0.76817122E-12      0.19280593E-02      0.30140820E-15
    0.803444275044         0.81655577E-03      0.48488474E+01      0.86483293E-12      0.19190715E-02      0.34228263E-15
    0.809721183443         0.82971435E-03      0.47843359E+01      0.68469187E-12      0.19091379E-02      0.27321895E-15
    0.815998091842         0.84266121E-03      0.47203812E+01      0.77780314E-12      0.18982940E-02      0.31279233E-15
    0.822275000240         0.85538134E-03      0.46572531E+01      0.60298462E-12      0.18866662E-02      0.24427075E-15
    0.828551908639         0.86785989E-03      0.45946643E+01      0.69852699E-12      0.18741581E-02      0.28492833E-15
    0.834828817038         0.88008214E-03      0.45322585E+01      0.53532275E-12      0.18606427E-02      0.21976778E-15
    0.841105725437         0.89203353E-03      0.44703184E+01      0.62741521E-12      0.18462546E-02      0.25912432E-15
    0.847382633835         0.90369974E-03      0.44098011E+01      0.46703935E-12      0.18314124E-02      0.19396377E-15
    0.853659542234         0.91506666E-03      0.43517605E+01      0.80541825E-12      0.18165843E-02      0.33621109E-15
    0.859936450633         0.92612043E-03      0.42952979E+01      0.89110300E-12      0.18014281E-02      0.37372449E-15
    0.866213359032         0.93684749E-03      0.42404058E+01      0.73287714E-12      0.17859693E-02      0.30867236E-15
    0.872490267431         0.94723458E-03      0.41876988E+01      0.81805303E-12      0.17704959E-02      0.34586049E-15
    0.878767175829         0.95726876E-03      0.41388676E+01      0.66987642E-12      0.17557559E-02      0.28416939E-15
    0.885044084228         0.96693747E-03      0.40936087E+01      0.75506770E-12      0.17416559E-02      0.32124910E-15
    0.891320992627         0.97622851E-03      0.40534721E+01      0.60778497E-12      0.17288889E-02      0.25923274E-15
    0.897597901026         0.98513008E-03      0.40202181E+01      0.69151536E-12      0.17182403E-02      0.29555351E-15
    0.903874809424         0.99363082E-03      0.39985251E+01      0.77346380E-12      0.17117453E-02      0.33111534E-15
    0.910151717823         0.10017198E-02      0.39860615E+01      0.62709277E-12      0.17084371E-02      0.26877372E-15
    0.916428626222         0.10093866E-02      0.39890910E+01      0.70877250E-12      0.17110211E-02      0.30401029E-15
    0.922705534621         0.10166212E-02      0.40100905E+01      0.56552496E-12      0.17205716E-02      0.24264445E-15
    0.928982443020         0.10234142E-02      0.40520300E+01      0.64646400E-12      0.17383576E-02      0.27733892E-15
    0.935259351418         0.10297566E-02      0.41290330E+01      0.49384135E-12      0.17704082E-02      0.21174468E-15
    0.941536259817         0.10356401E-02      0.42490441E+01      0.81274863E-12      0.18200595E-02      0.34813732E-15
    0.947813168216         0.10410567E-02      0.44149399E+01      0.65219259E-12      0.18884217E-02      0.27896522E-15
    0.954090076615         0.10459994E-02      0.45780867E+01      0.73924415E-12      0.19545582E-02      0.31561125E-15
    0.960366985013         0.10504613E-02      0.47762917E+01      0.83410620E-12      0.20344930E-02      0.35529305E-15
    0.966643893412         0.10544364E-02      0.49253461E+01      0.65543387E-12      0.20922480E-02      0.27842312E-15
    0.972920801811         0.10579192E-02      0.50850144E+01      0.75865505E-12      0.21532267E-02      0.32124910E-15
    0.979197710210         0.10609050E-02      0.51958060E+01      0.57278506E-12      0.21922071E-02      0.24166866E-15
    0.985474618609         0.10633895E-02      0.56022905E+01      0.66773643E-12      0.23541553E-02      0.28059152E-15
    0.991751527007         0.10653692E-02      0.65554390E+01      0.39653535E-12      0.27423417E-02      0.16588293E-15
    0.998028435406         0.10668411E-02      0.70374080E+01      0.50788517E-12      0.29294904E-02      0.21141942E-15
    1.004305343805         0.10678029E-02      0.72991483E+01      0.23776517E-12      0.30221782E-02      0.98445557E-16
    1.010582252204         0.10682532E-02      0.84673403E+01      0.31079012E-12      0.34855563E-02      0.12793586E-15
    1.016859160602         0.10681909E-02      0.10151729E+02      0.40974073E-12      0.41528919E-02      0.16761766E-15
