 
 # Omega; pulse ft; proj flux t=    500.250000000000     
    0.000000000000         0.44556337E-06      0.00000000E+00      0.00000000E+00      0.00000000E+00      0.00000000E+00      0.00000000E+00      0.00000000E+00
    0.006270644019         0.45087192E-06     -0.42640918E-01      0.15758571E-10     -0.19002479E-06      0.70226421E-16     -0.11915778E-08      0.44036489E-18
    0.012541288038         0.46684081E-06     -0.46943569E-01      0.70957963E-10     -0.10830424E-06      0.16370822E-15     -0.18707151E-08      0.14669208E-17
    0.018811932057         0.49359979E-06     -0.27717739E-01      0.11828153E-09     -0.45075654E-07      0.19235398E-15     -0.21533685E-08      0.26731042E-17
    0.025082576077         0.53136541E-06     -0.25200713E-01      0.14771000E-09     -0.33088467E-07      0.19394282E-15     -0.23608545E-08      0.38892506E-17
    0.031353220096         0.58044149E-06     -0.18174840E-01      0.17024230E-09     -0.20854010E-07      0.19533787E-15     -0.24916226E-08      0.51141448E-17
    0.037623864115         0.64121969E-06     -0.35255007E-02      0.18709621E-09     -0.37239765E-08      0.19762921E-15     -0.25149743E-08      0.63534072E-17
    0.043894508134         0.71418031E-06      0.13448056E-01      0.19581351E-09      0.13561255E-07      0.19746176E-15     -0.24299365E-08      0.75916196E-17
    0.050165152153         0.79989324E-06     -0.11022472E-01      0.19975453E-09     -0.10893102E-07      0.19741003E-15     -0.24982433E-08      0.88295076E-17
    0.056435796172         0.89901904E-06     -0.35678680E-01      0.19934514E-09     -0.35226191E-07      0.19681698E-15     -0.27191342E-08      0.10063677E-16
    0.062706440191         0.10123102E-05     -0.16515931E-01      0.19666468E-09     -0.16525218E-07      0.19677526E-15     -0.28227579E-08      0.11297584E-16
    0.068977084211         0.11406125E-05      0.58006524E-03      0.19210359E-09      0.59450130E-09      0.19688446E-15     -0.28190300E-08      0.12532177E-16
    0.075247728230         0.12848664E-05     -0.16616470E-02      0.18601302E-09     -0.17585148E-08      0.19685689E-15     -0.28300571E-08      0.13766596E-16
    0.081518372249         0.14461090E-05     -0.27300128E-02      0.17911731E-09     -0.30016004E-08      0.19693629E-15     -0.28488790E-08      0.15001514E-16
    0.087789016268         0.16254751E-05     -0.21672784E-02      0.17141849E-09     -0.24871244E-08      0.19671635E-15     -0.28644749E-08      0.16235052E-16
    0.094059660287         0.18241995E-05     -0.16818239E-02      0.16409573E-09     -0.20215856E-08      0.19724630E-15     -0.28771515E-08      0.17471913E-16
    0.100330304306         0.20436188E-05     -0.10541622E-02      0.15625352E-09     -0.13308155E-08      0.19726054E-15     -0.28854966E-08      0.18708864E-16
    0.106600948325         0.22851729E-05     -0.49580199E-03      0.14834984E-09     -0.65873226E-09      0.19710051E-15     -0.28896273E-08      0.19944811E-16
    0.112871592345         0.25504072E-05     -0.43560965E-03      0.14078441E-09     -0.61004946E-09      0.19716151E-15     -0.28934527E-08      0.21181141E-16
    0.119142236364         0.28409746E-05     -0.32405909E-03      0.13344510E-09     -0.47892607E-09      0.19721816E-15     -0.28964559E-08      0.22417826E-16
    0.125412880383         0.31586369E-05     -0.24235571E-03      0.12624711E-09     -0.37831495E-09      0.19707054E-15     -0.28988281E-08      0.23653585E-16
    0.131683524402         0.35052673E-05     -0.11568431E-03      0.11968066E-09     -0.19085645E-09      0.19744965E-15     -0.29000249E-08      0.24891721E-16
    0.137954168421         0.38828517E-05      0.38608648E-03      0.11315087E-09      0.67350875E-09      0.19738610E-15     -0.28958016E-08      0.26129459E-16
    0.144224812440         0.42934906E-05      0.82222374E-03      0.10689379E-09      0.15170616E-08      0.19722668E-15     -0.28862887E-08      0.27366197E-16
    0.150495456459         0.47394007E-05      0.10394014E-02      0.10114944E-09      0.20287381E-08      0.19742685E-15     -0.28735672E-08      0.28604191E-16
    0.156766100479         0.52229165E-05      0.12590712E-02      0.95587653E-10      0.25998835E-08      0.19738102E-15     -0.28572642E-08      0.29841897E-16
    0.163036744498         0.57464915E-05      0.16398395E-02      0.90326974E-10      0.35822946E-08      0.19732286E-15     -0.28348009E-08      0.31079239E-16
    0.169307388517         0.63126995E-05      0.20108221E-02      0.85445671E-10      0.46468166E-08      0.19745673E-15     -0.28056624E-08      0.32317419E-16
    0.175578032536         0.69242356E-05      0.32548254E-02      0.80768555E-10      0.79555833E-08      0.19741795E-15     -0.27557758E-08      0.33555357E-16
    0.181848676555         0.75839168E-05      0.45700923E-02      0.76306641E-10      0.11812751E-07      0.19723702E-15     -0.26817022E-08      0.34792160E-16
    0.188119320574         0.82946828E-05      0.12491658E-01      0.72245720E-10      0.34137298E-07      0.19743365E-15     -0.24676394E-08      0.36030196E-16
    0.194389964593         0.90595963E-05      0.38319101E-01      0.68348509E-10      0.11068608E-06      0.19742708E-15     -0.17735664E-08      0.37268191E-16
    0.200660608613         0.98818426E-05      0.24143665E+00      0.64667579E-10      0.73692228E-06      0.19738088E-15      0.28474109E-08      0.38505897E-16
    0.206931252632         0.10764730E-04      0.13277069E+01      0.61248485E-10      0.42807705E-05      0.19747634E-15      0.29690599E-07      0.39744200E-16
    0.213201896651         0.11711688E-04      0.32837368E+01      0.57976751E-10      0.11179939E-04      0.19738993E-15      0.99796019E-07      0.40981962E-16
    0.219472540670         0.12726269E-04      0.44251215E+01      0.54929081E-10      0.15903356E-04      0.19740853E-15      0.19952031E-06      0.42219841E-16
    0.225743184689         0.13812143E-04      0.47203950E+01      0.52044066E-10      0.17900594E-04      0.19736054E-15      0.31176856E-06      0.43457419E-16
    0.232013828708         0.14973100E-04      0.57773016E+01      0.49266175E-10      0.23108171E-04      0.19705587E-15      0.45667168E-06      0.44693086E-16
    0.238284472727         0.16213045E-04      0.71814824E+01      0.46728583E-10      0.30284864E-04      0.19705803E-15      0.64657727E-06      0.45928767E-16
    0.244555116747         0.17535997E-04      0.80892315E+01      0.44376612E-10      0.35950392E-04      0.19721980E-15      0.87200939E-06      0.47165462E-16
    0.250825760766         0.18946084E-04      0.86511073E+01      0.42039688E-10      0.40500623E-04      0.19681106E-15      0.11259744E-05      0.48399594E-16
    0.257096404785         0.20447546E-04      0.90483808E+01      0.39947978E-10      0.44602451E-04      0.19691675E-15      0.14056605E-05      0.49634389E-16
    0.263367048804         0.22044721E-04      0.94747743E+01      0.37888829E-10      0.49153530E-04      0.19656085E-15      0.17138848E-05      0.50866952E-16
    0.269637692823         0.23742049E-04      0.99302284E+01      0.35901563E-10      0.54192541E-04      0.19592671E-15      0.20537069E-05      0.52095538E-16
    0.275908336842         0.25544067E-04      0.10403346E+02      0.34327955E-10      0.59695412E-04      0.19697714E-15      0.24280356E-05      0.53330712E-16
    0.282178980861         0.27455397E-04      0.10887219E+02      0.32577138E-10      0.65654229E-04      0.19645300E-15      0.28397299E-05      0.54562599E-16
    0.288449624880         0.29480748E-04      0.11343937E+02      0.30893745E-10      0.71857977E-04      0.19569591E-15      0.32903257E-05      0.55789738E-16
    0.294720268900         0.31624906E-04      0.11725126E+02      0.29632147E-10      0.77979319E-04      0.19707205E-15      0.37793062E-05      0.57025507E-16
    0.300990912919         0.33892727E-04      0.11993451E+02      0.28136940E-10      0.83702798E-04      0.19636888E-15      0.43041767E-05      0.58256866E-16
    0.307261556938         0.36289132E-04      0.12174157E+02      0.26705540E-10      0.89114820E-04      0.19548453E-15      0.48629840E-05      0.59482680E-16
    0.313532200957         0.38819099E-04      0.12288798E+02      0.25699973E-10      0.94300800E-04      0.19721441E-15      0.54543107E-05      0.60719342E-16
    0.319802844976         0.41487653E-04      0.12384177E+02      0.24424297E-10      0.99574095E-04      0.19638182E-15      0.60787044E-05      0.61950782E-16
    0.326073488995         0.44299860E-04      0.12470089E+02      0.23209097E-10      0.10500237E-03      0.19542845E-15      0.67371369E-05      0.63176244E-16
    0.332344133014         0.47260816E-04      0.12566306E+02      0.22039759E-10      0.11075505E-03      0.19425076E-15      0.74316424E-05      0.64394322E-16
    0.338614777034         0.50375638E-04      0.12659624E+02      0.21298252E-10      0.11672883E-03      0.19638182E-15      0.81636073E-05      0.65625762E-16
    0.344885421053         0.53649455E-04      0.12750713E+02      0.20245879E-10      0.12293275E-03      0.19519550E-15      0.89344748E-05      0.66849764E-16
    0.351156065072         0.57087396E-04      0.12819625E+02      0.19249257E-10      0.12916893E-03      0.19395310E-15      0.97444472E-05      0.68065974E-16
    0.357426709091         0.60694581E-04      0.12863884E+02      0.18676120E-10      0.13538723E-03      0.19655869E-15      0.10593412E-04      0.69298524E-16
    0.363697353110         0.64476108E-04      0.12879566E+02      0.17768273E-10      0.14151504E-03      0.19523001E-15      0.11480803E-04      0.70522742E-16
    0.369967997129         0.68437043E-04      0.12866120E+02      0.16909615E-10      0.14750861E-03      0.19386682E-15      0.12405777E-04      0.71738412E-16
    0.376238641148         0.72582407E-04      0.12831234E+02      0.16094316E-10      0.15341897E-03      0.19243460E-15      0.13367812E-04      0.72945101E-16
    0.382509285168         0.76917163E-04      0.12776617E+02      0.15675104E-10      0.15923548E-03      0.19535943E-15      0.14366321E-04      0.74170130E-16
    0.388779929187         0.81446204E-04      0.12717936E+02      0.14926517E-10      0.16513013E-03      0.19380642E-15      0.15401794E-04      0.75385421E-16
    0.395050573206         0.86174343E-04      0.12645581E+02      0.14583967E-10      0.17096482E-03      0.19717127E-15      0.16473853E-04      0.76621812E-16
    0.401321217225         0.91106293E-04      0.12574484E+02      0.13898157E-10      0.17692496E-03      0.19554924E-15      0.17583287E-04      0.77848032E-16
    0.407591861244         0.96246660E-04      0.12491421E+02      0.13251201E-10      0.18281620E-03      0.19393584E-15      0.18729662E-04      0.79064134E-16
    0.413862505263         0.10159992E-03      0.12412570E+02      0.12635548E-10      0.18886074E-03      0.19225342E-15      0.19913941E-04      0.80269687E-16
    0.420133149282         0.10717043E-03      0.12325116E+02      0.12035850E-10      0.19485956E-03      0.19028628E-15      0.21135835E-04      0.81462905E-16
    0.426403793302         0.11296238E-03      0.12243129E+02      0.11821944E-10      0.20102397E-03      0.19410840E-15      0.22396385E-04      0.82680089E-16
    0.432674437321         0.11897978E-03      0.12150196E+02      0.11278751E-10      0.20707987E-03      0.19222753E-15      0.23694909E-04      0.83885480E-16
    0.438945081340         0.12522650E-03      0.12059628E+02      0.11100770E-10      0.21323704E-03      0.19628260E-15      0.25032043E-04      0.85116298E-16
    0.445215725359         0.13170617E-03      0.11964488E+02      0.10599066E-10      0.21936758E-03      0.19433272E-15      0.26407619E-04      0.86334889E-16
    0.451486369378         0.13842226E-03      0.11873712E+02      0.10116974E-10      0.22562669E-03      0.19224479E-15      0.27822444E-04      0.87540388E-16
    0.457757013397         0.14537797E-03      0.11780672E+02      0.96571299E-11      0.23188695E-03      0.19008784E-15      0.29276524E-04      0.88732361E-16
    0.464027657416         0.15257628E-03      0.11694733E+02      0.92174946E-11      0.23832859E-03      0.18784461E-15      0.30770998E-04      0.89910268E-16
    0.470298301436         0.16001994E-03      0.11613476E+02      0.91300548E-11      0.24490949E-03      0.19253814E-15      0.32306738E-04      0.91117606E-16
    0.476568945455         0.16771141E-03      0.11545161E+02      0.87198953E-11      0.25181381E-03      0.19019137E-15      0.33885773E-04      0.92310228E-16
    0.482839589474         0.17565286E-03      0.11496888E+02      0.86517894E-11      0.25922407E-03      0.19507471E-15      0.35511275E-04      0.93533472E-16
    0.489110233493         0.18384620E-03      0.11493658E+02      0.82728303E-11      0.26776194E-03      0.19272795E-15      0.37190314E-04      0.94742001E-16
    0.495380877512         0.19229300E-03      0.11566450E+02      0.79003802E-11      0.27827040E-03      0.19007058E-15      0.38935249E-04      0.95933866E-16
    0.501651521531         0.20099453E-03      0.11864781E+02      0.75365957E-11      0.29463513E-03      0.18715438E-15      0.40782801E-04      0.97107444E-16
    0.507922165550         0.20995173E-03      0.12997349E+02      0.71388842E-11      0.33298121E-03      0.18289225E-15      0.42870808E-04      0.98254296E-16
    0.514192809570         0.21916516E-03      0.12342611E+02      0.71779492E-11      0.32605827E-03      0.18962194E-15      0.44915403E-04      0.99443348E-16
    0.520463453589         0.22863508E-03      0.94482034E+01      0.69417377E-11      0.25724357E-03      0.18900073E-15      0.46528486E-04      0.10062850E-15
    0.526734097608         0.23836132E-03      0.88179715E+01      0.66753359E-11      0.24731799E-03      0.18722341E-15      0.48079329E-04      0.10180252E-15
    0.533004741627         0.24834337E-03      0.95515311E+01      0.63578146E-11      0.27582725E-03      0.18359973E-15      0.49808944E-04      0.10295380E-15
    0.539275385646         0.25858031E-03      0.92175694E+01      0.61018884E-11      0.27393275E-03      0.18133924E-15      0.51526678E-04      0.10409092E-15
    0.545546029665         0.26907084E-03      0.87860335E+01      0.63634407E-11      0.26857820E-03      0.19452253E-15      0.53210837E-04      0.10531070E-15
    0.551816673684         0.27981322E-03      0.86615475E+01      0.61126078E-11      0.27221470E-03      0.19210675E-15      0.54917798E-04      0.10651533E-15
    0.558087317704         0.29080531E-03      0.85798176E+01      0.58714549E-11      0.27709003E-03      0.18962194E-15      0.56655331E-04      0.10770438E-15
    0.564357961723         0.30204453E-03      0.84184974E+01      0.56395020E-11      0.27925025E-03      0.18706811E-15      0.58406410E-04      0.10887742E-15
    0.570628605742         0.31352788E-03      0.82554347E+01      0.54193336E-11      0.28112874E-03      0.18454879E-15      0.60169268E-04      0.11003466E-15
    0.576899249761         0.32525191E-03      0.81210448E+01      0.52078157E-11      0.28377522E-03      0.18197770E-15      0.61948722E-04      0.11117578E-15
    0.583169893780         0.33721273E-03      0.79993339E+01      0.54571020E-11      0.28668526E-03      0.19557512E-15      0.63746423E-04      0.11240216E-15
    0.589440537799         0.34940598E-03      0.78683438E+01      0.52528446E-11      0.28907886E-03      0.19298678E-15      0.65559133E-04      0.11361231E-15
    0.595711181818         0.36182686E-03      0.77419477E+01      0.50581886E-11      0.29144591E-03      0.19041570E-15      0.67386687E-04      0.11480634E-15
    0.601981825838         0.37447010E-03      0.76243011E+01      0.48703782E-11      0.29395204E-03      0.18777559E-15      0.69229956E-04      0.11598382E-15
    0.608252469857         0.38732997E-03      0.75097158E+01      0.46886446E-11      0.29638990E-03      0.18504920E-15      0.71088511E-04      0.11714419E-15
    0.614523113876         0.40040028E-03      0.73957462E+01      0.45152654E-11      0.29866259E-03      0.18234007E-15      0.72961318E-04      0.11828758E-15
    0.620793757895         0.41367437E-03      0.72808424E+01      0.43485427E-11      0.30070149E-03      0.17959643E-15      0.74846910E-04      0.11941377E-15
    0.627064401914         0.42714512E-03      0.71679289E+01      0.45944060E-11      0.30262143E-03      0.19397035E-15      0.76744541E-04      0.12063009E-15
    0.633335045933         0.44080494E-03      0.70566012E+01      0.44345511E-11      0.30440458E-03      0.19129573E-15      0.78653354E-04      0.12182963E-15
    0.639605689952         0.45464578E-03      0.69480116E+01      0.42778845E-11      0.30610052E-03      0.18846581E-15      0.80572801E-04      0.12301144E-15
    0.645876333972         0.46865914E-03      0.68395102E+01      0.41292673E-11      0.30759226E-03      0.18570491E-15      0.82501603E-04      0.12417593E-15
    0.652146977991         0.48283605E-03      0.67333752E+01      0.39863953E-11      0.30897952E-03      0.18292676E-15      0.84439103E-04      0.12532299E-15
    0.658417622010         0.49716709E-03      0.66270817E+01      0.38482430E-11      0.31014582E-03      0.18009684E-15      0.86383917E-04      0.12645232E-15
    0.664688266029         0.51164243E-03      0.65227433E+01      0.37149410E-11      0.31118704E-03      0.17723241E-15      0.88335261E-04      0.12756368E-15
    0.670958910048         0.52625176E-03      0.64179588E+01      0.39525768E-11      0.31198753E-03      0.19214126E-15      0.90291623E-04      0.12876853E-15
    0.677229554067         0.54098437E-03      0.63153395E+01      0.38230145E-11      0.31267143E-03      0.18927682E-15      0.92252274E-04      0.12995542E-15
    0.683500198086         0.55582913E-03      0.62127842E+01      0.36992173E-11      0.31313499E-03      0.18644690E-15      0.94215833E-04      0.13112456E-15
    0.689770842106         0.57077448E-03      0.61122678E+01      0.35798897E-11      0.31347634E-03      0.18359973E-15      0.96181531E-04      0.13227585E-15
    0.696041486125         0.58580849E-03      0.60120085E+01      0.34634895E-11      0.31360487E-03      0.18066627E-15      0.98148036E-04      0.13340874E-15
    0.702312130144         0.60091883E-03      0.59141821E+01      0.33524768E-11      0.31363391E-03      0.17778459E-15      0.10011472E-03      0.13452356E-15
    0.708582774163         0.61609280E-03      0.58172911E+01      0.35776841E-11      0.31348662E-03      0.19279697E-15      0.10208049E-03      0.13573253E-15
    0.714853418182         0.63131734E-03      0.57223606E+01      0.34699721E-11      0.31321937E-03      0.18993254E-15      0.10404457E-03      0.13692352E-15
    0.721124062201         0.64657905E-03      0.56279665E+01      0.33646902E-11      0.31275612E-03      0.18698183E-15      0.10600575E-03      0.13809602E-15
    0.727394706220         0.66186420E-03      0.55354005E+01      0.32663059E-11      0.31216951E-03      0.18420367E-15      0.10796326E-03      0.13925110E-15
    0.733665350240         0.67715875E-03      0.54446291E+01      0.31693775E-11      0.31146085E-03      0.18130473E-15      0.10991632E-03      0.14038799E-15
    0.739935994259         0.69244838E-03      0.53568872E+01      0.30762032E-11      0.31070513E-03      0.17842304E-15      0.11186464E-03      0.14150682E-15
    0.746206638278         0.70771846E-03      0.52712609E+01      0.29874874E-11      0.30985507E-03      0.17561038E-15      0.11380763E-03      0.14260801E-15
    0.752477282297         0.72295415E-03      0.51871662E+01      0.29001313E-11      0.30888030E-03      0.17269418E-15      0.11574451E-03      0.14369092E-15
    0.758747926316         0.73814035E-03      0.51042273E+01      0.31071065E-11      0.30776137E-03      0.18734420E-15      0.11767437E-03      0.14486568E-15
    0.765018570335         0.75326174E-03      0.50229199E+01      0.30235236E-11      0.30652991E-03      0.18451428E-15      0.11959651E-03      0.14602271E-15
