 
 # six columns.
 # Omega (column 1); |pulse ft|^2 (2); cross section (Mb) (3); flux (column 5)
 
  0.0000      0.181428E-10      0.000000E+00      0.000000E+00     -0.304071E+00     -0.280863E-14
  0.0063      0.992347E-09     -0.150126E+07     -0.227676E-07     -0.184853E+00     -0.280342E-14
  0.0126      0.391764E-08     -0.190133E+06     -0.116248E-07     -0.462124E-01     -0.282543E-14
  0.0188      0.880204E-08     -0.564151E+05     -0.769128E-08     -0.205383E-01     -0.280006E-14
  0.0251      0.156590E-07     -0.237824E+05     -0.579263E-08     -0.115522E-01     -0.281375E-14
  0.0314      0.245072E-07     -0.121559E+05     -0.455781E-08     -0.739291E-02     -0.277195E-14
  0.0377      0.353708E-07     -0.701801E+04     -0.383518E-08     -0.513351E-02     -0.280535E-14
  0.0439      0.482795E-07     -0.440653E+04     -0.328405E-08     -0.377110E-02     -0.281048E-14
  0.0502      0.632683E-07     -0.294196E+04     -0.285273E-08     -0.288695E-02     -0.279940E-14
  0.0565      0.803778E-07     -0.205817E+04     -0.252788E-08     -0.228078E-02     -0.280128E-14
  0.0628      0.996540E-07     -0.149377E+04     -0.226566E-08     -0.184708E-02     -0.280153E-14
  0.0690      0.121149E-06     -0.111681E+04     -0.204470E-08     -0.152620E-02     -0.279423E-14
  0.0753      0.144919E-06     -0.855619E+03     -0.187503E-08     -0.128213E-02     -0.280969E-14
  0.0816      0.171028E-06     -0.669052E+03     -0.171269E-08     -0.109217E-02     -0.279582E-14
  0.0879      0.199544E-06     -0.532311E+03     -0.159074E-08     -0.941420E-03     -0.281330E-14
  0.0942      0.230543E-06     -0.429868E+03     -0.147279E-08     -0.819790E-03     -0.280871E-14
  0.1004      0.264104E-06     -0.351647E+03     -0.137314E-08     -0.720225E-03     -0.281239E-14
  0.1067      0.300314E-06     -0.290923E+03     -0.127961E-08     -0.637692E-03     -0.280486E-14
  0.1130      0.339265E-06     -0.243088E+03     -0.120050E-08     -0.568509E-03     -0.280760E-14
  0.1193      0.381057E-06     -0.204916E+03     -0.112622E-08     -0.509939E-03     -0.280264E-14
  0.1255      0.425793E-06     -0.174100E+03     -0.105791E-08     -0.459911E-03     -0.279462E-14
  0.1318      0.473586E-06     -0.148963E+03     -0.998609E-09     -0.416835E-03     -0.279435E-14
  0.1381      0.524552E-06     -0.128264E+03     -0.944141E-09     -0.379469E-03     -0.279325E-14
  0.1444      0.578816E-06     -0.111073E+03     -0.896239E-09     -0.346839E-03     -0.279861E-14
  0.1506      0.636508E-06     -0.966843E+02     -0.853829E-09     -0.318167E-03     -0.280977E-14
  0.1569      0.697766E-06     -0.845538E+02     -0.809848E-09     -0.292826E-03     -0.280466E-14
  0.1632      0.762734E-06     -0.742578E+02     -0.770949E-09     -0.270301E-03     -0.280628E-14
  0.1695      0.831562E-06     -0.654626E+02     -0.733718E-09     -0.250168E-03     -0.280393E-14
  0.1758      0.904409E-06     -0.579025E+02     -0.707017E-09     -0.232066E-03     -0.283363E-14
  0.1820      0.981440E-06     -0.513582E+02     -0.671750E-09     -0.215666E-03     -0.282085E-14
  0.1883      0.106283E-05     -0.456498E+02     -0.639434E-09     -0.200672E-03     -0.281089E-14
  0.1946      0.114875E-05     -0.405767E+02     -0.610752E-09     -0.186572E-03     -0.280825E-14
  0.2009      0.123939E-05     -0.358885E+02     -0.584932E-09     -0.172473E-03     -0.281107E-14
  0.2071      0.133496E-05     -0.302165E+02     -0.560058E-09     -0.151671E-03     -0.281120E-14
  0.2134      0.143564E-05     -0.230340E+02     -0.538365E-09     -0.120682E-03     -0.282065E-14
  0.2197      0.154164E-05     -0.179588E+02     -0.511587E-09     -0.981522E-04     -0.279603E-14
  0.2260      0.165320E-05     -0.150379E+02     -0.492564E-09     -0.856872E-04     -0.280668E-14
  0.2322      0.177052E-05     -0.104702E+02     -0.472229E-09     -0.621670E-04     -0.280388E-14
  0.2385      0.189385E-05     -0.577116E+01     -0.454335E-09     -0.356889E-04     -0.280961E-14
  0.2448      0.202343E-05     -0.234410E+01     -0.435950E-09     -0.150906E-04     -0.280651E-14
  0.2511      0.215950E-05      0.453901E+00     -0.419512E-09      0.304061E-05     -0.281024E-14
  0.2574      0.230232E-05      0.267059E+01     -0.403845E-09      0.186078E-04     -0.281387E-14
  0.2636      0.245216E-05      0.490040E+01     -0.388829E-09      0.355007E-04     -0.281685E-14
  0.2699      0.260928E-05      0.696400E+01     -0.373131E-09      0.524347E-04     -0.280945E-14
  0.2762      0.277398E-05      0.897019E+01     -0.359282E-09      0.701713E-04     -0.281056E-14
  0.2825      0.294655E-05      0.108764E+02     -0.345967E-09      0.883674E-04     -0.281088E-14
  0.2887      0.312727E-05      0.126224E+02     -0.333530E-09      0.106477E-03     -0.281352E-14
  0.2950      0.331647E-05      0.141766E+02     -0.320691E-09      0.124124E-03     -0.280784E-14
  0.3013      0.351445E-05      0.154069E+02     -0.308156E-09      0.139971E-03     -0.279958E-14
  0.3076      0.372154E-05      0.164601E+02     -0.296783E-09      0.155119E-03     -0.279687E-14
  0.3138      0.393807E-05      0.172825E+02     -0.286953E-09      0.168899E-03     -0.280434E-14
  0.3201      0.416438E-05      0.180662E+02     -0.277294E-09      0.183043E-03     -0.280949E-14
  0.3264      0.440082E-05      0.187379E+02     -0.267957E-09      0.196770E-03     -0.281386E-14
  0.3327      0.464775E-05      0.194162E+02     -0.258687E-09      0.211270E-03     -0.281481E-14
  0.3390      0.490554E-05      0.200185E+02     -0.249506E-09      0.225647E-03     -0.281243E-14
  0.3452      0.517456E-05      0.205906E+02     -0.240499E-09      0.240373E-03     -0.280758E-14
  0.3515      0.545519E-05      0.210870E+02     -0.232906E-09      0.254885E-03     -0.281520E-14
  0.3578      0.574782E-05      0.214974E+02     -0.225074E-09      0.268981E-03     -0.281617E-14
  0.3641      0.605285E-05      0.218492E+02     -0.217550E-09      0.282927E-03     -0.281708E-14
  0.3703      0.637069E-05      0.220891E+02     -0.210284E-09      0.295950E-03     -0.281739E-14
  0.3766      0.670175E-05      0.223148E+02     -0.203502E-09      0.309269E-03     -0.282041E-14
  0.3829      0.704646E-05      0.224302E+02     -0.196129E-09      0.321500E-03     -0.281118E-14
  0.3892      0.740524E-05      0.225731E+02     -0.190196E-09      0.334538E-03     -0.281875E-14
  0.3954      0.777853E-05      0.226127E+02     -0.183927E-09      0.346430E-03     -0.281779E-14
  0.4017      0.816678E-05      0.226998E+02     -0.177600E-09      0.359419E-03     -0.281204E-14
  0.4080      0.857044E-05      0.226939E+02     -0.171963E-09      0.371284E-03     -0.281341E-14
  0.4143      0.898997E-05      0.227358E+02     -0.166751E-09      0.384266E-03     -0.281832E-14
  0.4206      0.942583E-05      0.227033E+02     -0.161620E-09      0.396314E-03     -0.282128E-14
  0.4268      0.987850E-05      0.227023E+02     -0.155998E-09      0.409222E-03     -0.281195E-14
  0.4331      0.103484E-04      0.226532E+02     -0.151203E-09      0.421563E-03     -0.281380E-14
  0.4394      0.108362E-04      0.226106E+02     -0.146876E-09      0.434308E-03     -0.282120E-14
  0.4457      0.113421E-04      0.225599E+02     -0.142404E-09      0.447178E-03     -0.282271E-14
  0.4519      0.118669E-04      0.224817E+02     -0.137614E-09      0.459769E-03     -0.281432E-14
  0.4582      0.124109E-04      0.224461E+02     -0.133554E-09      0.473507E-03     -0.281735E-14
  0.4645      0.129746E-04      0.223460E+02     -0.129774E-09      0.486149E-03     -0.282329E-14
  0.4708      0.135586E-04      0.223603E+02     -0.125328E-09      0.501579E-03     -0.281131E-14
  0.4770      0.141634E-04      0.222670E+02     -0.121829E-09      0.514901E-03     -0.281716E-14
  0.4833      0.147895E-04      0.224110E+02     -0.117682E-09      0.534111E-03     -0.280467E-14
  0.4896      0.154375E-04      0.223948E+02     -0.114698E-09      0.549965E-03     -0.281673E-14
  0.4959      0.161077E-04      0.229612E+02     -0.111778E-09      0.580911E-03     -0.282795E-14
  0.5022      0.168009E-04      0.233370E+02     -0.108847E-09      0.608128E-03     -0.283638E-14
  0.5084      0.175175E-04      0.270702E+02     -0.105285E-09      0.726415E-03     -0.282527E-14
  0.5147      0.182580E-04      0.302839E+02     -0.101818E-09      0.836675E-03     -0.281302E-14
  0.5210      0.190230E-04      0.263081E+02     -0.998945E-10      0.748162E-03     -0.284085E-14
  0.5273      0.198130E-04      0.252440E+02     -0.964919E-10      0.738815E-03     -0.282402E-14
  0.5335      0.206285E-04      0.326431E+02     -0.931863E-10      0.982987E-03     -0.280613E-14
  0.5398      0.214702E-04      0.387182E+02     -0.920025E-10      0.119939E-02     -0.284999E-14
  0.5461      0.223384E-04      0.353397E+02     -0.886516E-10      0.112591E-02     -0.282440E-14
  0.5524      0.232338E-04      0.318763E+02     -0.873285E-10      0.104427E-02     -0.286088E-14
  0.5586      0.241569E-04      0.321643E+02     -0.843069E-10      0.108326E-02     -0.283936E-14
  0.5649      0.251082E-04      0.318535E+02     -0.831438E-10      0.110265E-02     -0.287812E-14
  0.5712      0.260882E-04      0.313090E+02     -0.803029E-10      0.111373E-02     -0.285655E-14
  0.5775      0.270976E-04      0.302830E+02     -0.792709E-10      0.110675E-02     -0.289710E-14
  0.5838      0.281367E-04      0.295634E+02     -0.749003E-10      0.110982E-02     -0.281177E-14
  0.5900      0.292061E-04      0.288125E+02     -0.723472E-10      0.111079E-02     -0.278916E-14
  0.5963      0.303063E-04      0.280932E+02     -0.714580E-10      0.111203E-02     -0.282858E-14
  0.6026      0.314379E-04      0.274195E+02     -0.691188E-10      0.111416E-02     -0.280857E-14
  0.6089      0.326014E-04      0.268204E+02     -0.683890E-10      0.111850E-02     -0.285205E-14
  0.6151      0.337971E-04      0.262877E+02     -0.659894E-10      0.112490E-02     -0.282380E-14
  0.6214      0.350257E-04      0.257635E+02     -0.652741E-10      0.113100E-02     -0.286549E-14
  0.6277      0.362876E-04      0.252674E+02     -0.631072E-10      0.113769E-02     -0.284148E-14
  0.6340      0.375833E-04      0.247691E+02     -0.623992E-10      0.114364E-02     -0.288110E-14
  0.6402      0.389132E-04      0.242719E+02     -0.604087E-10      0.114897E-02     -0.285958E-14
  0.6465      0.402778E-04      0.237693E+02     -0.584482E-10      0.115332E-02     -0.283600E-14
  0.6528      0.416776E-04      0.232800E+02     -0.578915E-10      0.115760E-02     -0.287867E-14
  0.6591      0.431129E-04      0.228005E+02     -0.558703E-10      0.116163E-02     -0.284646E-14
  0.6654      0.445843E-04      0.223491E+02     -0.553990E-10      0.116639E-02     -0.289124E-14
  0.6716      0.460920E-04      0.219102E+02     -0.524249E-10      0.117110E-02     -0.280212E-14
  0.6779      0.476366E-04      0.214982E+02     -0.520143E-10      0.117659E-02     -0.284674E-14
  0.6842      0.492184E-04      0.210896E+02     -0.503560E-10      0.118161E-02     -0.282137E-14
  0.6905      0.508377E-04      0.207039E+02     -0.487909E-10      0.118728E-02     -0.279795E-14
  0.6967      0.524950E-04      0.203136E+02     -0.484340E-10      0.119204E-02     -0.284218E-14
  0.7030      0.541906E-04      0.199457E+02     -0.469855E-10      0.119746E-02     -0.282082E-14
  0.7093      0.559247E-04      0.195693E+02     -0.466563E-10      0.120173E-02     -0.286511E-14
  0.7156      0.576977E-04      0.192185E+02     -0.451488E-10      0.120693E-02     -0.283535E-14
  0.7218      0.595099E-04      0.188584E+02     -0.448240E-10      0.121088E-02     -0.287812E-14
  0.7281      0.613616E-04      0.185255E+02     -0.434934E-10      0.121595E-02     -0.285476E-14
  0.7344      0.632531E-04      0.181827E+02     -0.432225E-10      0.121972E-02     -0.289943E-14
  0.7407      0.651845E-04      0.178671E+02     -0.418511E-10      0.122468E-02     -0.286864E-14
  0.7470      0.671560E-04      0.175436E+02     -0.406299E-10      0.122847E-02     -0.284505E-14
  0.7532      0.691680E-04      0.172450E+02     -0.404140E-10      0.123337E-02     -0.289043E-14
  0.7595      0.712204E-04      0.169395E+02     -0.383160E-10      0.123716E-02     -0.279838E-14
  0.7658      0.733136E-04      0.166542E+02     -0.381157E-10      0.124181E-02     -0.284207E-14
  0.7721      0.754477E-04      0.163659E+02     -0.369907E-10      0.124563E-02     -0.281540E-14
  0.7783      0.776227E-04      0.160920E+02     -0.368384E-10      0.124993E-02     -0.286137E-14
  0.7846      0.798387E-04      0.158196E+02     -0.357832E-10      0.125373E-02     -0.283589E-14
  0.7909      0.820958E-04      0.155545E+02     -0.357162E-10      0.125752E-02     -0.288750E-14
  0.7972      0.843941E-04      0.152963E+02     -0.346945E-10      0.126125E-02     -0.286072E-14
  0.8034      0.867335E-04      0.150388E+02     -0.336725E-10      0.126443E-02     -0.283112E-14
  0.8097      0.891141E-04      0.147931E+02     -0.335602E-10      0.126801E-02     -0.287666E-14
  0.8160      0.915357E-04      0.145413E+02     -0.326210E-10      0.127045E-02     -0.285004E-14
  0.8223      0.939985E-04      0.143060E+02     -0.325154E-10      0.127372E-02     -0.289498E-14
  0.8286      0.965021E-04      0.140599E+02     -0.316238E-10      0.127542E-02     -0.286869E-14
  0.8348      0.990467E-04      0.138335E+02     -0.315329E-10      0.127828E-02     -0.291379E-14
  0.8411      0.101632E-03      0.135940E+02     -0.306750E-10      0.127932E-02     -0.288680E-14
  0.8474      0.104258E-03      0.133765E+02     -0.306183E-10      0.128181E-02     -0.293401E-14
  0.8537      0.106924E-03      0.131465E+02     -0.290641E-10      0.128248E-02     -0.283530E-14
  0.8599      0.109630E-03      0.129389E+02     -0.282865E-10      0.128473E-02     -0.280863E-14
  0.8662      0.112376E-03      0.127226E+02     -0.282613E-10      0.128552E-02     -0.285557E-14
  0.8725      0.115162E-03      0.125267E+02     -0.275392E-10      0.128776E-02     -0.283107E-14
  0.8788      0.117986E-03      0.123283E+02     -0.274745E-10      0.128918E-02     -0.287303E-14
  0.8850      0.120850E-03      0.121477E+02     -0.267938E-10      0.129190E-02     -0.284950E-14
  0.8913      0.123752E-03      0.119767E+02     -0.267721E-10      0.129511E-02     -0.289504E-14
  0.8976      0.126693E-03      0.118223E+02     -0.260903E-10      0.129964E-02     -0.286815E-14
  0.9039      0.129671E-03      0.116947E+02     -0.254316E-10      0.130670E-02     -0.284159E-14
  0.9102      0.132686E-03      0.115845E+02     -0.254407E-10      0.131535E-02     -0.288864E-14
  0.9164      0.135738E-03      0.115231E+02     -0.248757E-10      0.132930E-02     -0.286967E-14
  0.9227      0.138826E-03      0.114916E+02     -0.248674E-10      0.134660E-02     -0.291401E-14
  0.9290      0.141950E-03      0.115378E+02     -0.242478E-10      0.137310E-02     -0.288571E-14
  0.9353      0.145109E-03      0.116434E+02     -0.243010E-10      0.140701E-02     -0.293656E-14
  0.9415      0.148302E-03      0.118451E+02     -0.230668E-10      0.145312E-02     -0.282977E-14
  0.9478      0.151529E-03      0.121409E+02     -0.231693E-10      0.151175E-02     -0.288495E-14
  0.9541      0.154790E-03      0.124431E+02     -0.226178E-10      0.157230E-02     -0.285796E-14
  0.9604      0.158082E-03      0.128275E+02     -0.220641E-10      0.164453E-02     -0.282868E-14
  0.9666      0.161406E-03      0.130300E+02     -0.222645E-10      0.169453E-02     -0.289547E-14
  0.9729      0.164761E-03      0.132886E+02     -0.216634E-10      0.175271E-02     -0.285731E-14
  0.9792      0.168146E-03      0.136147E+02     -0.218271E-10      0.182087E-02     -0.291921E-14
  0.9855      0.171561E-03      0.165345E+02     -0.213667E-10      0.224190E-02     -0.289710E-14
  0.9918      0.175003E-03      0.211514E+02     -0.220446E-10      0.290694E-02     -0.302969E-14
  0.9980      0.178473E-03      0.211930E+02     -0.213449E-10      0.295173E-02     -0.297288E-14
  1.0043      0.181970E-03      0.201398E+02     -0.217410E-10      0.284211E-02     -0.306808E-14
  1.0106      0.185492E-03      0.225056E+02     -0.212476E-10      0.321734E-02     -0.303750E-14
  1.0169      0.189039E-03      0.272094E+02     -0.207748E-10      0.393970E-02     -0.300801E-14
  1.0231      0.192609E-03      0.298897E+02     -0.217120E-10      0.438246E-02     -0.318343E-14
  1.0294      0.196202E-03      0.246123E+02     -0.191226E-10      0.365359E-02     -0.283866E-14
  1.0357      0.199816E-03      0.166145E+02     -0.194294E-10      0.249656E-02     -0.291954E-14
  1.0420      0.203451E-03      0.174359E+02     -0.198867E-10      0.265157E-02     -0.302427E-14
  1.0482      0.207105E-03      0.221283E+02     -0.183247E-10      0.340510E-02     -0.281979E-14
  1.0545      0.210777E-03      0.185949E+02     -0.187596E-10      0.289477E-02     -0.292041E-14
  1.0608      0.214466E-03      0.130110E+02     -0.188152E-10      0.204875E-02     -0.296269E-14
  1.0671      0.218170E-03      0.111842E+02     -0.176063E-10      0.178098E-02     -0.280364E-14
  1.0734      0.221889E-03      0.101760E+02     -0.177814E-10      0.163842E-02     -0.286294E-14
  1.0796      0.225621E-03      0.958618E+01     -0.179266E-10      0.156028E-02     -0.291780E-14
  1.0859      0.229365E-03      0.913070E+01     -0.180383E-10      0.150208E-02     -0.296746E-14
  1.0922      0.233120E-03      0.879676E+01     -0.171617E-10      0.146238E-02     -0.285297E-14
  1.0985      0.236884E-03      0.852710E+01     -0.172533E-10      0.143221E-02     -0.289786E-14
  1.1047      0.240656E-03      0.830357E+01     -0.173777E-10      0.140882E-02     -0.294838E-14
  1.1110      0.244434E-03      0.814562E+01     -0.174942E-10      0.139579E-02     -0.299771E-14
  1.1173      0.248218E-03      0.803448E+01     -0.167039E-10      0.139020E-02     -0.289027E-14
  1.1236      0.252005E-03      0.818961E+01     -0.168563E-10      0.143063E-02     -0.294458E-14
  1.1298      0.255795E-03      0.915367E+01     -0.171260E-10      0.161407E-02     -0.301983E-14
  1.1361      0.259585E-03      0.977703E+01     -0.162904E-10      0.173986E-02     -0.289894E-14
  1.1424      0.263375E-03      0.904906E+01     -0.164671E-10      0.162485E-02     -0.295684E-14
  1.1487      0.267163E-03      0.867812E+01     -0.166083E-10      0.157202E-02     -0.300855E-14
  1.1550      0.270947E-03      0.884798E+01     -0.168058E-10      0.161666E-02     -0.307068E-14
  1.1612      0.274727E-03      0.847428E+01     -0.149919E-10      0.156149E-02     -0.276244E-14
  1.1675      0.278499E-03      0.799115E+01     -0.151675E-10      0.148466E-02     -0.281795E-14
  1.1738      0.282264E-03      0.773578E+01     -0.153259E-10      0.144885E-02     -0.287043E-14
  1.1801      0.286019E-03      0.748156E+01     -0.146100E-10      0.141233E-02     -0.275799E-14
  1.1863      0.289762E-03      0.728101E+01     -0.147527E-10      0.138509E-02     -0.280646E-14
  1.1926      0.293493E-03      0.710098E+01     -0.149149E-10      0.136103E-02     -0.285872E-14
  1.1989      0.297209E-03      0.693979E+01     -0.150491E-10      0.133993E-02     -0.290566E-14
  1.2052      0.300909E-03      0.678719E+01     -0.144144E-10      0.131987E-02     -0.280310E-14
  1.2114      0.304592E-03      0.664341E+01     -0.145524E-10      0.130095E-02     -0.284972E-14
  1.2177      0.308256E-03      0.651319E+01     -0.147008E-10      0.128413E-02     -0.289840E-14
  1.2240      0.311898E-03      0.639237E+01     -0.140971E-10      0.126866E-02     -0.279778E-14
  1.2303      0.315519E-03      0.628237E+01     -0.142407E-10      0.125487E-02     -0.284451E-14
  1.2366      0.319115E-03      0.617890E+01     -0.143576E-10      0.124193E-02     -0.288582E-14
  1.2428      0.322685E-03      0.608208E+01     -0.144869E-10      0.122991E-02     -0.292951E-14
  1.2491      0.326229E-03      0.598764E+01     -0.139323E-10      0.121796E-02     -0.283400E-14
  1.2554      0.329743E-03      0.589756E+01     -0.140677E-10      0.120649E-02     -0.287791E-14
