 
 # Omega; pulse ft; proj flux t=    500.250000000000     
    0.000000000000         0.44556337E-06      0.00000000E+00      0.00000000E+00      0.00000000E+00      0.00000000E+00      0.00000000E+00      0.00000000E+00
    0.006270644019         0.45087192E-06     -0.42641062E-01     -0.53990920E-10     -0.19002543E-06     -0.24060489E-15     -0.11915818E-08     -0.15087476E-17
    0.012541288038         0.46684081E-06     -0.46943697E-01     -0.24514715E-09     -0.10830453E-06     -0.56558279E-15     -0.18707210E-08     -0.50553159E-17
    0.018811932057         0.49359979E-06     -0.27717563E-01     -0.39831986E-09     -0.45075367E-07     -0.64776309E-15     -0.21533726E-08     -0.91172077E-17
    0.025082576077         0.53136541E-06     -0.25200539E-01     -0.49976528E-09     -0.33088239E-07     -0.65619044E-15     -0.23608572E-08     -0.13231944E-16
    0.031353220096         0.58044149E-06     -0.18174692E-01     -0.57828415E-09     -0.20853840E-07     -0.66352954E-15     -0.24916242E-08     -0.17392702E-16
    0.037623864115         0.64121969E-06     -0.35253576E-02     -0.62771008E-09     -0.37238253E-08     -0.66304840E-15     -0.25149749E-08     -0.21550442E-16
    0.043894508134         0.71418031E-06      0.13448179E-01     -0.66020308E-09      0.13561378E-07     -0.66576031E-15     -0.24299364E-08     -0.25725188E-16
    0.050165152153         0.79989324E-06     -0.11022359E-01     -0.67498867E-09     -0.10892990E-07     -0.66706637E-15     -0.24982424E-08     -0.29908124E-16
    0.056435796172         0.89901904E-06     -0.35678578E-01     -0.67709524E-09     -0.35226091E-07     -0.66850809E-15     -0.27191327E-08     -0.34100100E-16
    0.062706440191         0.10123102E-05     -0.16515863E-01     -0.66855114E-09     -0.16525150E-07     -0.66892708E-15     -0.28227560E-08     -0.38294704E-16
    0.068977084211         0.11406125E-05      0.58009966E-03     -0.65344174E-09      0.59453657E-09     -0.66970392E-15     -0.28190279E-08     -0.42494179E-16
    0.075247728230         0.12848664E-05     -0.16616752E-02     -0.63289245E-09     -0.17585447E-08     -0.66978773E-15     -0.28300551E-08     -0.46694179E-16
    0.081518372249         0.14461090E-05     -0.27300953E-02     -0.60956251E-09     -0.30016911E-08     -0.67020312E-15     -0.28488777E-08     -0.50896784E-16
    0.087789016268         0.16254751E-05     -0.21673045E-02     -0.58429268E-09     -0.24871543E-08     -0.67052233E-15     -0.28644737E-08     -0.55101391E-16
    0.094059660287         0.18241995E-05     -0.16818009E-02     -0.55740918E-09     -0.20215579E-08     -0.67001684E-15     -0.28771502E-08     -0.59302828E-16
    0.100330304306         0.20436188E-05     -0.10541497E-02     -0.53098332E-09     -0.13307997E-08     -0.67033409E-15     -0.28854952E-08     -0.63506255E-16
    0.106600948325         0.22851729E-05     -0.49579854E-03     -0.50472692E-09     -0.65872767E-09     -0.67059009E-15     -0.28896258E-08     -0.67711287E-16
    0.112871592345         0.25504072E-05     -0.43560750E-03     -0.47877289E-09     -0.61004644E-09     -0.67049740E-15     -0.28934512E-08     -0.71915737E-16
    0.119142236364         0.28409746E-05     -0.32405821E-03     -0.45373953E-09     -0.47892478E-09     -0.67058045E-15     -0.28964544E-08     -0.76120708E-16
    0.125412880383         0.31586369E-05     -0.24235714E-03     -0.42972480E-09     -0.37831718E-09     -0.67079629E-15     -0.28988266E-08     -0.80327033E-16
    0.131683524402         0.35052673E-05     -0.11568842E-03     -0.40637241E-09     -0.19086322E-09     -0.67043487E-15     -0.29000235E-08     -0.84531091E-16
    0.137954168421         0.38828517E-05      0.38607944E-03     -0.38440243E-09      0.67349647E-09     -0.67057101E-15     -0.28958002E-08     -0.88736004E-16
    0.144224812440         0.42934906E-05      0.82221459E-03     -0.36354731E-09      0.15170447E-08     -0.67077078E-15     -0.28862874E-08     -0.92942168E-16
    0.150495456459         0.47394007E-05      0.10393923E-02     -0.34355071E-09      0.20287204E-08     -0.67055369E-15     -0.28735660E-08     -0.97146972E-16
    0.156766100479         0.52229165E-05      0.12590625E-02     -0.32476460E-09      0.25998656E-08     -0.67061349E-15     -0.28572632E-08     -0.10135215E-15
    0.163036744498         0.57464915E-05      0.16398339E-02     -0.30705349E-09      0.35822823E-08     -0.67077055E-15     -0.28347999E-08     -0.10555831E-15
    0.169307388517         0.63126995E-05      0.20108191E-02     -0.29021450E-09      0.46468097E-08     -0.67065782E-15     -0.28056615E-08     -0.10976377E-15
    0.175578032536         0.69242356E-05      0.32548243E-02     -0.27435475E-09      0.79555806E-08     -0.67058960E-15     -0.27557748E-08     -0.11396880E-15
    0.181848676555         0.75839168E-05      0.45700926E-02     -0.25952429E-09      0.11812752E-07     -0.67081708E-15     -0.26817013E-08     -0.11817525E-15
    0.188119320574         0.82946828E-05      0.12491658E-01     -0.24544218E-09      0.34137299E-07     -0.67074626E-15     -0.24676384E-08     -0.12238126E-15
    0.194389964593         0.90595963E-05      0.38319101E-01     -0.23220356E-09      0.11068607E-06     -0.67072819E-15     -0.17735655E-08     -0.12658716E-15
    0.200660608613         0.98818426E-05      0.24143665E+00     -0.21978296E-09      0.73692227E-06     -0.67083004E-15      0.28474117E-08     -0.13079370E-15
    0.206931252632         0.10764730E-04      0.13277069E+01     -0.20803399E-09      0.42807704E-05     -0.67073972E-15      0.29690599E-07     -0.13499967E-15
    0.213201896651         0.11711688E-04      0.32837368E+01     -0.19702214E-09      0.11179939E-04     -0.67078933E-15      0.99796020E-07     -0.13920595E-15
    0.219472540670         0.12726269E-04      0.44251215E+01     -0.18665817E-09      0.15903356E-04     -0.67082707E-15      0.19952031E-06     -0.14341247E-15
    0.225743184689         0.13812143E-04      0.47203950E+01     -0.17692244E-09      0.17900594E-04     -0.67092198E-15      0.31176856E-06     -0.14761958E-15
    0.232013828708         0.14973100E-04      0.57773016E+01     -0.16782186E-09      0.23108171E-04     -0.67125739E-15      0.45667167E-06     -0.15182880E-15
    0.238284472727         0.16213045E-04      0.71814824E+01     -0.15916448E-09      0.30284864E-04     -0.67120885E-15      0.64657727E-06     -0.15603771E-15
    0.244555116747         0.17535997E-04      0.80892314E+01     -0.15100798E-09      0.35950392E-04     -0.67111395E-15      0.87200939E-06     -0.16024603E-15
    0.250825760766         0.18946084E-04      0.86511073E+01     -0.14343115E-09      0.40500623E-04     -0.67148063E-15      0.11259744E-05     -0.16445664E-15
    0.257096404785         0.20447546E-04      0.90483808E+01     -0.13620311E-09      0.44602451E-04     -0.67139004E-15      0.14056605E-05     -0.16866669E-15
    0.263367048804         0.22044721E-04      0.94747743E+01     -0.12949823E-09      0.49153529E-04     -0.67181496E-15      0.17138848E-05     -0.17287940E-15
    0.269637692823         0.23742049E-04      0.99302284E+01     -0.12321428E-09      0.54192541E-04     -0.67242106E-15      0.20537069E-05     -0.17709591E-15
    0.275908336842         0.25544067E-04      0.10403346E+02     -0.11700156E-09      0.59695412E-04     -0.67136631E-15      0.24280356E-05     -0.18130581E-15
    0.282178980861         0.27455397E-04      0.10887219E+02     -0.11141267E-09      0.65654228E-04     -0.67186241E-15      0.28397299E-05     -0.18551882E-15
    0.288449624880         0.29480748E-04      0.11343937E+02     -0.10618652E-09      0.71857977E-04     -0.67263676E-15      0.32903257E-05     -0.18973669E-15
    0.294720268900         0.31624906E-04      0.11725126E+02     -0.10093468E-09      0.77979319E-04     -0.67127788E-15      0.37793062E-05     -0.19394603E-15
    0.300990912919         0.33892727E-04      0.11993451E+02     -0.96288046E-10      0.83702798E-04     -0.67199830E-15      0.43041767E-05     -0.19815990E-15
    0.307261556938         0.36289132E-04      0.12174157E+02     -0.91917388E-10      0.89114820E-04     -0.67283520E-15      0.48629840E-05     -0.20237901E-15
    0.313532200957         0.38819099E-04      0.12288798E+02     -0.87450515E-10      0.94300800E-04     -0.67107081E-15      0.54543107E-05     -0.20658705E-15
    0.319802844976         0.41487653E-04      0.12384177E+02     -0.83578491E-10      0.99574096E-04     -0.67200693E-15      0.60787044E-05     -0.21080097E-15
    0.326073488995         0.44299860E-04      0.12470089E+02     -0.79922351E-10      0.10500237E-03     -0.67297324E-15      0.67371369E-05     -0.21502094E-15
    0.332344133014         0.47260816E-04      0.12566306E+02     -0.76474229E-10      0.11075505E-03     -0.67401721E-15      0.74316424E-05     -0.21924747E-15
    0.338614777034         0.50375638E-04      0.12659624E+02     -0.72878077E-10      0.11672883E-03     -0.67197673E-15      0.81636073E-05     -0.22346119E-15
    0.344885421053         0.53649455E-04      0.12750713E+02     -0.69818037E-10      0.12293275E-03     -0.67313286E-15      0.89344748E-05     -0.22768217E-15
    0.351156065072         0.57087396E-04      0.12819625E+02     -0.66921996E-10      0.12916893E-03     -0.67429761E-15      0.97444472E-05     -0.23191045E-15
    0.357426709091         0.60694581E-04      0.12863884E+02     -0.63830982E-10      0.13538723E-03     -0.67179555E-15      0.10593412E-04     -0.23612304E-15
    0.363697353110         0.64476108E-04      0.12879566E+02     -0.61255314E-10      0.14151504E-03     -0.67304658E-15      0.11480803E-04     -0.24034348E-15
    0.369967997129         0.68437043E-04      0.12866120E+02     -0.58823186E-10      0.14750861E-03     -0.67440114E-15      0.12405777E-04     -0.24457241E-15
    0.376238641148         0.72582407E-04      0.12831234E+02     -0.56523491E-10      0.15341897E-03     -0.67583336E-15      0.13367812E-04     -0.24881032E-15
    0.382509285168         0.76917163E-04      0.12776617E+02     -0.53992332E-10      0.15923548E-03     -0.67290853E-15      0.14366321E-04     -0.25302989E-15
    0.388779929187         0.81446204E-04      0.12717936E+02     -0.51941461E-10      0.16513013E-03     -0.67440977E-15      0.15401794E-04     -0.25725887E-15
    0.395050573206         0.86174343E-04      0.12645581E+02     -0.49637689E-10      0.17096482E-03     -0.67108806E-15      0.16473853E-04     -0.26146702E-15
    0.401321217225         0.91106293E-04      0.12574484E+02     -0.47806225E-10      0.17692496E-03     -0.67264107E-15      0.17583287E-04     -0.26568492E-15
    0.407591861244         0.96246660E-04      0.12491421E+02     -0.46068527E-10      0.18281620E-03     -0.67422859E-15      0.18729662E-04     -0.26991276E-15
    0.413862505263         0.10159992E-03      0.12412570E+02     -0.44428840E-10      0.18886074E-03     -0.67599729E-15      0.19913941E-04     -0.27415170E-15
    0.420133149282         0.10717043E-03      0.12325116E+02     -0.42873929E-10      0.19485956E-03     -0.67783501E-15      0.21135835E-04     -0.27840216E-15
    0.426403793302         0.11296238E-03      0.12243129E+02     -0.41047861E-10      0.20102397E-03     -0.67397838E-15      0.22396385E-04     -0.28262844E-15
    0.432674437321         0.11897978E-03      0.12150196E+02     -0.39653819E-10      0.20707987E-03     -0.67583336E-15      0.23694909E-04     -0.28686635E-15
    0.438945081340         0.12522650E-03      0.12059628E+02     -0.37991469E-10      0.21323704E-03     -0.67176103E-15      0.25032043E-04     -0.29107873E-15
    0.445215725359         0.13170617E-03      0.11964488E+02     -0.36740042E-10      0.21936758E-03     -0.67362464E-15      0.26407619E-04     -0.29530279E-15
    0.451486369378         0.13842226E-03      0.11873712E+02     -0.35557880E-10      0.22562669E-03     -0.67567806E-15      0.27822444E-04     -0.29953972E-15
    0.457757013397         0.14537797E-03      0.11780672E+02     -0.34436400E-10      0.23188695E-03     -0.67783501E-15      0.29276524E-04     -0.30379019E-15
    0.464027657416         0.15257628E-03      0.11694733E+02     -0.33367059E-10      0.23832859E-03     -0.67999196E-15      0.30770998E-04     -0.30805417E-15
    0.470298301436         0.16001994E-03      0.11613476E+02     -0.32020652E-10      0.24490949E-03     -0.67526392E-15      0.32306738E-04     -0.31228851E-15
    0.476568945455         0.16771141E-03      0.11545161E+02     -0.31063935E-10      0.25181381E-03     -0.67754166E-15      0.33885773E-04     -0.31653714E-15
    0.482839589474         0.17565286E-03      0.11496888E+02     -0.29827819E-10      0.25922407E-03     -0.67253754E-15      0.35511275E-04     -0.32075438E-15
    0.489110233493         0.18384620E-03      0.11493658E+02     -0.28967128E-10      0.26776194E-03     -0.67483253E-15      0.37190314E-04     -0.32498601E-15
    0.495380877512         0.19229300E-03      0.11566450E+02     -0.28155191E-10      0.27827040E-03     -0.67736911E-15      0.38935249E-04     -0.32923355E-15
    0.501651521531         0.20099453E-03      0.11864781E+02     -0.27391905E-10      0.29463513E-03     -0.68021628E-15      0.40782801E-04     -0.33349895E-15
    0.507922165550         0.20995173E-03      0.12997349E+02     -0.26712723E-10      0.33298121E-03     -0.68435763E-15      0.42870808E-04     -0.33779031E-15
    0.514192809570         0.21916516E-03      0.12342611E+02     -0.25648317E-10      0.32605827E-03     -0.67755892E-15      0.44915403E-04     -0.34203904E-15
    0.520463453589         0.22863508E-03      0.94482034E+01     -0.24901654E-10      0.25724357E-03     -0.67799031E-15      0.46528486E-04     -0.34629048E-15
    0.526734097608         0.23836132E-03      0.88179715E+01     -0.24234238E-10      0.24731799E-03     -0.67969862E-15      0.48079329E-04     -0.35055263E-15
    0.533004741627         0.24834337E-03      0.95515311E+01     -0.23655970E-10      0.27582725E-03     -0.68313248E-15      0.49808944E-04     -0.35483631E-15
    0.539275385646         0.25858031E-03      0.92175694E+01     -0.23058159E-10      0.27393275E-03     -0.68525492E-15      0.51526678E-04     -0.35913330E-15
    0.545546029665         0.26907084E-03      0.87860335E+01     -0.21981050E-10      0.26857820E-03     -0.67193359E-15      0.53210837E-04     -0.36334675E-15
    0.551816673684         0.27981322E-03      0.86615475E+01     -0.21450405E-10      0.27221470E-03     -0.67414231E-15      0.54917798E-04     -0.36757406E-15
    0.558087317704         0.29080531E-03      0.85798176E+01     -0.20943606E-10      0.27709003E-03     -0.67638554E-15      0.56655331E-04     -0.37181543E-15
    0.564357961723         0.30204453E-03      0.84184974E+01     -0.20464198E-10      0.27925025E-03     -0.67881858E-15      0.58406410E-04     -0.37607206E-15
    0.570628605742         0.31352788E-03      0.82554347E+01     -0.20001623E-10      0.28112874E-03     -0.68113083E-15      0.60169268E-04     -0.38034319E-15
    0.576899249761         0.32525191E-03      0.81210448E+01     -0.19558691E-10      0.28377522E-03     -0.68344308E-15      0.61948722E-04     -0.38462882E-15
    0.583169893780         0.33721273E-03      0.79993339E+01     -0.18685302E-10      0.28668526E-03     -0.66965585E-15      0.63746423E-04     -0.38882799E-15
    0.589440537799         0.34940598E-03      0.78683438E+01     -0.18289612E-10      0.28907886E-03     -0.67195085E-15      0.65559133E-04     -0.39304156E-15
    0.595711181818         0.36182686E-03      0.77419477E+01     -0.17909242E-10      0.29144591E-03     -0.67419408E-15      0.67386687E-04     -0.39726919E-15
    0.601981825838         0.37447010E-03      0.76243011E+01     -0.17548489E-10      0.29395204E-03     -0.67657535E-15      0.69229956E-04     -0.40151175E-15
    0.608252469857         0.38732997E-03      0.75097158E+01     -0.17202919E-10      0.29638990E-03     -0.67895662E-15      0.71088511E-04     -0.40576925E-15
    0.614523113876         0.40040028E-03      0.73957462E+01     -0.16871462E-10      0.29866259E-03     -0.68132064E-15      0.72961318E-04     -0.41004157E-15
    0.620793757895         0.41367437E-03      0.72808424E+01     -0.16556048E-10      0.30070149E-03     -0.68377094E-15      0.74846910E-04     -0.41432925E-15
    0.627064401914         0.42714512E-03      0.71679289E+01     -0.15846430E-10      0.30262143E-03     -0.66901739E-15      0.76744541E-04     -0.41852442E-15
    0.633335045933         0.44080494E-03      0.70566012E+01     -0.15560930E-10      0.30440458E-03     -0.67126062E-15      0.78653354E-04     -0.42273366E-15
    0.639605689952         0.45464578E-03      0.69480116E+01     -0.15291420E-10      0.30610052E-03     -0.67367641E-15      0.80572801E-04     -0.42695804E-15
    0.645876333972         0.46865914E-03      0.68395102E+01     -0.15032191E-10      0.30759226E-03     -0.67604043E-15      0.82501603E-04     -0.43119725E-15
    0.652146977991         0.48283605E-03      0.67333752E+01     -0.14781363E-10      0.30897952E-03     -0.67828366E-15      0.84439103E-04     -0.43545053E-15
    0.658417622010         0.49716709E-03      0.66270816E+01     -0.14543092E-10      0.31014582E-03     -0.68061316E-15      0.86383917E-04     -0.43971841E-15
    0.664688266029         0.51164243E-03      0.65227433E+01     -0.14315417E-10      0.31118704E-03     -0.68295993E-15      0.88335261E-04     -0.44400101E-15
    0.670958910048         0.52625176E-03      0.64179588E+01     -0.13731255E-10      0.31198753E-03     -0.66749890E-15      0.90291623E-04     -0.44818666E-15
    0.677229554067         0.54098437E-03      0.63153395E+01     -0.13528153E-10      0.31267143E-03     -0.66977664E-15      0.92252274E-04     -0.45238659E-15
    0.683500198086         0.55582913E-03      0.62127842E+01     -0.13332246E-10      0.31313499E-03     -0.67196810E-15      0.94215833E-04     -0.45660026E-15
    0.689770842106         0.57077448E-03      0.61122678E+01     -0.13144992E-10      0.31347634E-03     -0.67415956E-15      0.96181531E-04     -0.46082767E-15
    0.696041486125         0.58580849E-03      0.60120085E+01     -0.12966087E-10      0.31360487E-03     -0.67635103E-15      0.98148036E-04     -0.46506883E-15
    0.702312130144         0.60091883E-03      0.59141821E+01     -0.12794598E-10      0.31363391E-03     -0.67850798E-15      0.10011472E-03     -0.46932351E-15
    0.708582774163         0.61609280E-03      0.58172911E+01     -0.12297268E-10      0.31348662E-03     -0.66268458E-15      0.10208049E-03     -0.47347897E-15
    0.714853418182         0.63131734E-03      0.57223606E+01     -0.12146006E-10      0.31321937E-03     -0.66482428E-15      0.10404457E-03     -0.47764785E-15
    0.721124062201         0.64657905E-03      0.56279665E+01     -0.12000915E-10      0.31275612E-03     -0.66691221E-15      0.10600575E-03     -0.48182982E-15
    0.727394706220         0.66186420E-03      0.55354005E+01     -0.11858756E-10      0.31216951E-03     -0.66877581E-15      0.10796326E-03     -0.48602347E-15
    0.733665350240         0.67715875E-03      0.54446291E+01     -0.11725520E-10      0.31146085E-03     -0.67076021E-15      0.10991632E-03     -0.49022957E-15
    0.739935994259         0.69244838E-03      0.53568872E+01     -0.11597643E-10      0.31070513E-03     -0.67267558E-15      0.11186464E-03     -0.49444768E-15
    0.746206638278         0.70771846E-03      0.52712609E+01     -0.11473220E-10      0.30985507E-03     -0.67441840E-15      0.11380763E-03     -0.49867672E-15
    0.752477282297         0.72295415E-03      0.51871662E+01     -0.11357399E-10      0.30888030E-03     -0.67629926E-15      0.11574451E-03     -0.50291755E-15
    0.758747926316         0.73814035E-03      0.51042273E+01     -0.10954289E-10      0.30776137E-03     -0.66049312E-15      0.11767437E-03     -0.50705927E-15
    0.765018570335         0.75326174E-03      0.50229199E+01     -0.10849397E-10      0.30652991E-03     -0.66209789E-15      0.11959651E-03     -0.51121105E-15
