 
 # six columns.
 # Omega (column 1); |pulse ft|^2 (2); cross section (Mb) (3); flux (column 5)
 
  0.0000      0.108082E-08      0.000000E+00      0.000000E+00     -0.487755E-01      0.376652E-15
  0.0157      0.365496E-07     -0.163134E+05      0.205679E-09     -0.296376E-01      0.373670E-15
  0.0313      0.144457E-06     -0.205537E+04      0.104476E-09     -0.737930E-02      0.375093E-15
  0.0470      0.329330E-06     -0.596525E+03      0.691726E-10     -0.325503E-02      0.377451E-15
  0.0627      0.598798E-06     -0.243212E+03      0.503345E-10     -0.180977E-02      0.374544E-15
  0.0783      0.963710E-06     -0.118873E+03      0.391704E-10     -0.113888E-02      0.375276E-15
  0.0940      0.143829E-05     -0.648061E+02      0.316358E-10     -0.772198E-03      0.376957E-15
  0.1097      0.204034E-05     -0.378798E+02      0.259060E-10     -0.548819E-03      0.375337E-15
  0.1254      0.279142E-05     -0.231290E+02      0.216769E-10     -0.401151E-03      0.375967E-15
  0.1410      0.371710E-05     -0.144488E+02      0.183026E-10     -0.296626E-03      0.375744E-15
  0.1567      0.484714E-05     -0.902346E+01      0.156221E-10     -0.217408E-03      0.376394E-15
  0.1724      0.621571E-05     -0.541007E+01      0.134041E-10     -0.151956E-03      0.376489E-15
  0.1880      0.786152E-05     -0.266147E+01      0.115774E-10     -0.866690E-04      0.377011E-15
  0.2037      0.982797E-05      0.736391E+00      0.100076E-10      0.276723E-04      0.376068E-15
  0.2194      0.121631E-04      0.645780E+01      0.874573E-11      0.278881E-03      0.377685E-15
  0.2350      0.149197E-04      0.130793E+02      0.759189E-11      0.646653E-03      0.375351E-15
  0.2507      0.181551E-04      0.175473E+02      0.671448E-11      0.989707E-03      0.378712E-15
  0.2664      0.219309E-04      0.202295E+02      0.594815E-11      0.129721E-02      0.381422E-15
  0.2820      0.263125E-04      0.227457E+02      0.515713E-11      0.165275E-02      0.374727E-15
  0.2977      0.313692E-04      0.247752E+02      0.461997E-11      0.203322E-02      0.379145E-15
  0.3134      0.371729E-04      0.258242E+02      0.417897E-11      0.238583E-02      0.386084E-15
  0.3290      0.437978E-04      0.264390E+02      0.341202E-11      0.274091E-02      0.353721E-15
  0.3447      0.513194E-04      0.269860E+02      0.308940E-11      0.312906E-02      0.358220E-15
  0.3604      0.598138E-04      0.271654E+02      0.281560E-11      0.351162E-02      0.363967E-15
  0.3761      0.693562E-04      0.271910E+02      0.259492E-11      0.390586E-02      0.372749E-15
  0.3917      0.800204E-04      0.269300E+02      0.239665E-11      0.428464E-02      0.381314E-15
  0.4074      0.918766E-04      0.265463E+02      0.224124E-11      0.466287E-02      0.393674E-15
  0.4231      0.104991E-03      0.262541E+02      0.210010E-11      0.507461E-02      0.405925E-15
  0.4387      0.119424E-03      0.257027E+02      0.198832E-11      0.544916E-02      0.421538E-15
  0.4544      0.135229E-03      0.254703E+02      0.152957E-11      0.590366E-02      0.354534E-15
  0.4701      0.152450E-03      0.250054E+02      0.145851E-11      0.631622E-02      0.368412E-15
  0.4857      0.171123E-03      0.251762E+02      0.139404E-11      0.690801E-02      0.382507E-15
  0.5014      0.191270E-03      0.263329E+02      0.135604E-11      0.782369E-02      0.402890E-15
  0.5171      0.212903E-03      0.270365E+02      0.132394E-11      0.867032E-02      0.424574E-15
  0.5327      0.236019E-03      0.303041E+02      0.133352E-11      0.104565E-01      0.460135E-15
  0.5484      0.260600E-03      0.342635E+02      0.136512E-11      0.126811E-01      0.505238E-15
  0.5641      0.286615E-03      0.336492E+02      0.899705E-12      0.133165E-01      0.356052E-15
  0.5797      0.314013E-03      0.312397E+02      0.911866E-12      0.131786E-01      0.384675E-15
  0.5954      0.342728E-03      0.295582E+02      0.929630E-12      0.132514E-01      0.416767E-15
  0.6111      0.372678E-03      0.279209E+02      0.937679E-12      0.132622E-01      0.445390E-15
  0.6268      0.403762E-03      0.264920E+02      0.955967E-12      0.132922E-01      0.479651E-15
  0.6424      0.435862E-03      0.251739E+02      0.607323E-12      0.133025E-01      0.320924E-15
  0.6581      0.468845E-03      0.238894E+02      0.293874E-12      0.132557E-01      0.163064E-15
  0.6738      0.502560E-03      0.227274E+02      0.655433E-12      0.132034E-01      0.380772E-15
  0.6894      0.536842E-03      0.216444E+02      0.373276E-12      0.131268E-01      0.226381E-15
  0.7051      0.571513E-03      0.206464E+02      0.700712E-12      0.130339E-01      0.442354E-15
  0.7208      0.606380E-03      0.196938E+02      0.442123E-12      0.129043E-01      0.289699E-15
  0.7364      0.641241E-03      0.187967E+02      0.737965E-12      0.127474E-01      0.500468E-15
  0.7521      0.675884E-03      0.179842E+02      0.500650E-12      0.125875E-01      0.350414E-15
  0.7678      0.710089E-03      0.172031E+02      0.279354E-12      0.123920E-01      0.201228E-15
  0.7834      0.743634E-03      0.164983E+02      0.552605E-12      0.121968E-01      0.408527E-15
  0.7991      0.776290E-03      0.158132E+02      0.349646E-12      0.119644E-01      0.264545E-15
  0.8148      0.807831E-03      0.151730E+02      0.597554E-12      0.117167E-01      0.461436E-15
  0.8304      0.838031E-03      0.145666E+02      0.407216E-12      0.114488E-01      0.320056E-15
  0.8461      0.866670E-03      0.139572E+02      0.637120E-12      0.111346E-01      0.508274E-15
  0.8618      0.893533E-03      0.134214E+02      0.464001E-12      0.108384E-01      0.374700E-15
  0.8775      0.918415E-03      0.128997E+02      0.675625E-12      0.105159E-01      0.550775E-15
  0.8931      0.941124E-03      0.124770E+02      0.515740E-12      0.102400E-01      0.423273E-15
  0.9088      0.961482E-03      0.121938E+02      0.368416E-12      0.100478E-01      0.303577E-15
  0.9245      0.979324E-03      0.121170E+02      0.219713E-12      0.999743E-02      0.181279E-15
  0.9401      0.994507E-03      0.125052E+02      0.425312E-12      0.103030E-01      0.350414E-15
  0.9558      0.100691E-02      0.132887E+02      0.264280E-12      0.109033E-01      0.216840E-15
  0.9715      0.101641E-02      0.140517E+02      0.490687E-12      0.114506E-01      0.399854E-15
  0.9871      0.102295E-02      0.165839E+02      0.301977E-12      0.133850E-01      0.243729E-15
  1.0028      0.102647E-02      0.210581E+02      0.614705E-12      0.167881E-01      0.490059E-15
  1.0185      0.102692E-02      0.218259E+02      0.358958E-12      0.171401E-01      0.281893E-15
  1.0341      0.102430E-02      0.183193E+02      0.695971E-12      0.141322E-01      0.536897E-15
  1.0498      0.101863E-02      0.152002E+02      0.486642E-12      0.114870E-01      0.367761E-15
  1.0655      0.100994E-02      0.124499E+02      0.708458E-12      0.919110E-02      0.523019E-15
  1.0811      0.998303E-03      0.101209E+02      0.563232E-12      0.727861E-02      0.405058E-15
  1.0968      0.983805E-03      0.926135E+01      0.731907E-12      0.646997E-02      0.511310E-15
  1.1125      0.966556E-03      0.887099E+01      0.378767E-12      0.600286E-02      0.256305E-15
  1.1282      0.946688E-03      0.889988E+01      0.549426E-12      0.581669E-02      0.359088E-15
  1.1438      0.924350E-03      0.910758E+01      0.458895E-12      0.573237E-02      0.288831E-15
  1.1595      0.899712E-03      0.885277E+01      0.638663E-12      0.535017E-02      0.385976E-15
  1.1752      0.872957E-03      0.828451E+01      0.562190E-12      0.479309E-02      0.325261E-15
  1.1908      0.844284E-03      0.766039E+01      0.730401E-12      0.423002E-02      0.403323E-15
  1.2065      0.813901E-03      0.726336E+01      0.671475E-12      0.381624E-02      0.352799E-15
  1.2222      0.782028E-03      0.690861E+01      0.832359E-12      0.344299E-02      0.414816E-15
  1.2378      0.748889E-03      0.660077E+01      0.789678E-12      0.311030E-02      0.372098E-15
  1.2535      0.714714E-03      0.635010E+01      0.948266E-12      0.281994E-02      0.421104E-15
  1.2692      0.679734E-03      0.610651E+01      0.923234E-12      0.254721E-02      0.385109E-15
  1.2848      0.644181E-03      0.593221E+01      0.919025E-12      0.231647E-02      0.358871E-15
  1.3005      0.608281E-03      0.578101E+01      0.124049E-11      0.210594E-02      0.451895E-15
  1.3162      0.572258E-03      0.569563E+01      0.932975E-12      0.192873E-02      0.315937E-15
  1.3318      0.536328E-03      0.554249E+01      0.126590E-11      0.173834E-02      0.397035E-15
  1.3475      0.500696E-03      0.541033E+01      0.131275E-11      0.156573E-02      0.379904E-15
  1.3632      0.465558E-03      0.526877E+01      0.135039E-11      0.140146E-02      0.359196E-15
  1.3789      0.431098E-03      0.508671E+01      0.143592E-11      0.123865E-02      0.349655E-15
  1.3945      0.397484E-03      0.490740E+01      0.180459E-11      0.108943E-02      0.400613E-15
  1.4102      0.364870E-03      0.473303E+01      0.192718E-11      0.953789E-03      0.388361E-15
  1.4259      0.333394E-03      0.459285E+01      0.205071E-11      0.836403E-03      0.373453E-15
  1.4415      0.303176E-03      0.445289E+01      0.224877E-11      0.729400E-03      0.368358E-15
  1.4572      0.274321E-03      0.436052E+01      0.269350E-11      0.639338E-03      0.394921E-15
  1.4729      0.246914E-03      0.427043E+01      0.297773E-11      0.557580E-03      0.388795E-15
  1.4885      0.221025E-03      0.424024E+01      0.326721E-11      0.490372E-03      0.377844E-15
  1.5042      0.196705E-03      0.416992E+01      0.368506E-11      0.424706E-03      0.375324E-15
  1.5199      0.173988E-03      0.410874E+01      0.413301E-11      0.366330E-03      0.368493E-15
  1.5355      0.152891E-03      0.413874E+01      0.476506E-11      0.320953E-03      0.369523E-15
  1.5512      0.133418E-03      0.422310E+01      0.566355E-11      0.282897E-03      0.379389E-15
  1.5669      0.115556E-03      0.430793E+01      0.662344E-11      0.247445E-03      0.380447E-15
  1.5825      0.992794E-04      0.436710E+01      0.763971E-11      0.213377E-03      0.373277E-15
  1.5982      0.845493E-04      0.450754E+01      0.909536E-11      0.185723E-03      0.374754E-15
  1.6139      0.713163E-04      0.470755E+01      0.109852E-10      0.162018E-03      0.378075E-15
  1.6296      0.595208E-04      0.501099E+01      0.133734E-10      0.142553E-03      0.380447E-15
  1.6452      0.490949E-04      0.537652E+01      0.158124E-10      0.124958E-03      0.367504E-15
  1.6609      0.399633E-04      0.589192E+01      0.201240E-10      0.110415E-03      0.377126E-15
  1.6766      0.320452E-04      0.660541E+01      0.249736E-10      0.983322E-04      0.371773E-15
  1.6922      0.252554E-04      0.768267E+01      0.326478E-10      0.893017E-04      0.379491E-15
  1.7079      0.195057E-04      0.922722E+01      0.422034E-10      0.820773E-04      0.375405E-15
  1.7236      0.147063E-04      0.116685E+02      0.569144E-10      0.775426E-04      0.378224E-15
  1.7392      0.107667E-04      0.157005E+02      0.773526E-10      0.756993E-04      0.372952E-15
  1.7549      0.759746E-05      0.219376E+02      0.112967E-09      0.739701E-04      0.380907E-15
  1.7706      0.511054E-05      0.341670E+02      0.167248E-09      0.768090E-04      0.375981E-15
  1.7862      0.322071E-05      0.624860E+02      0.270421E-09      0.877499E-04      0.379755E-15
  1.8019      0.184624E-05      0.118931E+03      0.470156E-09      0.949081E-04      0.375188E-15
  1.8176      0.909606E-06      0.233171E+03      0.967344E-09      0.908838E-04      0.377045E-15
  1.8332      0.338107E-06      0.629502E+03      0.262072E-08      0.904236E-04      0.376449E-15
  1.8489      0.643392E-07      0.346606E+04      0.138180E-07      0.939393E-04      0.374504E-15
  1.8646      0.265554E-07      0.810459E+04      0.338705E-07      0.898988E-04      0.375703E-15
  1.8803      0.168906E-06      0.120165E+04      0.541791E-08      0.840735E-04      0.379064E-15
  1.8959      0.441574E-06      0.525219E+03      0.208821E-08      0.952744E-04      0.378800E-15
  1.9116      0.800805E-06      0.371104E+03      0.114420E-08      0.121082E-03      0.373325E-15
  1.9273      0.120884E-05      0.267967E+03      0.768929E-09      0.130907E-03      0.375635E-15
  1.9429      0.163375E-05      0.218670E+03      0.577934E-09      0.143209E-03      0.378495E-15
  1.9586      0.204923E-05      0.211323E+03      0.469962E-09      0.172205E-03      0.382967E-15
  1.9743      0.243428E-05      0.176449E+03      0.391424E-09      0.169448E-03      0.375893E-15
  1.9899      0.277283E-05      0.143116E+03      0.348283E-09      0.155319E-03      0.377980E-15
  2.0056      0.305338E-05      0.155370E+03      0.322327E-09      0.184228E-03      0.382195E-15
  2.0213      0.326853E-05      0.181305E+03      0.286406E-09      0.228345E-03      0.360714E-15
  2.0369      0.341454E-05      0.171412E+03      0.287745E-09      0.223793E-03      0.375676E-15
  2.0526      0.349083E-05      0.132592E+03      0.279170E-09      0.175627E-03      0.369781E-15
  2.0683      0.349952E-05      0.122284E+03      0.290281E-09      0.161147E-03      0.382534E-15
  2.0839      0.344495E-05      0.130555E+03      0.282776E-09      0.168090E-03      0.364075E-15
  2.0996      0.333321E-05      0.102606E+03      0.305699E-09      0.126866E-03      0.377980E-15
  2.1153      0.317171E-05      0.596365E+02      0.319716E-09      0.696449E-04      0.373372E-15
  2.1310      0.296878E-05      0.396993E+02      0.351692E-09      0.430763E-04      0.381609E-15
  2.1466      0.273325E-05      0.375459E+02      0.378459E-09      0.372338E-04      0.375314E-15
  2.1623      0.247413E-05      0.443110E+02      0.425242E-09      0.394886E-04      0.378963E-15
  2.1780      0.220032E-05      0.506708E+02      0.474714E-09      0.398699E-04      0.373525E-15
  2.1936      0.192030E-05      0.472194E+02      0.556872E-09      0.321942E-04      0.379676E-15
  2.2093      0.164197E-05      0.401689E+02      0.648345E-09      0.232516E-04      0.375291E-15
  2.2250      0.137242E-05      0.386520E+02      0.786905E-09      0.185690E-04      0.378041E-15
  2.2406      0.111784E-05      0.425400E+02      0.961664E-09      0.165294E-04      0.373666E-15
  2.2563      0.883383E-06      0.504801E+02      0.123928E-08      0.153930E-04      0.377895E-15
  2.2720      0.673152E-06      0.618515E+02      0.162262E-08      0.142729E-04      0.374438E-15
  2.2876      0.490156E-06      0.781015E+02      0.226881E-08      0.130334E-04      0.378614E-15
  2.3033      0.336336E-06      0.106587E+03      0.329302E-08      0.121221E-04      0.374514E-15
  2.3190      0.212604E-06      0.157423E+03      0.529515E-08      0.112408E-04      0.378099E-15
  2.3346      0.118912E-06      0.261035E+03      0.941599E-08      0.103552E-04      0.373529E-15
  2.3503      0.543446E-07      0.537860E+03      0.210056E-07      0.968616E-05      0.378284E-15
  2.3660      0.172177E-07      0.164502E+04      0.661622E-07      0.932366E-05      0.374995E-15
  2.3817      0.520141E-08      0.536407E+04      0.222216E-06      0.912408E-05      0.377981E-15
  2.3973      0.154419E-07      0.176089E+04      0.746468E-07      0.883405E-05      0.374489E-15
  2.4130      0.446912E-07      0.588184E+03      0.262583E-07      0.848461E-05      0.378779E-15
  2.4287      0.894354E-07      0.282465E+03      0.130200E-07      0.810140E-05      0.373426E-15
  2.4443      0.146020E-06      0.166226E+03      0.812944E-08      0.773400E-05      0.378238E-15
  2.4600      0.210769E-06      0.111328E+03      0.557270E-08      0.742901E-05      0.371869E-15
  2.4757      0.280096E-06      0.812771E+02      0.428944E-08      0.716201E-05      0.377978E-15
  2.4913      0.350598E-06      0.630261E+02      0.339792E-08      0.690796E-05      0.372429E-15
  2.5070      0.419147E-06      0.512034E+02      0.289132E-08      0.666750E-05      0.376496E-15
  2.5227      0.482958E-06      0.433842E+02      0.250863E-08      0.646892E-05      0.374056E-15
  2.5383      0.539644E-06      0.379195E+02      0.229743E-08      0.627873E-05      0.380409E-15
  2.5540      0.587260E-06      0.339771E+02      0.208874E-08      0.608480E-05      0.374062E-15
  2.5697      0.624325E-06      0.312833E+02      0.200835E-08      0.591965E-05      0.380035E-15
  2.5854      0.649834E-06      0.295027E+02      0.191335E-08      0.577561E-05      0.374567E-15
  2.6010      0.663253E-06      0.284249E+02      0.191488E-08      0.564531E-05      0.380302E-15
  2.6167      0.664503E-06      0.279057E+02      0.189212E-08      0.551938E-05      0.374237E-15
  2.6324      0.653929E-06      0.275749E+02      0.196198E-08      0.533522E-05      0.379605E-15
  2.6480      0.632262E-06      0.276647E+02      0.201107E-08      0.514462E-05      0.373986E-15
  2.6637      0.600571E-06      0.284964E+02      0.216243E-08      0.500407E-05      0.379730E-15
  2.6794      0.560208E-06      0.299926E+02      0.229731E-08      0.488411E-05      0.374102E-15
  2.6950      0.512750E-06      0.322055E+02      0.255456E-08      0.477227E-05      0.378539E-15
  2.7107      0.459933E-06      0.353544E+02      0.282539E-08      0.467208E-05      0.373375E-15
  2.7264      0.403593E-06      0.398028E+02      0.330372E-08      0.458908E-05      0.380904E-15
  2.7420      0.345599E-06      0.459833E+02      0.381753E-08      0.451390E-05      0.374744E-15
  2.7577      0.287797E-06      0.547593E+02      0.468091E-08      0.445091E-05      0.380470E-15
  2.7734      0.231948E-06      0.675968E+02      0.573029E-08      0.440312E-05      0.373260E-15
  2.7890      0.179682E-06      0.868145E+02      0.760127E-08      0.435605E-05      0.381405E-15
  2.8047      0.132449E-06      0.117092E+03      0.101556E-07      0.430667E-05      0.373522E-15
  2.8204      0.914848E-07      0.169316E+03      0.150189E-07      0.427752E-05      0.379431E-15
  2.8361      0.577782E-07      0.269264E+03      0.235579E-07      0.427248E-05      0.373800E-15
  2.8517      0.320512E-07      0.483826E+03      0.432807E-07      0.423525E-05      0.378864E-15
  2.8674      0.147465E-07      0.104217E+04      0.931969E-07      0.417437E-05      0.373298E-15
  2.8831      0.602335E-08      0.255088E+04      0.233958E-06      0.415075E-05      0.380693E-15
  2.8987      0.576227E-08      0.267266E+04      0.239050E-06      0.413792E-05      0.370107E-15
  2.9144      0.135776E-07      0.113163E+04      0.104553E-06      0.410611E-05      0.379368E-15
  2.9301      0.288375E-07      0.539635E+03      0.488564E-07      0.413649E-05      0.374502E-15
  2.9457      0.506907E-07      0.316020E+03      0.284549E-07      0.423547E-05      0.381367E-15
  2.9614      0.780988E-07      0.207066E+03      0.182842E-07      0.425313E-05      0.375556E-15
  2.9771      0.109873E-06      0.146060E+03      0.132558E-07      0.419844E-05      0.381033E-15
  2.9927      0.144716E-06      0.110779E+03      0.994990E-08      0.417212E-05      0.374730E-15
  3.0084      0.181262E-06      0.878592E+02      0.811185E-08      0.412296E-05      0.380664E-15
  3.0241      0.218123E-06      0.718474E+02      0.665134E-08      0.403620E-05      0.373655E-15
  3.0397      0.253933E-06      0.605912E+02      0.582886E-08      0.394224E-05      0.379243E-15
  3.0554      0.287387E-06      0.535189E+02      0.511591E-08      0.392064E-05      0.374777E-15
  3.0711      0.317286E-06      0.490710E+02      0.469464E-08      0.394854E-05      0.377758E-15
  3.0868      0.342567E-06      0.436741E+02      0.432698E-08      0.377503E-05      0.374009E-15
  3.1024      0.362343E-06      0.387990E+02      0.418870E-08      0.352933E-05      0.381023E-15
  3.1181      0.375922E-06      0.369751E+02      0.398785E-08      0.347193E-05      0.374456E-15
  3.1338      0.382831E-06      0.355270E+02      0.399029E-08      0.338029E-05      0.379664E-15
