 
 # eight columns.
 # Omega (column 1); |pulse ft|^2 (2); cross section (Mb) (3); flux (5); flux in
 tegral domega (7)
 
  0.0000      0.133669E-05      0.000000E+00      0.000000E+00      0.000000E+00      0.000000E+00      0.000000E+00      0.000000E+00
  0.0063      0.135262E-05     -0.100919E+00     -0.263736E-11     -0.134920E-05     -0.352594E-16     -0.846035E-08     -0.221099E-18
  0.0125      0.140052E-05     -0.100129E+00     -0.143978E-10     -0.693029E-06     -0.996519E-16     -0.128061E-07     -0.845981E-18
  0.0188      0.148080E-05     -0.377636E-01     -0.195317E-10     -0.184238E-06     -0.952897E-16     -0.139614E-07     -0.144351E-17
  0.0251      0.159410E-05     -0.290982E-01     -0.249638E-10     -0.114617E-06     -0.983320E-16     -0.146801E-07     -0.206011E-17
  0.0314      0.174132E-05     -0.124996E-01     -0.307785E-10     -0.430267E-07     -0.105947E-15     -0.149499E-07     -0.272447E-17
  0.0376      0.192366E-05      0.249043E-02     -0.295216E-10      0.789191E-08     -0.935508E-16     -0.149004E-07     -0.331109E-17
  0.0439      0.214254E-05      0.192328E-01     -0.311553E-10      0.581841E-07     -0.942525E-16     -0.145356E-07     -0.390212E-17
  0.0502      0.239968E-05      0.511530E-02     -0.338134E-10      0.151658E-07     -0.100250E-15     -0.144405E-07     -0.453075E-17
  0.0564      0.269706E-05     -0.719316E-02     -0.358297E-10     -0.213058E-07     -0.106126E-15     -0.145741E-07     -0.519622E-17
  0.0627      0.303693E-05      0.835007E-02     -0.355044E-10      0.250643E-07     -0.106573E-15     -0.144169E-07     -0.586451E-17
  0.0690      0.342184E-05      0.202638E-01     -0.352776E-10      0.623043E-07     -0.108467E-15     -0.140262E-07     -0.654466E-17
  0.0752      0.385460E-05      0.172269E-01     -0.336681E-10      0.546934E-07     -0.106892E-15     -0.136832E-07     -0.721495E-17
  0.0815      0.433833E-05      0.158732E-01     -0.325333E-10      0.523567E-07     -0.107309E-15     -0.133549E-07     -0.788785E-17
  0.0878      0.487643E-05      0.161761E-01     -0.318792E-10      0.556900E-07     -0.109752E-15     -0.130057E-07     -0.857606E-17
  0.0941      0.547260E-05      0.165514E-01     -0.292982E-10      0.596852E-07     -0.105651E-15     -0.126315E-07     -0.923856E-17
  0.1003      0.613086E-05      0.163925E-01     -0.278732E-10      0.620837E-07     -0.105565E-15     -0.122422E-07     -0.990052E-17
  0.1066      0.685552E-05      0.163827E-01     -0.269371E-10      0.652991E-07     -0.107367E-15     -0.118327E-07     -0.105738E-16
  0.1129      0.765122E-05      0.171089E-01     -0.254230E-10      0.718804E-07     -0.106811E-15     -0.113820E-07     -0.112436E-16
  0.1191      0.852292E-05      0.182758E-01     -0.241272E-10      0.810293E-07     -0.106972E-15     -0.108738E-07     -0.119143E-16
  0.1254      0.947591E-05      0.198276E-01     -0.230892E-10      0.928522E-07     -0.108126E-15     -0.102916E-07     -0.125924E-16
  0.1317      0.105158E-04      0.217867E-01     -0.213872E-10      0.107832E-06     -0.105854E-15     -0.961543E-08     -0.132561E-16
  0.1380      0.116486E-04      0.249674E-01     -0.201025E-10      0.130663E-06     -0.105203E-15     -0.879609E-08     -0.139158E-16
  0.1442      0.128805E-04      0.290604E-01     -0.193218E-10      0.160855E-06     -0.106950E-15     -0.778742E-08     -0.145865E-16
  0.1505      0.142182E-04      0.347158E-01     -0.181195E-10      0.203278E-06     -0.106099E-15     -0.651273E-08     -0.152518E-16
  0.1568      0.156687E-04      0.455363E-01     -0.171125E-10      0.282086E-06     -0.106008E-15     -0.474387E-08     -0.159165E-16
  0.1630      0.172395E-04      0.705494E-01     -0.162733E-10      0.462354E-06     -0.106649E-15     -0.184461E-08     -0.165853E-16
  0.1693      0.189381E-04      0.137283E+00     -0.153195E-10      0.951742E-06     -0.106206E-15      0.412342E-08     -0.172513E-16
  0.1756      0.207727E-04      0.103061E+01     -0.145262E-10      0.755721E-05     -0.106516E-15      0.515120E-07     -0.179192E-16
  0.1818      0.227518E-04      0.355804E+01     -0.138054E-10      0.275904E-04     -0.107053E-15      0.224522E-06     -0.185905E-16
  0.1881      0.248840E-04      0.511863E+01     -0.130297E-10      0.419647E-04     -0.106823E-15      0.487667E-06     -0.192603E-16
  0.1944      0.271788E-04      0.383659E+01     -0.122905E-10      0.332464E-04     -0.106505E-15      0.696143E-06     -0.199282E-16
  0.2007      0.296455E-04      0.492371E+01     -0.116906E-10      0.450850E-04     -0.107047E-15      0.978856E-06     -0.205994E-16
  0.2069      0.322942E-04      0.124405E+02     -0.111293E-10      0.120332E-03     -0.107649E-15      0.173341E-05     -0.212745E-16
  0.2132      0.351351E-04      0.204827E+02     -0.105564E-10      0.209209E-03     -0.107822E-15      0.304529E-05     -0.219506E-16
  0.2195      0.381788E-04      0.218546E+02     -0.994127E-11      0.235629E-03     -0.107183E-15      0.452283E-05     -0.226227E-16
  0.2257      0.414364E-04      0.207699E+02     -0.952153E-11      0.236290E-03     -0.108322E-15      0.600452E-05     -0.233019E-16
  0.2320      0.449193E-04      0.236806E+02     -0.930982E-11      0.284155E-03     -0.111713E-15      0.778635E-05     -0.240024E-16
  0.2383      0.486391E-04      0.274285E+02     -0.876745E-11      0.347004E-03     -0.110919E-15      0.996230E-05     -0.246980E-16
  0.2446      0.526080E-04      0.292807E+02     -0.821321E-11      0.390390E-03     -0.109504E-15      0.124103E-04     -0.253846E-16
  0.2508      0.568383E-04      0.306412E+02     -0.807943E-11      0.430345E-03     -0.113473E-15      0.151088E-04     -0.260962E-16
  0.2571      0.613426E-04      0.319843E+02     -0.755663E-11      0.472984E-03     -0.111747E-15      0.180747E-04     -0.267969E-16
  0.2634      0.661342E-04      0.334094E+02     -0.747834E-11      0.519966E-03     -0.116389E-15      0.213353E-04     -0.275267E-16
  0.2696      0.712261E-04      0.347663E+02     -0.747898E-11      0.569193E-03     -0.122446E-15      0.249045E-04     -0.282946E-16
  0.2759      0.766322E-04      0.360755E+02     -0.647551E-11      0.621014E-03     -0.111471E-15      0.287986E-04     -0.289936E-16
  0.2822      0.823662E-04      0.373722E+02     -0.649928E-11      0.676107E-03     -0.117580E-15      0.330383E-04     -0.297309E-16
  0.2884      0.884422E-04      0.385740E+02     -0.656684E-11      0.733039E-03     -0.124793E-15      0.376349E-04     -0.305134E-16
  0.2947      0.948747E-04      0.396195E+02     -0.555588E-11      0.790483E-03     -0.110850E-15      0.425917E-04     -0.312085E-16
  0.3010      0.101678E-03      0.404233E+02     -0.564882E-11      0.846347E-03     -0.118270E-15      0.478989E-04     -0.319501E-16
  0.3073      0.108867E-03      0.410325E+02     -0.578016E-11      0.901073E-03     -0.126932E-15      0.535492E-04     -0.327461E-16
  0.3135      0.116457E-03      0.414862E+02     -0.476417E-11      0.955062E-03     -0.109677E-15      0.595380E-04     -0.334338E-16
  0.3198      0.124463E-03      0.418631E+02     -0.490886E-11      0.100979E-02     -0.118408E-15      0.658701E-04     -0.341763E-16
  0.3261      0.132900E-03      0.421734E+02     -0.508494E-11      0.106534E-02     -0.128451E-15      0.725505E-04     -0.349818E-16
  0.3323      0.141782E-03      0.424692E+02     -0.527047E-11      0.112293E-02     -0.139356E-15      0.795919E-04     -0.358556E-16
  0.3386      0.151127E-03      0.427279E+02     -0.426186E-11      0.118193E-02     -0.117890E-15      0.870034E-04     -0.365949E-16
  0.3449      0.160948E-03      0.429178E+02     -0.446249E-11      0.124134E-02     -0.129072E-15      0.947874E-04     -0.374042E-16
  0.3512      0.171262E-03      0.430134E+02     -0.468558E-11      0.130019E-02     -0.141634E-15      0.102940E-03     -0.382924E-16
  0.3574      0.182084E-03      0.430061E+02     -0.368571E-11      0.135787E-02     -0.116372E-15      0.111455E-03     -0.390221E-16
  0.3637      0.193428E-03      0.429057E+02     -0.391361E-11      0.141429E-02     -0.129003E-15      0.120324E-03     -0.398310E-16
  0.3700      0.205311E-03      0.427140E+02     -0.413998E-11      0.146913E-02     -0.142393E-15      0.129536E-03     -0.407239E-16
  0.3762      0.217747E-03      0.424617E+02     -0.437571E-11      0.152310E-02     -0.156957E-15      0.139087E-03     -0.417082E-16
  0.3825      0.230751E-03      0.421499E+02     -0.341336E-11      0.157595E-02     -0.127623E-15      0.148969E-03     -0.425084E-16
  0.3888      0.244339E-03      0.418063E+02     -0.364674E-11      0.162844E-02     -0.142048E-15      0.159180E-03     -0.433992E-16
  0.3951      0.258523E-03      0.414158E+02     -0.271092E-11      0.167979E-02     -0.109953E-15      0.169714E-03     -0.440886E-16
  0.4013      0.273319E-03      0.410006E+02     -0.296298E-11      0.173066E-02     -0.125069E-15      0.180566E-03     -0.448729E-16
  0.4076      0.288740E-03      0.405507E+02     -0.320384E-11      0.178042E-02     -0.140668E-15      0.191731E-03     -0.457550E-16
  0.4139      0.304800E-03      0.400825E+02     -0.344766E-11      0.182960E-02     -0.157371E-15      0.203203E-03     -0.467418E-16
  0.4201      0.321511E-03      0.395841E+02     -0.368761E-11      0.187747E-02     -0.174903E-15      0.214976E-03     -0.478385E-16
  0.4264      0.338887E-03      0.390645E+02     -0.280809E-11      0.192424E-02     -0.138321E-15      0.227042E-03     -0.487059E-16
  0.4327      0.356939E-03      0.385204E+02     -0.305626E-11      0.196955E-02     -0.156267E-15      0.239393E-03     -0.496858E-16
  0.4389      0.375679E-03      0.379560E+02     -0.220942E-11      0.201340E-02     -0.117200E-15      0.252018E-03     -0.504207E-16
  0.4452      0.395119E-03      0.373771E+02     -0.245448E-11      0.205591E-02     -0.135008E-15      0.264910E-03     -0.512673E-16
  0.4515      0.415267E-03      0.367805E+02     -0.270246E-11      0.209673E-02     -0.154058E-15      0.278058E-03     -0.522334E-16
  0.4578      0.436134E-03      0.361771E+02     -0.294085E-11      0.213629E-02     -0.173660E-15      0.291454E-03     -0.533223E-16
  0.4640      0.457729E-03      0.355582E+02     -0.315886E-11      0.217394E-02     -0.193125E-15      0.305086E-03     -0.545333E-16
  0.4703      0.480060E-03      0.349387E+02     -0.237839E-11      0.221040E-02     -0.150469E-15      0.318946E-03     -0.554769E-16
  0.4766      0.503134E-03      0.343062E+02     -0.261180E-11      0.224478E-02     -0.170900E-15      0.333023E-03     -0.565485E-16
  0.4828      0.526959E-03      0.336863E+02     -0.186327E-11      0.227861E-02     -0.126035E-15      0.347311E-03     -0.573388E-16
  0.4891      0.551539E-03      0.330761E+02     -0.209568E-11      0.231167E-02     -0.146466E-15      0.361807E-03     -0.582573E-16
  0.4954      0.576879E-03      0.325322E+02     -0.231620E-11      0.234802E-02     -0.167172E-15      0.376530E-03     -0.593056E-16
  0.5017      0.602984E-03      0.321099E+02     -0.253119E-11      0.239213E-02     -0.188569E-15      0.391530E-03     -0.604880E-16
  0.5079      0.629855E-03      0.326936E+02     -0.279835E-11      0.251275E-02     -0.215074E-15      0.407287E-03     -0.618367E-16
  0.5142      0.657495E-03      0.323596E+02     -0.209893E-11      0.256456E-02     -0.166344E-15      0.423368E-03     -0.628797E-16
  0.5205      0.685905E-03      0.296476E+02     -0.224272E-11      0.242162E-02     -0.183186E-15      0.438554E-03     -0.640284E-16
  0.5267      0.715084E-03      0.295749E+02     -0.246423E-11      0.248847E-02     -0.207343E-15      0.454158E-03     -0.653286E-16
  0.5330      0.745030E-03      0.329174E+02     -0.284907E-11      0.285175E-02     -0.246824E-15      0.472040E-03     -0.668764E-16
  0.5393      0.775741E-03      0.344749E+02     -0.317723E-11      0.307363E-02     -0.283268E-15      0.491314E-03     -0.686526E-16
  0.5455      0.807213E-03      0.329491E+02     -0.147218E-11      0.302164E-02     -0.135008E-15      0.510261E-03     -0.694992E-16
  0.5518      0.839440E-03      0.312552E+02     -0.169840E-11      0.294686E-02     -0.160132E-15      0.528740E-03     -0.705033E-16
  0.5581      0.872416E-03      0.307440E+02     -0.191494E-11      0.297868E-02     -0.185532E-15      0.547418E-03     -0.716668E-16
  0.5644      0.906134E-03      0.303019E+02     -0.214184E-11      0.301544E-02     -0.213141E-15      0.566327E-03     -0.730033E-16
  0.5706      0.940584E-03      0.296064E+02     -0.234576E-11      0.302463E-02     -0.239646E-15      0.585293E-03     -0.745060E-16
  0.5769      0.975756E-03      0.288464E+02     -0.252309E-11      0.302395E-02     -0.264494E-15      0.604256E-03     -0.761646E-16
  0.5832      0.101164E-02      0.281308E+02     -0.110933E-11      0.302451E-02     -0.119271E-15      0.623221E-03     -0.769125E-16
  0.5894      0.104822E-02      0.274696E+02     -0.132010E-11      0.302765E-02     -0.145499E-15      0.642207E-03     -0.778249E-16
  0.5957      0.108548E-02      0.268030E+02     -0.151081E-11      0.302700E-02     -0.170624E-15      0.661188E-03     -0.788948E-16
  0.6020      0.112341E-02      0.261718E+02     -0.170432E-11      0.302713E-02     -0.197128E-15      0.680170E-03     -0.801309E-16
  0.6083      0.116199E-02      0.255749E+02     -0.188642E-11      0.302813E-02     -0.223357E-15      0.699158E-03     -0.815315E-16
  0.6145      0.120120E-02      0.250052E+02     -0.205103E-11      0.302935E-02     -0.248481E-15      0.718154E-03     -0.830896E-16
  0.6208      0.124102E-02      0.244318E+02     -0.221939E-11      0.302713E-02     -0.274985E-15      0.737136E-03     -0.848140E-16
  0.6271      0.128144E-02      0.238689E+02     -0.102452E-11      0.302315E-02     -0.129762E-15      0.756093E-03     -0.856276E-16
  0.6333      0.132241E-02      0.233197E+02     -0.119257E-11      0.301786E-02     -0.154334E-15      0.775017E-03     -0.865954E-16
  0.6396      0.136394E-02      0.227791E+02     -0.137034E-11      0.301066E-02     -0.181115E-15      0.793896E-03     -0.877311E-16
  0.6459      0.140598E-02      0.222458E+02     -0.152862E-11      0.300137E-02     -0.206239E-15      0.812717E-03     -0.890244E-16
  0.6521      0.144851E-02      0.217232E+02     -0.167864E-11      0.299049E-02     -0.231087E-15      0.831469E-03     -0.904734E-16
  0.6584      0.149150E-02      0.212132E+02     -0.182684E-11      0.297832E-02     -0.256487E-15      0.850145E-03     -0.920818E-16
  0.6647      0.153493E-02      0.207186E+02     -0.196375E-11      0.296533E-02     -0.281059E-15      0.868739E-03     -0.938442E-16
  0.6710      0.157876E-02      0.202394E+02     -0.942797E-12      0.295160E-02     -0.137493E-15      0.887248E-03     -0.947064E-16
  0.6772      0.162295E-02      0.197747E+02     -0.109856E-11      0.293712E-02     -0.163169E-15      0.905665E-03     -0.957296E-16
  0.6835      0.166749E-02      0.193218E+02     -0.124163E-11      0.292156E-02     -0.187741E-15      0.923986E-03     -0.969068E-16
  0.6898      0.171232E-02      0.188799E+02     -0.137812E-11      0.290484E-02     -0.212037E-15      0.942201E-03     -0.982364E-16
  0.6960      0.175743E-02      0.184468E+02     -0.151198E-11      0.288673E-02     -0.236609E-15      0.960302E-03     -0.997201E-16
  0.7023      0.180276E-02      0.180239E+02     -0.163649E-11      0.286747E-02     -0.260353E-15      0.978283E-03     -0.101353E-15
  0.7086      0.184828E-02      0.176099E+02     -0.748006E-12      0.284693E-02     -0.120927E-15      0.996135E-03     -0.102111E-15
  0.7149      0.189395E-02      0.172049E+02     -0.889429E-12      0.282518E-02     -0.146052E-15      0.101385E-02     -0.103027E-15
  0.7211      0.193974E-02      0.168072E+02     -0.101847E-11      0.280201E-02     -0.169795E-15      0.103142E-02     -0.104092E-15
  0.7274      0.198559E-02      0.164189E+02     -0.113579E-11      0.277784E-02     -0.192159E-15      0.104884E-02     -0.105297E-15
  0.7337      0.203148E-02      0.160404E+02     -0.125484E-11      0.275279E-02     -0.215350E-15      0.106610E-02     -0.106647E-15
  0.7399      0.207735E-02      0.156726E+02     -0.136773E-11      0.272708E-02     -0.237989E-15      0.108320E-02     -0.108139E-15
  0.7462      0.212316E-02      0.153139E+02     -0.147011E-11      0.270054E-02     -0.259248E-15      0.110014E-02     -0.109765E-15
  0.7525      0.216886E-02      0.149631E+02     -0.157332E-11      0.267303E-02     -0.281059E-15      0.111690E-02     -0.111527E-15
  0.7587      0.221442E-02      0.146201E+02     -0.837949E-12      0.264457E-02     -0.151573E-15      0.113348E-02     -0.112478E-15
  0.7650      0.225979E-02      0.142848E+02     -0.944032E-12      0.261524E-02     -0.172832E-15      0.114988E-02     -0.113562E-15
  0.7713      0.230491E-02      0.139578E+02     -0.105090E-11      0.258522E-02     -0.194643E-15      0.116609E-02     -0.114782E-15
  0.7776      0.234974E-02      0.136379E+02     -0.114683E-11      0.255434E-02     -0.214798E-15      0.118211E-02     -0.116129E-15
  0.7838      0.239424E-02      0.133255E+02     -0.123814E-11      0.252274E-02     -0.234400E-15      0.119793E-02     -0.117599E-15
  0.7901      0.243836E-02      0.130195E+02     -0.593245E-12      0.249031E-02     -0.113473E-15      0.121354E-02     -0.118310E-15
  0.7964      0.248205E-02      0.127228E+02     -0.693910E-12      0.245764E-02     -0.134042E-15      0.122896E-02     -0.119151E-15
  0.8026      0.252525E-02      0.124324E+02     -0.787935E-12      0.242426E-02     -0.153644E-15      0.124416E-02     -0.120114E-15
  0.8089      0.256793E-02      0.121481E+02     -0.885434E-12      0.239019E-02     -0.174213E-15      0.125914E-02     -0.121207E-15
  0.8152      0.261003E-02      0.118685E+02     -0.973904E-12      0.235519E-02     -0.193263E-15      0.127391E-02     -0.122419E-15
  0.8215      0.265150E-02      0.115958E+02     -0.105506E-11      0.231981E-02     -0.211071E-15      0.128846E-02     -0.123742E-15
  0.8277      0.269230E-02      0.113282E+02     -0.113739E-11      0.228372E-02     -0.229293E-15      0.130278E-02     -0.125180E-15
  0.8340      0.273238E-02      0.110658E+02     -0.121282E-11      0.224700E-02     -0.246272E-15      0.131687E-02     -0.126724E-15
  0.8403      0.277169E-02      0.108074E+02     -0.128293E-11      0.220949E-02     -0.262285E-15      0.133073E-02     -0.128369E-15
  0.8465      0.281018E-02      0.105558E+02     -0.135465E-11      0.217181E-02     -0.278713E-15      0.134434E-02     -0.130117E-15
  0.8528      0.284781E-02      0.103108E+02     -0.832402E-12      0.213400E-02     -0.172280E-15      0.135773E-02     -0.131197E-15
  0.8591      0.288452E-02      0.100738E+02     -0.904134E-12      0.209642E-02     -0.188155E-15      0.137087E-02     -0.132377E-15
  0.8653      0.292027E-02      0.984545E+01     -0.978124E-12      0.205926E-02     -0.204583E-15      0.138378E-02     -0.133660E-15
  0.8716      0.295502E-02      0.962414E+01     -0.104721E-11      0.202226E-02     -0.220044E-15      0.139647E-02     -0.135040E-15
  0.8779      0.298872E-02      0.941072E+01     -0.575725E-12      0.198569E-02     -0.121480E-15      0.140892E-02     -0.135801E-15
  0.8842      0.302133E-02      0.920480E+01     -0.650492E-12      0.194950E-02     -0.137769E-15      0.142114E-02     -0.136665E-15
  0.8904      0.305279E-02      0.900850E+01     -0.721114E-12      0.191422E-02     -0.153230E-15      0.143314E-02     -0.137626E-15
  0.8967      0.308308E-02      0.881971E+01     -0.786429E-12      0.187946E-02     -0.167587E-15      0.144493E-02     -0.138677E-15
  0.9030      0.311215E-02      0.864427E+01     -0.853678E-12      0.184653E-02     -0.182357E-15      0.145651E-02     -0.139820E-15
  0.9092      0.313996E-02      0.847652E+01     -0.916490E-12      0.181428E-02     -0.196162E-15      0.146789E-02     -0.141051E-15
  0.9155      0.316647E-02      0.831752E+01     -0.974331E-12      0.178298E-02     -0.208862E-15      0.147907E-02     -0.142360E-15
