 
 # six columns.
 # Omega (column 1); |pulse ft|^2 (2); cross section (Mb) (3); flux (column 5)
 
  0.0000      0.120478E-09      0.000000E+00      0.000000E+00     -0.488716E-01     -0.371637E-15
  0.0157      0.604048E-08     -0.989480E+05     -0.124767E-08     -0.297095E-01     -0.374619E-15
  0.0313      0.239020E-07     -0.124979E+05     -0.628113E-09     -0.742432E-02     -0.373128E-15
  0.0470      0.540100E-07     -0.368443E+04     -0.414682E-09     -0.329716E-02     -0.371095E-15
  0.0627      0.968753E-07     -0.153882E+04     -0.309508E-09     -0.185250E-02     -0.372600E-15
  0.0783      0.153218E-06     -0.777073E+03     -0.244782E-09     -0.118363E-02     -0.372850E-15
  0.0940      0.223970E-06     -0.441963E+03     -0.200098E-09     -0.820055E-03     -0.371278E-15
  0.1097      0.310286E-06     -0.272584E+03     -0.169328E-09     -0.600596E-03     -0.373088E-15
  0.1254      0.413545E-06     -0.178199E+03     -0.144733E-09     -0.457883E-03     -0.371892E-15
  0.1410      0.535358E-06     -0.121653E+03     -0.125698E-09     -0.359701E-03     -0.371661E-15
  0.1567      0.677581E-06     -0.858076E+02     -0.110443E-09     -0.289004E-03     -0.371976E-15
  0.1724      0.842321E-06     -0.619920E+02     -0.975210E-10     -0.235960E-03     -0.371194E-15
  0.1880      0.103194E-05     -0.453649E+02     -0.868353E-10     -0.193915E-03     -0.371183E-15
  0.2037      0.124909E-05     -0.322014E+02     -0.779323E-10     -0.153795E-03     -0.372207E-15
  0.2194      0.149667E-05     -0.194526E+02     -0.699536E-10     -0.103369E-03     -0.371727E-15
  0.2350      0.177789E-05     -0.762209E+01     -0.631463E-10     -0.449059E-04     -0.372030E-15
  0.2507      0.209624E-05      0.781393E+00     -0.570191E-10      0.508871E-05     -0.371329E-15
  0.2664      0.245554E-05      0.651816E+01     -0.517770E-10      0.467995E-04     -0.371752E-15
  0.2820      0.285990E-05      0.114584E+02     -0.470391E-10      0.904941E-04     -0.371497E-15
  0.2977      0.331374E-05      0.153474E+02     -0.429145E-10      0.133050E-03     -0.372037E-15
  0.3134      0.382182E-05      0.179426E+02     -0.389980E-10      0.170429E-03     -0.370424E-15
  0.3290      0.438918E-05      0.198014E+02     -0.359829E-10      0.205720E-03     -0.373833E-15
  0.3447      0.502122E-05      0.213190E+02     -0.328469E-10      0.241863E-03     -0.372647E-15
  0.3604      0.572364E-05      0.223640E+02     -0.301585E-10      0.276638E-03     -0.373054E-15
  0.3761      0.650243E-05      0.230328E+02     -0.275789E-10      0.310190E-03     -0.371414E-15
  0.3917      0.736390E-05      0.233678E+02     -0.253797E-10      0.342139E-03     -0.371597E-15
  0.4074      0.831465E-05      0.234540E+02     -0.232634E-10      0.372824E-03     -0.369794E-15
  0.4231      0.936153E-05      0.235414E+02     -0.214597E-10      0.405725E-03     -0.369848E-15
  0.4387      0.105117E-04      0.233621E+02     -0.196960E-10      0.435957E-03     -0.367545E-15
  0.4544      0.117724E-04      0.233589E+02     -0.185385E-10      0.471343E-03     -0.374077E-15
  0.4701      0.131514E-04      0.231711E+02     -0.170631E-10      0.504911E-03     -0.371814E-15
  0.4857      0.146562E-04      0.234622E+02     -0.158244E-10      0.551374E-03     -0.371881E-15
  0.5014      0.162949E-04      0.248015E+02     -0.145615E-10      0.627765E-03     -0.368575E-15
  0.5171      0.180754E-04      0.257591E+02     -0.135354E-10      0.701327E-03     -0.368520E-15
  0.5327      0.200058E-04      0.290503E+02     -0.124470E-10      0.849657E-03     -0.364048E-15
  0.5484      0.220942E-04      0.330651E+02     -0.115182E-10      0.103752E-02     -0.361419E-15
  0.5641      0.243487E-04      0.325704E+02     -0.110825E-10      0.109500E-02     -0.372586E-15
  0.5797      0.267773E-04      0.303212E+02     -0.103256E-10      0.109076E-02     -0.371448E-15
  0.5954      0.293880E-04      0.287344E+02     -0.956246E-11      0.110461E-02     -0.367599E-15
  0.6111      0.321887E-04      0.271763E+02     -0.893512E-11      0.111493E-02     -0.366569E-15
  0.6268      0.351867E-04      0.258267E+02     -0.828422E-11      0.112929E-02     -0.362232E-15
  0.6424      0.383894E-04      0.245868E+02     -0.810788E-11      0.114432E-02     -0.377357E-15
  0.6581      0.418038E-04      0.233613E+02     -0.787599E-11      0.115580E-02     -0.389662E-15
  0.6738      0.454364E-04      0.222384E+02     -0.708547E-11      0.116804E-02     -0.372152E-15
  0.6894      0.492933E-04      0.212235E+02     -0.690589E-11      0.118187E-02     -0.384567E-15
  0.7051      0.533801E-04      0.202405E+02     -0.622054E-11      0.119345E-02     -0.366786E-15
  0.7208      0.577019E-04      0.193586E+02     -0.607553E-11      0.120704E-02     -0.378820E-15
  0.7364      0.622630E-04      0.184758E+02     -0.548119E-11      0.121661E-02     -0.360931E-15
  0.7521      0.670671E-04      0.177002E+02     -0.537480E-11      0.122931E-02     -0.373291E-15
  0.7678      0.721172E-04      0.169404E+02     -0.533078E-11      0.123932E-02     -0.389988E-15
  0.7834      0.774155E-04      0.162353E+02     -0.476934E-11      0.124949E-02     -0.367057E-15
  0.7991      0.829631E-04      0.155881E+02     -0.475329E-11      0.126045E-02     -0.384350E-15
  0.8148      0.887606E-04      0.149260E+02     -0.426224E-11      0.126642E-02     -0.361636E-15
  0.8304      0.948072E-04      0.143579E+02     -0.426467E-11      0.127666E-02     -0.379200E-15
  0.8461      0.101101E-03      0.137460E+02     -0.381890E-11      0.127926E-02     -0.355401E-15
  0.8618      0.107641E-03      0.132339E+02     -0.383499E-11      0.128742E-02     -0.373074E-15
  0.8775      0.114421E-03      0.127266E+02     -0.343740E-11      0.129256E-02     -0.349113E-15
  0.8931      0.121438E-03      0.123062E+02     -0.345325E-11      0.130323E-02     -0.365701E-15
  0.9088      0.128686E-03      0.120356E+02     -0.345062E-11      0.132736E-02     -0.380555E-15
  0.9245      0.136157E-03      0.119424E+02     -0.348480E-11      0.136992E-02     -0.399745E-15
  0.9401      0.143843E-03      0.122827E+02     -0.314342E-11      0.146370E-02     -0.374592E-15
  0.9558      0.151735E-03      0.130056E+02     -0.320847E-11      0.160807E-02     -0.396710E-15
  0.9715      0.159823E-03      0.137248E+02     -0.286591E-11      0.175861E-02     -0.367219E-15
  0.9871      0.168093E-03      0.161987E+02     -0.297077E-11      0.214835E-02     -0.393999E-15
  1.0028      0.176534E-03      0.213471E+02     -0.255890E-11      0.292688E-02     -0.350848E-15
  1.0185      0.185132E-03      0.228532E+02     -0.275388E-11      0.323543E-02     -0.389879E-15
  1.0341      0.193870E-03      0.188540E+02     -0.232567E-11      0.275289E-02     -0.339572E-15
  1.0498      0.202734E-03      0.152011E+02     -0.248547E-11      0.228636E-02     -0.373833E-15
  1.0655      0.211705E-03      0.124600E+02     -0.219358E-11      0.192823E-02     -0.339464E-15
  1.0811      0.220766E-03      0.996217E+01     -0.230560E-11      0.158436E-02     -0.366677E-15
  1.0968      0.229897E-03      0.895355E+01     -0.208407E-11      0.146166E-02     -0.340223E-15
  1.1125      0.239077E-03      0.852678E+01     -0.239735E-11      0.142719E-02     -0.401263E-15
  1.1282      0.248287E-03      0.845508E+01     -0.218661E-11      0.144929E-02     -0.374809E-15
  1.1438      0.257505E-03      0.863829E+01     -0.225881E-11      0.151463E-02     -0.396059E-15
  1.1595      0.266707E-03      0.843991E+01     -0.205582E-11      0.151202E-02     -0.368303E-15
  1.1752      0.275872E-03      0.793024E+01     -0.212172E-11      0.144994E-02     -0.387928E-15
  1.1908      0.284975E-03      0.733513E+01     -0.194114E-11      0.136716E-02     -0.361798E-15
  1.2065      0.293994E-03      0.693606E+01     -0.200803E-11      0.131637E-02     -0.381097E-15
  1.2222      0.302903E-03      0.659994E+01     -0.184678E-11      0.127399E-02     -0.356486E-15
  1.2378      0.311679E-03      0.631656E+01     -0.190515E-11      0.123873E-02     -0.373616E-15
  1.2535      0.320297E-03      0.608089E+01     -0.176567E-11      0.121017E-02     -0.351390E-15
  1.2692      0.328732E-03      0.584785E+01     -0.182571E-11      0.117970E-02     -0.368303E-15
  1.2848      0.336961E-03      0.566021E+01     -0.185991E-11      0.115616E-02     -0.379904E-15
  1.3005      0.344959E-03      0.548221E+01     -0.160802E-11      0.113256E-02     -0.332200E-15
  1.3162      0.352703E-03      0.538390E+01     -0.194906E-11      0.112368E-02     -0.406793E-15
  1.3318      0.360169E-03      0.524751E+01     -0.170643E-11      0.110524E-02     -0.359413E-15
  1.3475      0.367334E-03      0.507749E+01     -0.173777E-11      0.107802E-02     -0.368954E-15
  1.3632      0.374176E-03      0.491056E+01     -0.180140E-11      0.104980E-02     -0.385109E-15
  1.3789      0.380674E-03      0.472738E+01     -0.182831E-11      0.101650E-02     -0.393132E-15
  1.3945      0.386807E-03      0.453021E+01     -0.162254E-11      0.978677E-03     -0.350523E-15
  1.4102      0.392556E-03      0.435007E+01     -0.165975E-11      0.943131E-03     -0.359847E-15
  1.4259      0.397901E-03      0.417854E+01     -0.172573E-11      0.908186E-03     -0.375080E-15
  1.4415      0.402826E-03      0.401082E+01     -0.175550E-11      0.872930E-03     -0.382073E-15
  1.4572      0.407314E-03      0.386458E+01     -0.159591E-11      0.841329E-03     -0.347433E-15
  1.4729      0.411350E-03      0.371713E+01     -0.162739E-11      0.808552E-03     -0.353992E-15
  1.4885      0.414921E-03      0.358947E+01     -0.169398E-11      0.779272E-03     -0.367761E-15
  1.5042      0.418014E-03      0.345773E+01     -0.172544E-11      0.748390E-03     -0.373453E-15
  1.5199      0.420620E-03      0.333988E+01     -0.178669E-11      0.719890E-03     -0.385109E-15
  1.5355      0.422728E-03      0.322720E+01     -0.181633E-11      0.691954E-03     -0.389445E-15
  1.5512      0.424331E-03      0.312780E+01     -0.170045E-11      0.666386E-03     -0.362286E-15
  1.5669      0.425424E-03      0.303752E+01     -0.173039E-11      0.642330E-03     -0.365918E-15
  1.5825      0.426002E-03      0.295231E+01     -0.180480E-11      0.618970E-03     -0.378387E-15
  1.5982      0.426063E-03      0.287237E+01     -0.183180E-11      0.596392E-03     -0.380338E-15
  1.6139      0.425606E-03      0.278709E+01     -0.174802E-11      0.572452E-03     -0.359034E-15
  1.6296      0.424632E-03      0.269909E+01     -0.178614E-11      0.547789E-03     -0.362503E-15
  1.6452      0.423143E-03      0.260055E+01     -0.200830E-11      0.520930E-03     -0.402293E-15
  1.6609      0.421143E-03      0.250588E+01     -0.189541E-11      0.494881E-03     -0.374321E-15
  1.6766      0.418640E-03      0.241022E+01     -0.197449E-11      0.468738E-03     -0.383997E-15
  1.6922      0.415639E-03      0.232055E+01     -0.187811E-11      0.443916E-03     -0.359277E-15
  1.7079      0.412151E-03      0.223226E+01     -0.196274E-11      0.419557E-03     -0.368900E-15
  1.7236      0.408186E-03      0.215208E+01     -0.200219E-11      0.396955E-03     -0.369306E-15
  1.7392      0.403756E-03      0.207409E+01     -0.209337E-11      0.375008E-03     -0.378495E-15
  1.7549      0.398875E-03      0.199991E+01     -0.202003E-11      0.354036E-03     -0.357597E-15
  1.7706      0.393559E-03      0.193249E+01     -0.211820E-11      0.334554E-03     -0.366704E-15
  1.7862      0.387823E-03      0.186982E+01     -0.216631E-11      0.316188E-03     -0.366325E-15
  1.8019      0.381685E-03      0.181010E+01     -0.226777E-11      0.298625E-03     -0.374131E-15
  1.8176      0.375164E-03      0.175181E+01     -0.232152E-11      0.281622E-03     -0.373209E-15
  1.8332      0.368280E-03      0.169924E+01     -0.233922E-11      0.265867E-03     -0.366000E-15
  1.8489      0.361054E-03      0.164952E+01     -0.249830E-11      0.250879E-03     -0.379972E-15
  1.8646      0.353507E-03      0.160341E+01     -0.251810E-11      0.236763E-03     -0.371827E-15
  1.8803      0.345661E-03      0.155741E+01     -0.258933E-11      0.222991E-03     -0.370743E-15
  1.8959      0.337540E-03      0.151903E+01     -0.263355E-11      0.210632E-03     -0.365173E-15
  1.9116      0.329168E-03      0.148594E+01     -0.280783E-11      0.199286E-03     -0.376571E-15
  1.9273      0.320568E-03      0.145427E+01     -0.286662E-11      0.188399E-03     -0.371366E-15
  1.9429      0.311766E-03      0.142144E+01     -0.295070E-11      0.177645E-03     -0.368764E-15
  1.9586      0.302785E-03      0.139367E+01     -0.303627E-11      0.167804E-03     -0.365579E-15
  1.9743      0.293651E-03      0.136091E+01     -0.321156E-11      0.157655E-03     -0.372044E-15
  1.9899      0.284389E-03      0.132596E+01     -0.332847E-11      0.147590E-03     -0.370485E-15
  2.0056      0.275023E-03      0.130354E+01     -0.343999E-11      0.139219E-03     -0.367395E-15
  2.0213      0.265579E-03      0.128918E+01     -0.372331E-11      0.131927E-03     -0.381023E-15
  2.0369      0.256080E-03      0.126243E+01     -0.378624E-11      0.123611E-03     -0.370729E-15
  2.0526      0.246551E-03      0.121462E+01     -0.402794E-11      0.113630E-03     -0.376821E-15
  2.0683      0.237015E-03      0.117449E+01     -0.411433E-11      0.104826E-03     -0.367212E-15
  2.0839      0.227495E-03      0.114852E+01     -0.447789E-11      0.976507E-04     -0.380724E-15
  2.0996      0.218013E-03      0.110543E+01     -0.457085E-11      0.893977E-04     -0.369652E-15
  2.1153      0.208593E-03      0.104369E+01     -0.487965E-11      0.801591E-04     -0.374775E-15
  2.1310      0.199253E-03      0.994574E+00     -0.503363E-11      0.724302E-04     -0.366576E-15
  2.1466      0.190014E-03      0.959639E+00     -0.540219E-11      0.661593E-04     -0.372437E-15
  2.1623      0.180896E-03      0.933113E+00     -0.565549E-11      0.607997E-04     -0.368500E-15
  2.1780      0.171917E-03      0.910989E+00     -0.609403E-11      0.560059E-04     -0.374649E-15
  2.1936      0.163093E-03      0.888905E+00     -0.634199E-11      0.514729E-04     -0.367240E-15
  2.2093      0.154441E-03      0.863204E+00     -0.683759E-11      0.469973E-04     -0.372274E-15
  2.2250      0.145975E-03      0.839466E+00     -0.724405E-11      0.428954E-04     -0.370160E-15
  2.2406      0.137711E-03      0.818895E+00     -0.780954E-11      0.391992E-04     -0.373830E-15
  2.2563      0.129659E-03      0.798809E+00     -0.825412E-11      0.357520E-04     -0.369427E-15
  2.2720      0.121832E-03      0.779334E+00     -0.890879E-11      0.325488E-04     -0.372074E-15
  2.2876      0.114240E-03      0.760528E+00     -0.950414E-11      0.295801E-04     -0.369655E-15
  2.3033      0.106893E-03      0.744128E+00     -0.103426E-10      0.268965E-04     -0.373833E-15
  2.3190      0.997974E-04      0.727137E+00     -0.110172E-10      0.243720E-04     -0.369271E-15
  2.3346      0.929607E-04      0.711577E+00     -0.120539E-10      0.220675E-04     -0.373816E-15
  2.3503      0.863884E-04      0.697755E+00     -0.128950E-10      0.199749E-04     -0.369150E-15
  2.3660      0.800850E-04      0.686268E+00     -0.141746E-10      0.180919E-04     -0.373682E-15
  2.3817      0.740536E-04      0.674336E+00     -0.152427E-10      0.163304E-04     -0.369133E-15
  2.3973      0.682965E-04      0.661219E+00     -0.168188E-10      0.146713E-04     -0.373180E-15
  2.4130      0.628147E-04      0.647669E+00     -0.181925E-10      0.131314E-04     -0.368851E-15
  2.4287      0.576082E-04      0.633156E+00     -0.202739E-10      0.116972E-04     -0.374549E-15
  2.4443      0.526762E-04      0.616486E+00     -0.219878E-10      0.103474E-04     -0.369054E-15
  2.4600      0.480168E-04      0.601457E+00     -0.246902E-10      0.914355E-05     -0.375349E-15
  2.4757      0.436270E-04      0.587242E+00     -0.268563E-10      0.805995E-05     -0.368605E-15
  2.4913      0.395033E-04      0.572567E+00     -0.303441E-10      0.707098E-05     -0.374738E-15
  2.5070      0.356412E-04      0.557931E+00     -0.335582E-10      0.617774E-05     -0.371576E-15
  2.5227      0.320354E-04      0.544565E+00     -0.379220E-10      0.538606E-05     -0.375071E-15
  2.5383      0.286800E-04      0.531273E+00     -0.420173E-10      0.467520E-05     -0.369751E-15
  2.5540      0.255685E-04      0.517157E+00     -0.480571E-10      0.403234E-05     -0.374708E-15
  2.5697      0.226937E-04      0.502055E+00     -0.536357E-10      0.345327E-05     -0.368921E-15
  2.5854      0.200479E-04      0.486249E+00     -0.618712E-10      0.293671E-05     -0.373672E-15
  2.6010      0.176230E-04      0.470786E+00     -0.700034E-10      0.248434E-05     -0.369409E-15
  2.6167      0.154104E-04      0.453253E+00     -0.814749E-10      0.207900E-05     -0.373712E-15
  2.6324      0.134011E-04      0.435063E+00     -0.930142E-10      0.172504E-05     -0.368806E-15
  2.6480      0.115860E-04      0.412437E+00     -0.109947E-09      0.140547E-05     -0.374670E-15
  2.6637      0.995564E-05      0.388177E+00     -0.126780E-09      0.112997E-05     -0.369052E-15
  2.6794      0.850031E-05      0.357413E+00     -0.151485E-09      0.883134E-06     -0.374306E-15
  2.6950      0.721024E-05      0.320798E+00     -0.177508E-09      0.668451E-06     -0.369877E-15
  2.7107      0.607556E-05      0.275194E+00     -0.214340E-09      0.480392E-06     -0.374163E-15
  2.7264      0.508634E-05      0.217050E+00     -0.253484E-09      0.315380E-06     -0.368319E-15
  2.7420      0.423268E-05      0.144661E+00     -0.311507E-09      0.173919E-06     -0.374509E-15
  2.7577      0.350472E-05      0.505525E-01     -0.372704E-09      0.500381E-07     -0.368912E-15
  2.7734      0.289270E-05     -0.682275E-01     -0.461380E-09     -0.554251E-07     -0.374806E-15
  2.7890      0.238698E-05     -0.222214E+00     -0.551376E-09     -0.148121E-06     -0.367531E-15
  2.8047      0.197811E-05     -0.411196E+00     -0.681252E-09     -0.225873E-06     -0.374216E-15
  2.8204      0.165683E-05     -0.637891E+00     -0.805874E-09     -0.291856E-06     -0.368714E-15
  2.8361      0.141413E-05     -0.896827E+00     -0.964583E-09     -0.348286E-06     -0.374600E-15
  2.8517      0.124126E-05     -0.116894E+01     -0.108908E-08     -0.396277E-06     -0.369207E-15
  2.8674      0.112977E-05     -0.142502E+01     -0.121991E-08     -0.437299E-06     -0.374354E-15
  2.8831      0.107154E-05     -0.162760E+01     -0.127066E-08     -0.471145E-06     -0.367821E-15
  2.8987      0.105878E-05     -0.175704E+01     -0.132591E-08     -0.499840E-06     -0.377193E-15
  2.9144      0.108408E-05     -0.180836E+01     -0.127363E-08     -0.523901E-06     -0.368983E-15
  2.9301      0.114041E-05     -0.179805E+01     -0.123219E-08     -0.545052E-06     -0.373520E-15
  2.9457      0.122114E-05     -0.174367E+01     -0.114158E-08     -0.562976E-06     -0.368581E-15
  2.9614      0.132007E-05     -0.166646E+01     -0.107763E-08     -0.578558E-06     -0.374132E-15
  2.9771      0.143143E-05     -0.158381E+01     -0.986602E-09     -0.593112E-06     -0.369467E-15
  2.9927      0.154989E-05     -0.150242E+01     -0.925839E-09     -0.606001E-06     -0.373438E-15
  3.0084      0.167056E-05     -0.142948E+01     -0.852377E-09     -0.618237E-06     -0.368646E-15
  3.0241      0.178904E-05     -0.136799E+01     -0.812653E-09     -0.630324E-06     -0.374443E-15
  3.0397      0.190140E-05     -0.131786E+01     -0.758220E-09     -0.642033E-06     -0.369389E-15
  3.0554      0.200417E-05     -0.127935E+01     -0.731896E-09     -0.653589E-06     -0.373909E-15
  3.0711      0.209438E-05     -0.125094E+01     -0.695499E-09     -0.664437E-06     -0.369413E-15
  3.0868      0.216953E-05     -0.123629E+01     -0.683775E-09     -0.676767E-06     -0.374309E-15
  3.1024      0.222765E-05     -0.123248E+01     -0.658905E-09     -0.689251E-06     -0.368486E-15
  3.1181      0.226723E-05     -0.123710E+01     -0.661206E-09     -0.700590E-06     -0.374451E-15
  3.1338      0.228726E-05     -0.125272E+01     -0.648646E-09     -0.712127E-06     -0.368732E-15
