 
 # Omega; pulse ft; proj flux t=    500.250000000000     
    0.000000000000         0.71730614E-10      0.00000000E+00      0.00000000E+00     -0.36855601E-01      0.47412161E-15
    0.006276908399         0.17773781E-07     -0.20318056E+05      0.43037065E-09     -0.22404679E-01      0.47456884E-15
    0.012553816798         0.71000142E-07     -0.25405053E+04      0.21441173E-09     -0.55953348E-02      0.47223103E-15
    0.018830725196         0.16011178E-06     -0.74963924E+03      0.14334190E-09     -0.24821675E-02      0.47462644E-15
    0.025107633595         0.28571137E-06     -0.31419273E+03      0.10690493E-09     -0.13923243E-02      0.47374214E-15
    0.031384541994         0.44864496E-06     -0.15946887E+03      0.85927085E-10     -0.88773934E-03      0.47834322E-15
    0.037661450393         0.65000421E-06     -0.91262646E+02      0.70608592E-10     -0.61338723E-03      0.47456884E-15
    0.043938358791         0.89112924E-06     -0.56691956E+02      0.60009042E-10     -0.44775541E-03      0.47395390E-15
    0.050215267190         0.11736121E-05     -0.37397151E+02      0.52173293E-10     -0.34036890E-03      0.47485345E-15
    0.056492175589         0.14993009E-05     -0.25803758E+02      0.45931544E-10     -0.26668954E-03      0.47471623E-15
    0.062769083988         0.18703040E-05     -0.18407072E+02      0.40863368E-10     -0.21358644E-03      0.47415803E-15
    0.069045992387         0.22889955E-05     -0.13492312E+02      0.36873058E-10     -0.17418685E-03      0.47603421E-15
    0.075322900785         0.27580206E-05     -0.10114531E+02      0.33200966E-10     -0.14422441E-03      0.47341688E-15
    0.081599809184         0.32803012E-05     -0.77143433E+01      0.30389069E-10     -0.12076639E-03      0.47573436E-15
    0.087876717583         0.38590424E-05     -0.59650553E+01      0.27688002E-10     -0.10201000E-03      0.47349989E-15
    0.094153625982         0.44977390E-05     -0.46634733E+01      0.25482436E-10     -0.86753947E-04      0.47404622E-15
    0.100430534380         0.52001823E-05     -0.36761871E+01      0.23476210E-10     -0.74126407E-04      0.47337283E-15
    0.106707442779         0.59704668E-05     -0.29151631E+01      0.21763702E-10     -0.63518316E-04      0.47420801E-15
    0.112984351178         0.68129974E-05     -0.23198375E+01      0.20209591E-10     -0.54475351E-04      0.47456969E-15
    0.119261259577         0.77324968E-05     -0.18479079E+01      0.18793760E-10     -0.46657689E-04      0.47452226E-15
    0.125538167976         0.87340119E-05     -0.14691460E+01      0.17560890E-10     -0.39803889E-04      0.47578095E-15
    0.131815076374         0.98229211E-05     -0.11614823E+01      0.16398131E-10     -0.33706271E-04      0.47587454E-15
    0.138091984773         0.11004941E-04     -0.90867412E+00      0.15338061E-10     -0.28200056E-04      0.47600583E-15
    0.144368893172         0.12286134E-04     -0.69820700E+00      0.14329584E-10     -0.23139202E-04      0.47489516E-15
    0.150645801571         0.13672912E-04     -0.52043329E+00      0.13402673E-10     -0.18394653E-04      0.47371588E-15
    0.156922709970         0.15172044E-04     -0.36759010E+00      0.12612664E-10     -0.13840273E-04      0.47488415E-15
    0.163199618368         0.16790662E-04     -0.23204139E+00      0.11845254E-10     -0.92968683E-05      0.47458674E-15
    0.169476526767         0.18536263E-04     -0.10760794E+00      0.11157173E-10     -0.45833129E-05      0.47521412E-15
    0.175753435166         0.20416717E-04      0.36624042E-01      0.10430795E-10      0.16568031E-05      0.47186964E-15
    0.182030343565         0.22440265E-04      0.25868117E+00      0.98419250E-11      0.12418569E-04      0.47248366E-15
    0.188307251963         0.24615529E-04      0.45127676E+00      0.93029785E-11      0.22972467E-04      0.47357273E-15
    0.194584160362         0.26951505E-04      0.53780704E+00      0.87874104E-11      0.29008453E-04      0.47397888E-15
    0.200861068761         0.29457571E-04      0.86598871E+00      0.83158003E-11      0.49457930E-04      0.47492799E-15
    0.207137977160         0.32143483E-04      0.21401594E+01      0.78295385E-11      0.12933077E-03      0.47314244E-15
    0.213414885559         0.35019372E-04      0.41567338E+01      0.73913917E-11      0.26561855E-03      0.47231574E-15
    0.219691793957         0.38095749E-04      0.51895767E+01      0.69791447E-11      0.35044281E-03      0.47128913E-15
    0.225968702356         0.41383490E-04      0.58462408E+01      0.66179353E-11      0.41694432E-03      0.47198031E-15
    0.232245610755         0.44893841E-04      0.76739989E+01      0.62011477E-11      0.57767494E-03      0.46680325E-15
    0.238522519154         0.48638406E-04      0.90544405E+01      0.59009583E-11      0.71900864E-03      0.46859218E-15
    0.244799427552         0.52629141E-04      0.97248717E+01      0.55254676E-11      0.81418353E-03      0.46260196E-15
    0.251076335951         0.56878345E-04      0.10663292E+02      0.51245599E-11      0.94070834E-03      0.45208520E-15
    0.257353244350         0.61398647E-04      0.11618478E+02      0.50757229E-11      0.10794461E-02      0.47157373E-15
    0.263630152749         0.66202998E-04      0.12523136E+02      0.47135415E-11      0.12246676E-02      0.46094855E-15
    0.269907061148         0.71304653E-04      0.13245981E+02      0.43674712E-11      0.13627315E-02      0.44932049E-15
    0.276183969546         0.76717158E-04      0.13943181E+02      0.40304614E-11      0.15082678E-02      0.43598480E-15
    0.282460877945         0.82454333E-04      0.14625054E+02      0.36888496E-11      0.16625519E-02      0.41934230E-15
    0.288737786344         0.88530252E-04      0.15255723E+02      0.33565287E-11      0.18215598E-02      0.40077533E-15
    0.295014694743         0.94959225E-04      0.15836672E+02      0.39130627E-11      0.19850890E-02      0.49049306E-15
    0.301291603141         0.10175577E-03      0.16303460E+02      0.36279982E-11      0.21442448E-02      0.47715738E-15
    0.307568511540         0.10893461E-03      0.16692229E+02      0.33223439E-11      0.23022946E-02      0.45823805E-15
    0.313845419939         0.11651061E-03      0.16976001E+02      0.30313379E-11      0.24541868E-02      0.43823452E-15
    0.320122328338         0.12449879E-03      0.17225899E+02      0.27450313E-11      0.26088770E-02      0.41573732E-15
    0.326399236737         0.13291427E-03      0.17409817E+02      0.24626855E-11      0.27608273E-02      0.39052962E-15
    0.332676145135         0.14177227E-03      0.17593821E+02      0.21928290E-11      0.29197949E-02      0.36391246E-15
    0.338953053534         0.15108802E-03      0.17735617E+02      0.24184249E-11      0.30786429E-02      0.41980308E-15
    0.345229961933         0.16087680E-03      0.17853924E+02      0.26771810E-11      0.32399712E-02      0.48583099E-15
    0.351506870332         0.17115386E-03      0.17920505E+02      0.24323851E-11      0.33980179E-02      0.46121960E-15
    0.357783778731         0.18193441E-03      0.17939042E+02      0.21873099E-11      0.35523519E-02      0.43313877E-15
    0.364060687129         0.19323354E-03      0.17916855E+02      0.19565360E-11      0.37033353E-02      0.40440741E-15
    0.370337595528         0.20506624E-03      0.17842752E+02      0.17220745E-11      0.38475188E-02      0.37133924E-15
    0.376614503927         0.21744732E-03      0.17750679E+02      0.15001363E-11      0.39911176E-02      0.33729530E-15
    0.382891412326         0.23039139E-03      0.17608896E+02      0.17767582E-11      0.41261526E-02      0.41633363E-15
    0.389168320724         0.24391280E-03      0.17466964E+02      0.15671811E-11      0.42632134E-02      0.38250653E-15
    0.395445229123         0.25802563E-03      0.17275341E+02      0.13700977E-11      0.43896074E-02      0.34813732E-15
    0.401722137522         0.27274360E-03      0.17090774E+02      0.16579166E-11      0.45186955E-02      0.43834294E-15
    0.407999045921         0.28808007E-03      0.16863951E+02      0.14676079E-11      0.46369877E-02      0.40354005E-15
    0.414275954320         0.30404798E-03      0.16644612E+02      0.12708086E-11      0.47571692E-02      0.36320773E-15
    0.420552862718         0.32065980E-03      0.16392841E+02      0.10903191E-11      0.48674410E-02      0.32374277E-15
    0.426829771117         0.33792749E-03      0.16142318E+02      0.13658347E-11      0.49768810E-02      0.42110412E-15
    0.433106679516         0.35586245E-03      0.15874361E+02      0.11947657E-11      0.50793258E-02      0.38228969E-15
    0.439383587915         0.37447549E-03      0.15599058E+02      0.10296613E-11      0.51772660E-02      0.34174052E-15
    0.445660496313         0.39377677E-03      0.15327109E+02      0.86840235E-12      0.52738616E-02      0.29880612E-15
    0.451937404712         0.41377575E-03      0.15031798E+02      0.11470244E-11      0.53594500E-02      0.40896106E-15
    0.458214313111         0.43448117E-03      0.14752271E+02      0.98714995E-12      0.54473307E-02      0.36450877E-15
    0.464491221510         0.45590098E-03      0.14435245E+02      0.83962706E-12      0.55174667E-02      0.32092384E-15
    0.470768129909         0.47804230E-03      0.14154885E+02      0.10928631E-11      0.55974233E-02      0.43216299E-15
    0.477045038307         0.50091140E-03      0.13825622E+02      0.95452805E-12      0.56533875E-02      0.39031278E-15
    0.483321946706         0.52451363E-03      0.13554212E+02      0.81889902E-12      0.57281854E-02      0.34607733E-15
    0.489598855105         0.54885338E-03      0.13214028E+02      0.68794156E-12      0.57686436E-02      0.30032400E-15
    0.495875763504         0.57393407E-03      0.12984249E+02      0.56432152E-12      0.58523258E-02      0.25435383E-15
    0.502152671902         0.59975808E-03      0.12654559E+02      0.44242902E-12      0.58858594E-02      0.20578157E-15
    0.508429580301         0.62632671E-03      0.12687983E+02      0.67304221E-12      0.60867471E-02      0.32287541E-15
    0.514706488700         0.65364018E-03      0.11952776E+02      0.90324559E-12      0.59111289E-02      0.44669130E-15
    0.520983397099         0.68169755E-03      0.99849395E+01      0.52640448E-12      0.50878680E-02      0.26823162E-15
    0.527260305498         0.71049673E-03      0.10151057E+02      0.70495232E-12      0.53268545E-02      0.36992978E-15
    0.533537213896         0.74003440E-03      0.10813696E+02      0.89121709E-12      0.58409554E-02      0.48138576E-15
    0.539814122295         0.77030604E-03      0.10180224E+02      0.50063974E-12      0.56571662E-02      0.27820628E-15
    0.546091030694         0.80130585E-03      0.98003368E+01      0.69026706E-12      0.56001133E-02      0.39443275E-15
    0.552367939093         0.83302676E-03      0.96704024E+01      0.32048445E-12      0.56793362E-02      0.18821750E-15
    0.558644847491         0.86546039E-03      0.95425226E+01      0.49959850E-12      0.57570121E-02      0.30140820E-15
    0.564921755890         0.89859703E-03      0.93050604E+01      0.15367583E-12      0.57639263E-02      0.95192951E-16
    0.571198664289         0.93242565E-03      0.90780253E+01      0.33940152E-12      0.57708656E-02      0.21575623E-15
    0.577475572688         0.96693384E-03      0.88663832E+01      0.10308994E-13      0.57813889E-02      0.67220535E-17
    0.583752481087         0.10021078E-02      0.86672445E+01      0.68246085E-12      0.57941443E-02      0.45623227E-15
    0.590029389485         0.10379325E-02      0.84637494E+01      0.83881876E-12      0.57980346E-02      0.57462715E-15
    0.596306297884         0.10743913E-02      0.82634442E+01      0.52105337E-12      0.57979802E-02      0.36559297E-15
    0.602583206283         0.11114663E-02      0.80733445E+01      0.67199121E-12      0.57990295E-02      0.48268681E-15
    0.608860114682         0.11491383E-02      0.78826620E+01      0.37409525E-12      0.57936230E-02      0.27495367E-15
    0.615137023081         0.11873866E-02      0.77016542E+01      0.53078090E-12      0.57893102E-02      0.39898640E-15
    0.621413931479         0.12261890E-02      0.75159258E+01      0.24804482E-12      0.57753919E-02      0.19060274E-15
    0.627690839878         0.12655223E-02      0.73405217E+01      0.39687204E-12      0.57633297E-02      0.31159970E-15
    0.633967748277         0.13053615E-02      0.71616094E+01      0.13034702E-12      0.57424446E-02      0.10451709E-15
    0.640244656676         0.13456807E-02      0.69932592E+01      0.27287195E-12      0.57239816E-02      0.22334565E-15
    0.646521565074         0.13864524E-02      0.68224098E+01      0.40765750E-12      0.56974731E-02      0.34043948E-15
    0.652798473473         0.14276478E-02      0.66611665E+01      0.16269591E-12      0.56730260E-02      0.13856104E-15
    0.659075381872         0.14692370E-02      0.64986182E+01      0.29898894E-12      0.56415745E-02      0.25955800E-15
    0.665352290271         0.15111887E-02      0.63440732E+01      0.64967561E-13      0.56112260E-02      0.57462715E-16
    0.671629198670         0.15534705E-02      0.61902208E+01      0.54936367E-12      0.55757348E-02      0.49482987E-15
    0.677906107068         0.15960487E-02      0.60426711E+01      0.31928235E-12      0.55402337E-02      0.29273459E-15
    0.684183015467         0.16388886E-02      0.58970160E+01      0.43771447E-12      0.55008777E-02      0.40831054E-15
    0.690459923866         0.16819543E-02      0.57555753E+01      0.54745386E-12      0.54599290E-02      0.51933284E-15
    0.696736832265         0.17252089E-02      0.56173322E+01      0.33686556E-12      0.54165853E-02      0.32482697E-15
    0.703013740663         0.17686145E-02      0.54817359E+01      0.44620956E-12      0.53704420E-02      0.43715032E-15
    0.709290649062         0.18121323E-02      0.53504532E+01      0.24737051E-12      0.53232734E-02      0.24611389E-15
    0.715567557461         0.18557223E-02      0.52208141E+01      0.35491817E-12      0.52725793E-02      0.35843724E-15
    0.721844465860         0.18993441E-02      0.50960068E+01      0.16612208E-12      0.52217076E-02      0.17021974E-15
    0.728121374259         0.19429561E-02      0.49720895E+01      0.26980938E-12      0.51667885E-02      0.28037468E-15
    0.734398282657         0.19865162E-02      0.48537781E+01      0.90575332E-13      0.51128486E-02      0.95409791E-16
    0.740675191056         0.20299817E-02      0.47361301E+01      0.19361825E-12      0.50548759E-02      0.20664893E-15
    0.746952099455         0.20733091E-02      0.46240321E+01      0.28927552E-12      0.49982121E-02      0.31268391E-15
    0.753229007854         0.21164544E-02      0.45128295E+01      0.12524285E-12      0.49380257E-02      0.13704315E-15
    0.759505916252         0.21593732E-02      0.44071933E+01      0.47042910E-12      0.48795659E-02      0.52085072E-15
    0.765782824651         0.22020207E-02      0.43032059E+01      0.30808611E-12      0.48187063E-02      0.34499313E-15
    0.772059733050         0.22443518E-02      0.42043501E+01      0.39343965E-12      0.47595014E-02      0.44539025E-15
    0.778336641449         0.22863211E-02      0.41075310E+01      0.23903587E-12      0.46986504E-02      0.27343579E-15
    0.784613549848         0.23278829E-02      0.40151614E+01      0.32299312E-12      0.46390695E-02      0.37318239E-15
    0.790890458246         0.23689917E-02      0.39253963E+01      0.17790267E-12      0.45788167E-02      0.20751630E-15
    0.797167366645         0.24096017E-02      0.38392699E+01      0.25918871E-12      0.45192559E-02      0.30509449E-15
    0.803444275044         0.24496673E-02      0.37564799E+01      0.33786103E-12      0.44602064E-02      0.40115480E-15
    0.809721183443         0.24891430E-02      0.36759463E+01      0.20287166E-12      0.44005409E-02      0.24286129E-15
    0.815998091842         0.25279836E-02      0.35991811E+01      0.27751081E-12      0.43422154E-02      0.33480163E-15
    0.822275000240         0.25661440E-02      0.35240121E+01      0.14862737E-12      0.42827614E-02      0.18062808E-15
    0.828551908639         0.26035797E-02      0.34530387E+01      0.22345067E-12      0.42254712E-02      0.27343579E-15
    0.834828817038         0.26402464E-02      0.33820991E+01      0.10422992E-12      0.41653923E-02      0.12836954E-15
    0.841105725437         0.26761006E-02      0.33149984E+01      0.17588627E-12      0.41073122E-02      0.21792464E-15
    0.847382633835         0.27110992E-02      0.32469444E+01      0.61610557E-13      0.40454166E-02      0.76761514E-16
    0.853659542234         0.27452000E-02      0.31836002E+01      0.31271318E-12      0.39868542E-02      0.39161382E-15
    0.859936450633         0.27783613E-02      0.31206342E+01      0.37639860E-12      0.39263387E-02      0.47357951E-15
    0.866213359032         0.28105425E-02      0.30645838E+01      0.26274087E-12      0.38722137E-02      0.33198271E-15
    0.872490267431         0.28417037E-02      0.30090482E+01      0.32619544E-12      0.38165406E-02      0.41373155E-15
    0.878767175829         0.28718063E-02      0.29600447E+01      0.22099191E-12      0.37670564E-02      0.28124204E-15
    0.885044084228         0.29008124E-02      0.29122461E+01      0.28269381E-12      0.37171095E-02      0.36082248E-15
    0.891320992627         0.29286855E-02      0.28719849E+01      0.18014092E-12      0.36748812E-02      0.23050138E-15
    0.897597901026         0.29553902E-02      0.28329651E+01      0.24065208E-12      0.36324260E-02      0.30856394E-15
    0.903874809424         0.29808924E-02      0.28030948E+01      0.29868096E-12      0.35999656E-02      0.38359073E-15
    0.910151717823         0.30051594E-02      0.27763067E+01      0.19747899E-12      0.35697985E-02      0.25392015E-15
    0.916428626222         0.30281598E-02      0.27515515E+01      0.25597371E-12      0.35406281E-02      0.32938062E-15
    0.922705534621         0.30498636E-02      0.27339039E+01      0.15953296E-12      0.35190309E-02      0.20534789E-15
    0.928982443020         0.30702425E-02      0.27239281E+01      0.21683585E-12      0.35057695E-02      0.27907364E-15
    0.935259351418         0.30892698E-02      0.27242120E+01      0.11901416E-12      0.35041866E-02      0.15308935E-15
    0.941536259817         0.31069202E-02      0.27105935E+01      0.33073545E-12      0.34832125E-02      0.42500725E-15
    0.947813168216         0.31231702E-02      0.27161911E+01      0.23252157E-12      0.34854253E-02      0.29837244E-15
    0.954090076615         0.31379981E-02      0.26594620E+01      0.29068641E-12      0.34062743E-02      0.37231503E-15
    0.960366985013         0.31513838E-02      0.25797485E+01      0.34752304E-12      0.32965828E-02      0.44408921E-15
    0.966643893412         0.31633091E-02      0.23419666E+01      0.26544051E-12      0.29845466E-02      0.33827108E-15
    0.972920801811         0.31737577E-02      0.20092489E+01      0.32380890E-12      0.25524225E-02      0.41134630E-15
    0.979197710210         0.31827151E-02      0.19291502E+01      0.25799740E-12      0.24418330E-02      0.32656169E-15
    0.985474618609         0.31901686E-02      0.21040283E+01      0.29293023E-12      0.26524201E-02      0.36927926E-15
    0.991751527007         0.31961075E-02      0.22979831E+01      0.20284641E-12      0.28839509E-02      0.25457067E-15
    0.998028435406         0.32005232E-02      0.22061670E+01      0.25680758E-12      0.27551103E-02      0.32070700E-15
    1.004305343805         0.32034088E-02      0.20282558E+01      0.19639194E-12      0.25193695E-02      0.24394549E-15
    1.010582252204         0.32047596E-02      0.20848464E+01      0.23704331E-12      0.25746630E-02      0.29273459E-15
    1.016859160602         0.32045728E-02      0.26211433E+01      0.25602170E-12      0.32167895E-02      0.31420179E-15
