 
 # Omega; pulse ft; proj flux t=    500.250000000000     
    0.000000000000         0.13366901E-05      0.00000000E+00      0.00000000E+00      0.00000000E+00      0.00000000E+00      0.00000000E+00      0.00000000E+00
    0.006270644019         0.13526158E-05      0.94062674E-02     -0.82472417E-11      0.12575414E-06     -0.11025891E-15      0.78855944E-09     -0.69139438E-18
    0.012541288038         0.14005224E-05      0.10334319E+00     -0.38011883E-10      0.71527400E-06     -0.26309342E-15      0.52737881E-08     -0.23411595E-17
    0.018811932057         0.14807994E-05     -0.22235553E-01     -0.59208030E-10     -0.10848094E-06     -0.28885913E-15      0.45935428E-08     -0.41524923E-17
    0.025082576077         0.15940962E-05     -0.33206016E-01     -0.73942083E-10     -0.13079822E-06     -0.29125726E-15      0.37733537E-08     -0.59788629E-17
    0.031353220096         0.17413245E-05     -0.42690754E-01     -0.86962145E-10     -0.14695151E-06     -0.29934394E-15      0.28518731E-08     -0.78559422E-17
    0.037623864115         0.19236591E-05     -0.36393181E-01     -0.91714623E-10     -0.11532604E-06     -0.29063370E-15      0.21287045E-08     -0.96784027E-17
    0.043894508134         0.21425409E-05     -0.26925955E-01     -0.96454498E-10     -0.81457810E-07     -0.29179920E-15      0.16179116E-08     -0.11508172E-16
    0.050165152153         0.23996797E-05     -0.42826512E-01     -0.99930525E-10     -0.12697158E-06     -0.29627294E-15      0.82171799E-09     -0.13365994E-16
    0.056435796172         0.26970571E-05     -0.57426290E-01     -0.10170542E-09     -0.17009397E-06     -0.30124667E-15     -0.24488076E-09     -0.15255004E-16
    0.062706440191         0.30369306E-05     -0.42379507E-01     -0.10036676E-09     -0.12721001E-06     -0.30126959E-15     -0.10425695E-08     -0.17144159E-16
    0.068977084211         0.34218375E-05     -0.28274788E-01     -0.98765412E-10     -0.86935385E-07     -0.30367015E-15     -0.15877103E-08     -0.19048366E-16
    0.075247728230         0.38545993E-05     -0.28109893E-01     -0.95678486E-10     -0.89245784E-07     -0.30376856E-15     -0.21473389E-08     -0.20953191E-16
    0.081518372249         0.43383269E-05     -0.26791644E-01     -0.91965806E-10     -0.88370806E-07     -0.30334430E-15     -0.27014807E-08     -0.22855355E-16
    0.087789016268         0.48764252E-05     -0.24626212E-01     -0.88563662E-10     -0.84781611E-07     -0.30490154E-15     -0.32331160E-08     -0.24767284E-16
    0.094059660287         0.54725985E-05     -0.22300112E-01     -0.83616070E-10     -0.80415523E-07     -0.30152450E-15     -0.37373731E-08     -0.26658037E-16
    0.100330304306         0.61308563E-05     -0.20122754E-01     -0.79674778E-10     -0.76211253E-07     -0.30175366E-15     -0.42152668E-08     -0.28550226E-16
    0.106600948325         0.68555186E-05     -0.17744030E-01     -0.76092011E-10     -0.70725199E-07     -0.30329202E-15     -0.46587593E-08     -0.30452063E-16
    0.112871592345         0.76512216E-05     -0.14993639E-01     -0.72039599E-10     -0.62993516E-07     -0.30266353E-15     -0.50537692E-08     -0.32349958E-16
    0.119142236364         0.85229237E-05     -0.12011407E-01     -0.68278554E-10     -0.53254881E-07     -0.30272609E-15     -0.53877116E-08     -0.34248245E-16
    0.125412880383         0.94759108E-05     -0.87453546E-02     -0.64840816E-10     -0.40954244E-07     -0.30364768E-15     -0.56445211E-08     -0.36152312E-16
    0.131683524402         0.10515802E-04     -0.51920066E-02     -0.61013855E-10     -0.25697381E-07     -0.30198272E-15     -0.58056603E-08     -0.38045938E-16
    0.137954168421         0.11648555E-04     -0.76908100E-03     -0.57617586E-10     -0.40248712E-08     -0.30153308E-15     -0.58308988E-08     -0.39936745E-16
    0.144224812440         0.12880472E-04      0.45534131E-02     -0.54628107E-10      0.25204118E-07     -0.30237829E-15     -0.56728527E-08     -0.41832851E-16
    0.150495456459         0.14218202E-04      0.11731347E-01     -0.51490491E-10      0.68692902E-07     -0.30150256E-15     -0.52421040E-08     -0.43723467E-16
    0.156766100479         0.15668749E-04      0.23942927E-01     -0.48622577E-10      0.14832081E-06     -0.30120545E-15     -0.43120370E-08     -0.45612219E-16
    0.163036744498         0.17239474E-04      0.50311214E-01     -0.46139136E-10      0.32972054E-06     -0.30237833E-15     -0.22444769E-08     -0.47508326E-16
    0.169307388517         0.18938099E-04      0.11844425E+00     -0.43508938E-10      0.82113984E-06     -0.30163492E-15      0.29045988E-08     -0.49399771E-16
    0.175578032536         0.20772707E-04      0.10084115E+01     -0.41152525E-10      0.73944076E-05     -0.30176028E-15      0.49272297E-07     -0.51292002E-16
    0.181848676555         0.22751750E-04      0.35126023E+01     -0.39009410E-10      0.27238070E-04     -0.30249397E-15      0.22007254E-06     -0.53188834E-16
    0.188119320574         0.24884049E-04      0.50478285E+01     -0.36867339E-10      0.41384232E-04     -0.30225403E-15      0.47957832E-06     -0.55084161E-16
    0.194389964593         0.27178789E-04      0.37691459E+01     -0.34853619E-10      0.32661932E-04     -0.30202772E-15      0.68438968E-06     -0.56978070E-16
    0.200660608613         0.29645528E-04      0.48292200E+01     -0.33036224E-10      0.44219795E-04     -0.30250331E-15      0.96167627E-06     -0.58874960E-16
    0.206931252632         0.32294190E-04      0.12228616E+02     -0.31327605E-10      0.11828189E-03     -0.30301783E-15      0.17033799E-05     -0.60775077E-16
    0.213201896651         0.35135065E-04      0.20145377E+02     -0.29711151E-10      0.20576323E-03     -0.30346726E-15      0.29936479E-05     -0.62678013E-16
    0.219472540670         0.38178807E-04      0.21493327E+02     -0.28045086E-10      0.23173332E-03     -0.30237203E-15      0.44467650E-05     -0.64574080E-16
    0.225743184689         0.41436430E-04      0.20424568E+02     -0.26721128E-10      0.23236100E-03     -0.30399410E-15      0.59038181E-05     -0.66480319E-16
    0.232013828708         0.44919301E-04      0.23290660E+02     -0.25596502E-10      0.27947540E-03     -0.30714426E-15      0.76563089E-05     -0.68406311E-16
    0.238284472727         0.48639135E-04      0.26981620E+02     -0.24227323E-10      0.34135069E-03     -0.30650546E-15      0.97967976E-05     -0.70328298E-16
    0.244555116747         0.52607990E-04      0.28807327E+02     -0.22867526E-10      0.38407902E-03     -0.30488553E-15      0.12205220E-04     -0.72240126E-16
    0.250825760766         0.56838253E-04      0.30149187E+02     -0.21985453E-10      0.42343511E-03     -0.30877823E-15      0.14860431E-04     -0.74176365E-16
    0.257096404785         0.61342637E-04      0.31473892E+02     -0.20780955E-10      0.46543557E-03     -0.30730853E-15      0.17779012E-04     -0.76103387E-16
    0.263367048804         0.66134162E-04      0.32879075E+02     -0.20029425E-10      0.51171328E-03     -0.31172782E-15      0.20987784E-04     -0.78058121E-16
    0.269637692823         0.71226148E-04      0.34216910E+02     -0.19397871E-10      0.56019899E-03     -0.31758180E-15      0.24500592E-04     -0.80049564E-16
    0.275908336842         0.76632201E-04      0.35507544E+02     -0.17846622E-10      0.61123721E-03     -0.30721695E-15      0.28333443E-04     -0.81976012E-16
    0.282178980861         0.82366191E-04      0.36785627E+02     -0.17299271E-10      0.66549555E-03     -0.31296430E-15      0.32506529E-04     -0.83938499E-16
    0.288449624880         0.88442244E-04      0.37970203E+02     -0.16851523E-10      0.72156485E-03     -0.32023707E-15      0.37031205E-04     -0.85946592E-16
    0.294720268900         0.94874717E-04      0.39000954E+02     -0.15347787E-10      0.77814117E-03     -0.30621674E-15      0.41910652E-04     -0.87866768E-16
    0.300990912919         0.10167818E-03      0.39793765E+02     -0.14977814E-10      0.83316704E-03     -0.31359237E-15      0.47135145E-04     -0.89833194E-16
    0.307261556938         0.10886740E-03      0.40395191E+02     -0.14669842E-10      0.88707829E-03     -0.32214970E-15      0.52697698E-04     -0.91853280E-16
    0.313532200957         0.11645730E-03      0.40843816E+02     -0.13237418E-10      0.94027208E-03     -0.30474073E-15      0.58593809E-04     -0.93764201E-16
    0.319802844976         0.12446296E-03      0.41217269E+02     -0.13012179E-10      0.99421357E-03     -0.31387050E-15      0.64828169E-04     -0.95732371E-16
    0.326073488995         0.13289958E-03      0.41525253E+02     -0.12807317E-10      0.10489700E-02     -0.32352582E-15      0.71405886E-04     -0.97761087E-16
    0.332344133014         0.14178245E-03      0.41818829E+02     -0.12637434E-10      0.11057298E-02     -0.33414581E-15      0.78339524E-04     -0.99856396E-16
    0.338614777034         0.15112692E-03      0.42075775E+02     -0.11308181E-10      0.11638867E-02     -0.31280331E-15      0.85637843E-04     -0.10181787E-15
    0.344885421053         0.16094837E-03      0.42265006E+02     -0.11208373E-10      0.12224619E-02     -0.32418803E-15      0.93303467E-04     -0.10385074E-15
    0.351156065072         0.17126219E-03      0.42361524E+02     -0.11122603E-10      0.12804882E-02     -0.33620984E-15      0.10133295E-03     -0.10595899E-15
    0.357426709091         0.18208374E-03      0.42356660E+02     -0.98629554E-11      0.13373607E-02     -0.31141098E-15      0.10971907E-03     -0.10791174E-15
    0.363697353110         0.19342833E-03      0.42260174E+02     -0.98292658E-11      0.13930089E-02     -0.32399901E-15      0.11845413E-03     -0.10994342E-15
    0.369967997129         0.20531113E-03      0.42073702E+02     -0.98001389E-11      0.14471107E-02     -0.33707244E-15      0.12752844E-03     -0.11205709E-15
    0.376238641148         0.21774722E-03      0.41827583E+02     -0.97936960E-11      0.15003572E-02     -0.35130030E-15      0.13693665E-03     -0.11425996E-15
    0.382509285168         0.23075149E-03      0.41522755E+02     -0.86271759E-11      0.15524991E-02     -0.32256248E-15      0.14667182E-03     -0.11628264E-15
    0.388779929187         0.24433861E-03      0.41186465E+02     -0.86496096E-11      0.16042995E-02     -0.33692051E-15      0.15673181E-03     -0.11839535E-15
    0.395050573206         0.25852303E-03      0.40803850E+02     -0.75199452E-11      0.16549709E-02     -0.30500284E-15      0.16710954E-03     -0.12030791E-15
    0.401321217225         0.27331888E-03      0.40396760E+02     -0.75793931E-11      0.17051662E-02     -0.31992974E-15      0.17780203E-03     -0.12231408E-15
    0.407591861244         0.28873998E-03      0.39955286E+02     -0.76398965E-11      0.17542777E-02     -0.33543747E-15      0.18880248E-03     -0.12441749E-15
    0.413862505263         0.30479977E-03      0.39495520E+02     -0.77046244E-11      0.18028063E-02     -0.35168408E-15      0.20010724E-03     -0.12662277E-15
    0.420133149282         0.32151130E-03      0.39005858E+02     -0.77885901E-11      0.18500429E-02     -0.36941184E-15      0.21170820E-03     -0.12893922E-15
    0.426403793302         0.33888713E-03      0.38495099E+02     -0.67605047E-11      0.18961912E-02     -0.33300887E-15      0.22359854E-03     -0.13102740E-15
    0.432674437321         0.35693934E-03      0.37960090E+02     -0.68541547E-11      0.19408997E-02     -0.35045298E-15      0.23576923E-03     -0.13322497E-15
    0.438945081340         0.37567949E-03      0.37404814E+02     -0.58892760E-11      0.19841636E-02     -0.31240061E-15      0.24821122E-03     -0.13518392E-15
    0.445215725359         0.39511852E-03      0.36835038E+02     -0.59948172E-11      0.20260991E-02     -0.32974294E-15      0.26091616E-03     -0.13725162E-15
    0.451486369378         0.41526677E-03      0.36247666E+02     -0.61153806E-11      0.20663565E-02     -0.34861711E-15      0.27387355E-03     -0.13943768E-15
    0.457757013397         0.43613390E-03      0.35653282E+02     -0.62313001E-11      0.21053632E-02     -0.36796472E-15      0.28707553E-03     -0.14174505E-15
    0.464027657416         0.45772885E-03      0.35043365E+02     -0.63307187E-11      0.21424609E-02     -0.38704380E-15      0.30051014E-03     -0.14417207E-15
    0.470298301436         0.48005983E-03      0.34432566E+02     -0.54480725E-11      0.21783819E-02     -0.34467320E-15      0.31417000E-03     -0.14633339E-15
    0.476568945455         0.50313422E-03      0.33808618E+02     -0.55774233E-11      0.22122195E-02     -0.36495087E-15      0.32804204E-03     -0.14862187E-15
    0.482839589474         0.52695859E-03      0.33196737E+02     -0.47427495E-11      0.22454929E-02     -0.32080895E-15      0.34212273E-03     -0.15063354E-15
    0.489110233493         0.55153859E-03      0.32593264E+02     -0.48744779E-11      0.22779264E-02     -0.34067475E-15      0.35640679E-03     -0.15276979E-15
    0.495380877512         0.57687900E-03      0.32053738E+02     -0.50082007E-11      0.23134859E-02     -0.36146803E-15      0.37091384E-03     -0.15503643E-15
    0.501651521531         0.60298360E-03      0.31626859E+02     -0.51344730E-11      0.23561455E-02     -0.38250923E-15      0.38568839E-03     -0.15743501E-15
    0.507922165550         0.62985518E-03      0.32097168E+02     -0.53047700E-11      0.24669078E-02     -0.40771132E-15      0.40115749E-03     -0.15999162E-15
    0.514192809570         0.65749549E-03      0.31482764E+02     -0.45385010E-11      0.24950676E-02     -0.35968464E-15      0.41680317E-03     -0.16224708E-15
    0.520463453589         0.68590523E-03      0.28593776E+02     -0.46007841E-11      0.23355440E-02     -0.37579275E-15      0.43144854E-03     -0.16460354E-15
    0.526734097608         0.71508395E-03      0.28458746E+02     -0.47293370E-11      0.23945507E-02     -0.39793170E-15      0.44646391E-03     -0.16709883E-15
    0.533004741627         0.74503011E-03      0.31365619E+02     -0.50169372E-11      0.27173106E-02     -0.43463439E-15      0.46350320E-03     -0.16982427E-15
    0.539275385646         0.77574094E-03      0.32422544E+02     -0.52466137E-11      0.28906524E-02     -0.46776517E-15      0.48162945E-03     -0.17275745E-15
    0.545546029665         0.80721252E-03      0.30998276E+02     -0.35728145E-11      0.28427372E-02     -0.32764959E-15      0.49945524E-03     -0.17481203E-15
    0.551816673684         0.83943965E-03      0.29595474E+02     -0.37320967E-11      0.27903754E-02     -0.35187647E-15      0.51695269E-03     -0.17701852E-15
    0.558087317704         0.87241592E-03      0.29132950E+02     -0.38815327E-11      0.28225950E-02     -0.37606884E-15      0.53465218E-03     -0.17937671E-15
    0.564357961723         0.90613359E-03      0.28687732E+02     -0.40353747E-11      0.28548051E-02     -0.40157264E-15      0.55255365E-03     -0.18189483E-15
    0.570628605742         0.94058365E-03      0.28032820E+02     -0.41793982E-11      0.28638703E-02     -0.42697290E-15      0.57051196E-03     -0.18457223E-15
    0.576899249761         0.97575574E-03      0.27336868E+02     -0.42988595E-11      0.28657122E-02     -0.45064760E-15      0.58848182E-03     -0.18739808E-15
    0.583169893780         0.10116382E-02      0.26679981E+02     -0.29078223E-11      0.28685228E-02     -0.31263721E-15      0.60646931E-03     -0.18935852E-15
    0.589440537799         0.10482179E-02      0.26065755E+02     -0.30622807E-11      0.28729268E-02     -0.33751980E-15      0.62448441E-03     -0.19147498E-15
    0.595711181818         0.10854806E-02      0.25448086E+02     -0.32028319E-11      0.28739824E-02     -0.36171217E-15      0.64250613E-03     -0.19374315E-15
    0.601981825838         0.11234103E-02      0.24861867E+02     -0.33453826E-11      0.28756196E-02     -0.38693988E-15      0.66053811E-03     -0.19616951E-15
    0.608252469857         0.11619899E-02      0.24304251E+02     -0.34772802E-11      0.28776859E-02     -0.41171894E-15      0.67858306E-03     -0.19875126E-15
    0.614523113876         0.12012008E-02      0.23769598E+02     -0.35967156E-11      0.28796647E-02     -0.43573875E-15      0.69664041E-03     -0.20148362E-15
    0.620793757895         0.12410231E-02      0.23232317E+02     -0.37204384E-11      0.28785099E-02     -0.46096646E-15      0.71469052E-03     -0.20437417E-15
    0.627064401914         0.12814354E-02      0.22704323E+02     -0.25416849E-11      0.28756485E-02     -0.32192073E-15      0.73272269E-03     -0.20639282E-15
    0.633335045933         0.13224148E-02      0.22187637E+02     -0.26750245E-11      0.28713617E-02     -0.34618212E-15      0.75072798E-03     -0.20856361E-15
    0.639605689952         0.13639374E-02      0.21679250E+02     -0.28067497E-11      0.28652930E-02     -0.37096118E-15      0.76869521E-03     -0.21088978E-15
    0.645876333972         0.14059774E-02      0.21177757E+02     -0.29288305E-11      0.28572721E-02     -0.39515355E-15      0.78661215E-03     -0.21336764E-15
    0.652146977991         0.14485081E-02      0.20686500E+02     -0.30399038E-11      0.28477716E-02     -0.41848314E-15      0.80446951E-03     -0.21599180E-15
    0.658417622010         0.14915013E-02      0.20206411E+02     -0.31522384E-11      0.28369654E-02     -0.44257198E-15      0.82225911E-03     -0.21876701E-15
    0.664688266029         0.15349273E-02      0.19740240E+02     -0.32559535E-11      0.28253021E-02     -0.46600510E-15      0.83997557E-03     -0.22168916E-15
    0.670958910048         0.15787553E-02      0.19287577E+02     -0.22594943E-11      0.28128025E-02     -0.32951320E-15      0.85761365E-03     -0.22375542E-15
    0.677229554067         0.16229531E-02      0.18848107E+02     -0.23799883E-11      0.27995000E-02     -0.35349850E-15      0.87516832E-03     -0.22597209E-15
    0.683500198086         0.16674874E-02      0.18419361E+02     -0.24935338E-11      0.27851022E-02     -0.37703516E-15      0.89263271E-03     -0.22833634E-15
    0.689770842106         0.17123234E-02      0.18000664E+02     -0.25981117E-11      0.27695689E-02     -0.39974354E-15      0.90999969E-03     -0.23084299E-15
    0.696041486125         0.17574255E-02      0.17590340E+02     -0.27015439E-11      0.27526988E-02     -0.42276253E-15      0.92726088E-03     -0.23349398E-15
    0.702312130144         0.18027565E-02      0.17189417E+02     -0.28013773E-11      0.27347064E-02     -0.44567799E-15      0.94440925E-03     -0.23628867E-15
    0.708582774163         0.18482784E-02      0.16796903E+02     -0.19351237E-11      0.27154930E-02     -0.31284427E-15      0.96143714E-03     -0.23825041E-15
    0.714853418182         0.18939520E-02      0.16412696E+02     -0.20432493E-11      0.26950981E-02     -0.33551815E-15      0.97833714E-03     -0.24035432E-15
    0.721124062201         0.19397371E-02      0.16035374E+02     -0.21497667E-11      0.26733430E-02     -0.35839909E-15      0.99510073E-03     -0.24260171E-15
    0.727394706220         0.19855926E-02      0.15666781E+02     -0.22452602E-11      0.26505893E-02     -0.37986508E-15      0.10117216E-02     -0.24498371E-15
    0.733665350240         0.20314763E-02      0.15307404E+02     -0.23397549E-11      0.26269873E-02     -0.40153813E-15      0.10281945E-02     -0.24750162E-15
    0.739935994259         0.20773451E-02      0.14957864E+02     -0.24304187E-11      0.26027158E-02     -0.42290058E-15      0.10445152E-02     -0.25015348E-15
    0.746206638278         0.21231554E-02      0.14616785E+02     -0.25126168E-11      0.25776099E-02     -0.44308964E-15      0.10606785E-02     -0.25293193E-15
    0.752477282297         0.21688625E-02      0.14283093E+02     -0.25937359E-11      0.25515470E-02     -0.46334773E-15      0.10766784E-02     -0.25583742E-15
    0.758747926316         0.22144210E-02      0.13956546E+02     -0.18771804E-11      0.25245461E-02     -0.33955596E-15      0.10925089E-02     -0.25796666E-15
    0.765018570335         0.22597852E-02      0.13637230E+02     -0.19646918E-11      0.24966866E-02     -0.35969326E-15      0.11081647E-02     -0.26022216E-15
