 
 # Omega; pulse ft; projected flux at t=    500.250000000000     
    0.000000000000         0.23910205E-10      0.00000000E+00      0.00000000E+00     -0.18406857E-01      0.19393666E-16
    0.006276908399         0.59245936E-08     -0.30443378E+05      0.53555134E-10     -0.11189950E-01      0.19685046E-16
    0.012553816798         0.23666714E-07     -0.38092012E+04      0.24953527E-10     -0.27965246E-02      0.18319629E-16
    0.018830725196         0.53370592E-07     -0.11254747E+04      0.18090027E-10     -0.12422049E-02      0.19966261E-16
    0.025107633595         0.95237123E-07     -0.47260192E+03      0.13000711E-10     -0.69810140E-03      0.19203931E-16
    0.031384541994         0.14954832E-06     -0.24049023E+03      0.11578812E-10     -0.44625770E-03      0.21485838E-16
    0.037661450393         0.21666807E-06     -0.13811077E+03      0.88564461E-11     -0.30941971E-03      0.19841747E-16
    0.043938358791         0.29704308E-06     -0.86187078E+02      0.74269965E-11     -0.22690304E-03      0.19552909E-16
    0.050215267190         0.39120404E-06     -0.57132041E+02      0.66043968E-11     -0.17332844E-03      0.20036564E-16
    0.056492175589         0.49976695E-06     -0.39647324E+02      0.57326123E-11     -0.13658898E-03      0.19749420E-16
    0.062769083988         0.62343466E-06     -0.28516386E+02      0.51346475E-11     -0.11029661E-03      0.19859958E-16
    0.069045992387         0.76299851E-06     -0.21107596E+02      0.47454866E-11     -0.90833601E-04      0.20421541E-16
    0.075322900785         0.91934020E-06     -0.15994423E+02      0.40558485E-11     -0.76022184E-04      0.19277623E-16
    0.081599809184         0.10934337E-05     -0.12357728E+02      0.39713431E-11     -0.64485860E-04      0.20723508E-16
    0.087876717583         0.12863475E-05     -0.97057494E+01      0.33337194E-11     -0.55326868E-04      0.19003608E-16
    0.094153625982         0.14992463E-05     -0.77295908E+01      0.31536880E-11     -0.47930835E-04      0.19555873E-16
    0.100430534380         0.17333941E-05     -0.62286321E+01      0.28775854E-11     -0.41864582E-04      0.19341150E-16
    0.106707442779         0.19901556E-05     -0.50710726E+01      0.27172070E-11     -0.36831100E-04      0.19735021E-16
    0.112984351178         0.22709991E-05     -0.41651301E+01      0.25139212E-11     -0.32602417E-04      0.19677634E-16
    0.119261259577         0.25774989E-05     -0.34477462E+01      0.23365769E-11     -0.29017296E-04      0.19665352E-16
    0.125538167976         0.29113373E-05     -0.28729758E+01      0.22742434E-11     -0.25946050E-04      0.20538855E-16
    0.131815076374         0.32743070E-05     -0.24082773E+01      0.21050719E-11     -0.23296107E-04      0.20363096E-16
    0.138091984773         0.36683138E-05     -0.20291371E+01      0.19627132E-11     -0.20990942E-04      0.20303803E-16
    0.144368893172         0.40953781E-05     -0.17174517E+01      0.18045994E-11     -0.18972626E-04      0.19935344E-16
    0.150645801571         0.45576374E-05     -0.14590365E+01      0.16372510E-11     -0.17189824E-04      0.19289481E-16
    0.156922709970         0.50573481E-05     -0.12437105E+01      0.15784608E-11     -0.15609137E-04      0.19810407E-16
    0.163199618368         0.55968873E-05     -0.10631553E+01      0.14676995E-11     -0.14198638E-04      0.19601401E-16
    0.169476526767         0.61787544E-05     -0.91097115E+00      0.13799905E-11     -0.12933574E-04      0.19592507E-16
    0.175753435166         0.68055722E-05     -0.78199483E+00      0.11942648E-11     -0.11791994E-04      0.18008767E-16
    0.182030343565         0.74800884E-05     -0.67225054E+00      0.11565284E-11     -0.10757631E-04      0.18507246E-16
    0.188307251963         0.82051763E-05     -0.57844188E+00      0.11278465E-11     -0.98152902E-05      0.19137862E-16
    0.194584160362         0.89838351E-05     -0.49798207E+00      0.10750994E-11     -0.89534526E-05      0.19329715E-16
    0.200861068761         0.98191904E-05     -0.42859589E+00      0.10177862E-11     -0.81592540E-05      0.19375773E-16
    0.207137977160         0.10714494E-04     -0.36850662E+00      0.95640582E-12     -0.74230055E-05      0.19265341E-16
    0.213414885559         0.11673124E-04     -0.31702709E+00      0.89553744E-12     -0.67527601E-05      0.19075182E-16
    0.219691793957         0.12698583E-04     -0.27174757E+00      0.90435209E-12     -0.61168754E-05      0.20356425E-16
    0.225968702356         0.13794497E-04     -0.23203878E+00      0.83085542E-12     -0.55162086E-05      0.19751750E-16
    0.232245610755         0.14964614E-04     -0.19793402E+00      0.78561506E-12     -0.49666205E-05      0.19712892E-16
    0.238522519154         0.16212802E-04     -0.16732262E+00      0.72463448E-12     -0.44290021E-05      0.19180955E-16
    0.244799427552         0.17543047E-04     -0.14113756E+00      0.70702026E-12     -0.39387624E-05      0.19730997E-16
    0.251076335951         0.18959448E-04     -0.11758432E+00      0.66076603E-12     -0.34577363E-05      0.19430777E-16
    0.257353244350         0.20466216E-04     -0.96994832E-01      0.61854493E-12     -0.30038555E-05      0.19155862E-16
    0.263630152749         0.22067666E-04     -0.78775668E-01      0.57743519E-12     -0.25678873E-05      0.18822925E-16
    0.269907061148         0.23768218E-04     -0.62441006E-01      0.56114956E-12     -0.21412866E-05      0.19243477E-16
    0.276183969546         0.25572386E-04     -0.48109774E-01      0.53633171E-12     -0.17347170E-05      0.19338768E-16
    0.282460877945         0.27484778E-04     -0.35018021E-01      0.51047371E-12     -0.13269302E-05      0.19343268E-16
    0.288737786344         0.29510084E-04     -0.23633415E-01      0.48906665E-12     -0.94062356E-06      0.19465135E-16
    0.295014694743         0.31653075E-04     -0.13019287E-01      0.46716610E-12     -0.54397885E-06      0.19519385E-16
    0.301291603141         0.33918591E-04     -0.38274222E-02      0.45301472E-12     -0.16779526E-06      0.19860292E-16
    0.307568511540         0.36311537E-04      0.48706470E-02      0.43213338E-12      0.22392983E-06      0.19867495E-16
    0.313845419939         0.38836871E-04      0.12463295E-01      0.41178539E-12      0.60059797E-06      0.19843666E-16
    0.320122328338         0.41499597E-04      0.19698801E-01      0.38117632E-12      0.99446670E-06      0.19243159E-16
    0.326399236737         0.44304758E-04      0.26143909E-01      0.35974042E-12      0.13819563E-05      0.19015731E-16
    0.332676145135         0.47257422E-04      0.32293985E-01      0.34584822E-12      0.17864569E-05      0.19131827E-16
    0.338953053534         0.50362672E-04      0.37939915E-01      0.32933507E-12      0.21952709E-05      0.19055912E-16
    0.345229961933         0.53625599E-04      0.43295986E-01      0.32499826E-12      0.26189901E-05      0.19659264E-16
    0.351506870332         0.57051287E-04      0.48428805E-01      0.29983678E-12      0.30609619E-05      0.18951303E-16
    0.357783778731         0.60644802E-04      0.53257042E-01      0.28898842E-12      0.35153820E-05      0.19075500E-16
    0.364060687129         0.64411179E-04      0.58120684E-01      0.27651479E-12      0.40044301E-05      0.19051465E-16
    0.370337595528         0.68355412E-04      0.62662830E-01      0.26583838E-12      0.45040962E-05      0.19108004E-16
    0.376614503927         0.72482440E-04      0.67478397E-01      0.25395946E-12      0.50573506E-05      0.19033677E-16
    0.382891412326         0.76797129E-04      0.72000506E-01      0.24627795E-12      0.56237687E-05      0.19236118E-16
    0.389168320724         0.81304267E-04      0.76987846E-01      0.23468206E-12      0.62635503E-05      0.19093181E-16
    0.395445229123         0.86008542E-04      0.81767605E-01      0.22858185E-12      0.69256265E-05      0.19360632E-16
    0.401722137522         0.90914532E-04      0.87203961E-01      0.22340854E-12      0.76853968E-05      0.19689281E-16
    0.407999045921         0.96026689E-04      0.92582821E-01      0.21190188E-12      0.84856626E-05      0.19421830E-16
    0.414275954320         0.10134933E-03      0.98783317E-01      0.20420439E-12      0.94110328E-05      0.19454441E-16
    0.420552862718         0.10688660E-03      0.10521651E+00      0.19583826E-12      0.10413797E-04      0.19383078E-16
    0.426829771117         0.11264250E-03      0.11272860E+00      0.18881905E-12      0.11585218E-04      0.19405101E-16
    0.433106679516         0.11862082E-03      0.12087274E+00      0.18182846E-12      0.12891900E-04      0.19393243E-16
    0.439383587915         0.12482516E-03      0.13050432E+00      0.17237797E-12      0.14437957E-04      0.19070523E-16
    0.445660496313         0.13125892E-03      0.14146495E+00      0.16691675E-12      0.16225425E-04      0.19144639E-16
    0.451937404712         0.13792525E-03      0.15475339E+00      0.16164954E-12      0.18391969E-04      0.19211554E-16
    0.458214313111         0.14482706E-03      0.17062323E+00      0.15531343E-12      0.21001086E-04      0.19116687E-16
    0.464491221510         0.15196699E-03      0.19051724E+00      0.14900677E-12      0.24273287E-04      0.18984549E-16
    0.470768129909         0.15934743E-03      0.21610798E+00      0.14716149E-12      0.28485993E-04      0.19397902E-16
    0.477045038307         0.16697047E-03      0.24981295E+00      0.14255777E-12      0.34050051E-04      0.19430936E-16
    0.483321946706         0.17483788E-03      0.29846966E+00      0.13582978E-12      0.42045714E-04      0.19134474E-16
    0.489598855105         0.18295113E-03      0.36868249E+00      0.12394823E-12      0.53650003E-04      0.18036720E-16
    0.495875763504         0.19131136E-03      0.50233628E+00      0.10982440E-12      0.75471844E-04      0.16500202E-16
    0.502152671902         0.19991936E-03      0.73345675E+00      0.92046450E-13      0.11371457E-03      0.14270811E-16
    0.508429580301         0.20877557E-03      0.18510002E+01      0.76276610E-13      0.29599057E-03      0.12197274E-16
    0.514706488700         0.21788006E-03      0.49993375E+01      0.93722691E-13      0.82412454E-03      0.15449881E-16
    0.520983397099         0.22723252E-03      0.67505392E+01     -0.15830434E-12      0.11465886E-02     -0.26888214E-16
    0.527260305498         0.23683224E-03      0.62546368E+01     -0.11466839E-13      0.10940581E-02     -0.20057740E-17
    0.533537213896         0.24667813E-03      0.11152278E+02      0.12284344E-12      0.20079462E-02      0.22117724E-16
    0.539814122295         0.25676868E-03      0.16646918E+02     -0.47293481E-12      0.30835727E-02     -0.87603536E-16
    0.546091030694         0.26710195E-03      0.14286802E+02     -0.98474054E-13      0.27212571E-02     -0.18756698E-16
    0.552367939093         0.27767559E-03      0.11746843E+02     -0.49069566E-12      0.22996033E-02     -0.96060312E-16
    0.558644847491         0.28848680E-03      0.12082660E+02     -0.26525446E-12      0.24298264E-02     -0.53342747E-16
    0.564921755890         0.29953234E-03      0.12085573E+02     -0.69784229E-12      0.24954289E-02     -0.14409047E-15
    0.571198664289         0.31080855E-03      0.11817431E+02     -0.43695813E-12      0.25040984E-02     -0.92590866E-16
    0.577475572688         0.32231128E-03      0.11206556E+02     -0.81308032E-12      0.24357717E-02     -0.17672495E-15
    0.583752481087         0.33403594E-03      0.10796150E+02      0.55466162E-13      0.24057800E-02      0.12359905E-16
    0.590029389485         0.34597750E-03      0.10414707E+02      0.26778893E-12      0.23781750E-02      0.61149003E-16
    0.596306297884         0.35813043E-03      0.10002289E+02     -0.10244911E-12      0.23393422E-02     -0.23960868E-16
    0.602583206283         0.37048878E-03      0.96543650E+01      0.97357218E-13      0.23115553E-02      0.23310347E-16
    0.608860114682         0.38304611E-03      0.93430165E+01     -0.23941506E-12      0.22889863E-02     -0.58655338E-16
    0.615137023081         0.39579552E-03      0.90986756E+01     -0.40673971E-13      0.22798156E-02     -0.10191500E-16
    0.621413931479         0.40872967E-03      0.88148706E+01     -0.35598242E-12      0.22578426E-02     -0.91181403E-16
    0.627690839878         0.42184075E-03      0.85732741E+01     -0.16570857E-12      0.22437372E-02     -0.43368087E-16
    0.633967748277         0.43512051E-03      0.83249668E+01     -0.46405704E-12      0.22250893E-02     -0.12403273E-15
    0.640244656676         0.44856023E-03      0.80886539E+01     -0.28214429E-12      0.22068540E-02     -0.76978354E-16
    0.646521565074         0.46215079E-03      0.78408324E+01     -0.11411814E-12      0.21826565E-02     -0.31767124E-16
    0.652798473473         0.47588259E-03      0.76060755E+01     -0.38229720E-12      0.21592547E-02     -0.10852864E-15
    0.659075381872         0.48974566E-03      0.73769056E+01     -0.21431287E-12      0.21346775E-02     -0.62016364E-16
    0.665352290271         0.50372956E-03      0.71668699E+01     -0.46703096E-12      0.21129920E-02     -0.13769368E-15
    0.671629198670         0.51782348E-03      0.69715968E+01      0.89554463E-13      0.20931819E-02      0.26888214E-16
    0.677906107068         0.53201623E-03      0.67877152E+01     -0.15964117E-12      0.20744429E-02     -0.48789098E-16
    0.684183015467         0.54629619E-03      0.66148330E+01     -0.18131561E-13      0.20568249E-02     -0.56378513E-17
    0.690459923866         0.56065144E-03      0.64445097E+01      0.11451958E-12      0.20378250E-02      0.36212353E-16
    0.696736832265         0.57506964E-03      0.62841508E+01     -0.11198868E-12      0.20198579E-02     -0.35995512E-16
    0.703013740663         0.58953818E-03      0.61224520E+01      0.17928063E-13      0.19993833E-02      0.58546917E-17
    0.709290649062         0.60404409E-03      0.59697618E+01     -0.19746051E-12      0.19798120E-02     -0.65485811E-16
    0.715567557461         0.61857410E-03      0.58157692E+01     -0.69566537E-13      0.19578111E-02     -0.23418767E-16
    0.721844465860         0.63311469E-03      0.56707765E+01     -0.27267300E-12      0.19368850E-02     -0.93132967E-16
    0.728121374259         0.64765203E-03      0.55265496E+01     -0.15086789E-12      0.19143201E-02     -0.52258545E-16
    0.734398282657         0.66217208E-03      0.53896350E+01     -0.34336285E-12      0.18924356E-02     -0.12056328E-15
    0.740675191056         0.67666057E-03      0.52559146E+01     -0.22368698E-12      0.18698808E-02     -0.79580439E-16
    0.746952099455         0.69110303E-03      0.51278867E+01     -0.11103606E-12      0.18476130E-02     -0.40007060E-16
    0.753229007854         0.70548480E-03      0.50058717E+01     -0.28803873E-12      0.18258407E-02     -0.10505919E-15
    0.759505916252         0.71979107E-03      0.48859002E+01      0.99295401E-13      0.18031939E-02      0.36646033E-16
    0.765782824651         0.73400692E-03      0.47731781E+01     -0.76392188E-13      0.17816595E-02     -0.28514517E-16
    0.772059733050         0.74811728E-03      0.46595485E+01      0.22698442E-13      0.17582684E-02      0.85651972E-17
    0.778336641449         0.76210702E-03      0.45540443E+01     -0.14302344E-12      0.17364740E-02     -0.54535369E-16
    0.784613549848         0.77596097E-03      0.44454438E+01     -0.45605652E-13      0.17120709E-02     -0.17564075E-16
    0.790890458246         0.78966389E-03      0.43452333E+01     -0.20383519E-12      0.16895132E-02     -0.79255179E-16
    0.797167366645         0.80320056E-03      0.42430264E+01     -0.10914663E-12      0.16648410E-02     -0.42825986E-16
    0.803444275044         0.81655577E-03      0.41494228E+01     -0.18628014E-13      0.16422540E-02     -0.73725748E-17
    0.809721183443         0.82971435E-03      0.40541573E+01     -0.16465209E-12      0.16177680E-02     -0.65702652E-16
    0.815998091842         0.84266121E-03      0.39632708E+01     -0.79263127E-13      0.15938232E-02     -0.31875544E-16
    0.822275000240         0.85538134E-03      0.38719389E+01     -0.21758832E-12      0.15685333E-02     -0.88145637E-16
    0.828551908639         0.86785989E-03      0.37820515E+01     -0.13183767E-12      0.15426943E-02     -0.53776428E-16
    0.834828817038         0.88008214E-03      0.36952505E+01     -0.25934235E-12      0.15170231E-02     -0.10646865E-15
    0.841105725437         0.89203353E-03      0.36062554E+01     -0.17772389E-12      0.14893941E-02     -0.73400487E-16
    0.847382633835         0.90369974E-03      0.35219416E+01     -0.29917669E-12      0.14626799E-02     -0.12424957E-15
    0.853659542234         0.91506666E-03      0.34335349E+01     -0.25193670E-13      0.14332833E-02     -0.10516761E-16
    0.859936450633         0.92612043E-03      0.33566170E+01      0.46274278E-13      0.14077497E-02      0.19407219E-16
    0.866213359032         0.93684749E-03      0.32745249E+01     -0.73622361E-13      0.13791607E-02     -0.31008182E-16
    0.872490267431         0.94723458E-03      0.32019699E+01     -0.51288591E-14      0.13537446E-02     -0.21684043E-17
    0.878767175829         0.95726876E-03      0.31196190E+01     -0.11347773E-12      0.13233788E-02     -0.48138576E-16
    0.885044084228         0.96693747E-03      0.30483273E+01     -0.46889118E-13      0.12969333E-02     -0.19949320E-16
    0.891320992627         0.97622851E-03      0.29727381E+01     -0.15124720E-12      0.12679337E-02     -0.64510029E-16
    0.897597901026         0.98513008E-03      0.29072830E+01     -0.86629675E-13      0.12425721E-02     -0.37025504E-16
    0.903874809424         0.99363082E-03      0.28391115E+01     -0.25706148E-13      0.12154071E-02     -0.11004652E-16
    0.910151717823         0.10017198E-02      0.27790154E+01     -0.12546915E-12      0.11910938E-02     -0.53776428E-16
    0.916428626222         0.10093866E-02      0.27269218E+01     -0.65720702E-13      0.11696451E-02     -0.28189256E-16
    0.922705534621         0.10166212E-02      0.26776784E+01     -0.15944873E-12      0.11488861E-02     -0.68413157E-16
    0.928982443020         0.10234142E-02      0.26482749E+01     -0.10184714E-12      0.11361339E-02     -0.43693348E-16
    0.935259351418         0.10297566E-02      0.26182174E+01     -0.19407232E-12      0.11226148E-02     -0.83212517E-16
    0.941536259817         0.10356401E-02      0.26172387E+01      0.83527576E-14      0.11210828E-02      0.35778672E-17
    0.947813168216         0.10410567E-02      0.26066324E+01     -0.85674735E-13      0.11149464E-02     -0.36646033E-16
    0.954090076615         0.10459994E-02      0.26025995E+01     -0.32378437E-13      0.11111480E-02     -0.13823578E-16
    0.960366985013         0.10504613E-02      0.25874794E+01      0.23162546E-13      0.11021539E-02      0.98662398E-17
    0.966643893412         0.10544364E-02      0.25335730E+01     -0.70316212E-13      0.10762417E-02     -0.29869770E-16
    0.972920801811         0.10579192E-02      0.25046887E+01     -0.15362573E-13      0.10605993E-02     -0.65052130E-17
    0.979197710210         0.10609050E-02      0.26799367E+01     -0.11537931E-12      0.11307151E-02     -0.48680678E-16
    0.985474618609         0.10633895E-02      0.46143001E+01     -0.13674664E-12      0.19389889E-02     -0.57462715E-16
    0.991751527007         0.10653692E-02      0.64824868E+01     -0.44577831E-12      0.27118236E-02     -0.18648277E-15
    0.998028435406         0.10668411E-02      0.52061231E+01     -0.24222216E-12      0.21671740E-02     -0.10083080E-15
    1.004305343805         0.10678029E-02      0.38767423E+01     -0.30610957E-12      0.16051470E-02     -0.12674323E-15
    1.010582252204         0.10682532E-02      0.38361261E+01     -0.22387424E-12      0.15791302E-02     -0.92157185E-16
    1.016859160602         0.10681909E-02      0.40285354E+01     -0.15265890E-12      0.16480023E-02     -0.62450045E-16
