 
 # six columns.
 # Omega (column 1); |pulse ft|^2 (2); cross section (Mb) (3); flux (column 5)
 
  0.0000      0.181428E-10      0.000000E+00      0.000000E+00     -0.304099E+00      0.173405E-14
  0.0063      0.992347E-09     -0.150140E+07      0.141236E-07     -0.184871E+00      0.173906E-14
  0.0126      0.391764E-08     -0.190152E+06      0.706674E-08     -0.462169E-01      0.171759E-14
  0.0188      0.880204E-08     -0.564205E+05      0.478858E-08     -0.205403E-01      0.174332E-14
  0.0251      0.156590E-07     -0.237847E+05      0.356099E-08     -0.115534E-01      0.172974E-14
  0.0314      0.245072E-07     -0.121571E+05      0.291103E-08     -0.739367E-02      0.177042E-14
  0.0377      0.353708E-07     -0.701875E+04      0.237921E-08     -0.513405E-02      0.174033E-14
  0.0439      0.482795E-07     -0.440704E+04      0.202678E-08     -0.377154E-02      0.173452E-14
  0.0502      0.632683E-07     -0.294223E+04      0.177598E-08     -0.288722E-02      0.174277E-14
  0.0565      0.803778E-07     -0.205831E+04      0.157224E-08     -0.228092E-02      0.174229E-14
  0.0628      0.996540E-07     -0.149386E+04      0.140802E-08     -0.184719E-02      0.174105E-14
  0.0690      0.121149E-06     -0.111685E+04      0.127931E-08     -0.152625E-02      0.174827E-14
  0.0753      0.144919E-06     -0.855624E+03      0.115605E-08     -0.128213E-02      0.173231E-14
  0.0816      0.171028E-06     -0.669027E+03      0.107090E-08     -0.109213E-02      0.174815E-14
  0.0879      0.199544E-06     -0.532266E+03      0.978668E-09     -0.941341E-03      0.173083E-14
  0.0942      0.230543E-06     -0.429804E+03      0.907732E-09     -0.819668E-03      0.173111E-14
  0.1004      0.264104E-06     -0.351565E+03      0.845615E-09     -0.720058E-03      0.173195E-14
  0.1067      0.300314E-06     -0.290824E+03      0.793012E-09     -0.637475E-03      0.173825E-14
  0.1130      0.339265E-06     -0.242971E+03      0.741766E-09     -0.568235E-03      0.173476E-14
  0.1193      0.381057E-06     -0.204780E+03      0.698476E-09     -0.509602E-03      0.173818E-14
  0.1255      0.425793E-06     -0.173944E+03      0.662229E-09     -0.459499E-03      0.174938E-14
  0.1318      0.473586E-06     -0.148784E+03      0.626067E-09     -0.416335E-03      0.175189E-14
  0.1381      0.524552E-06     -0.128058E+03      0.591762E-09     -0.378862E-03      0.175073E-14
  0.1444      0.578816E-06     -0.110836E+03      0.558610E-09     -0.346098E-03      0.174433E-14
  0.1506      0.636508E-06     -0.964044E+02      0.526402E-09     -0.317246E-03      0.173227E-14
  0.1569      0.697766E-06     -0.842165E+02      0.501729E-09     -0.291658E-03      0.173758E-14
  0.1632      0.762734E-06     -0.738184E+02      0.477203E-09     -0.268702E-03      0.173704E-14
  0.1695      0.831562E-06     -0.648609E+02      0.454919E-09     -0.247868E-03      0.173849E-14
  0.1758      0.904409E-06     -0.565935E+02      0.427606E-09     -0.226819E-03      0.171379E-14
  0.1820      0.981440E-06     -0.476885E+02      0.410385E-09     -0.200256E-03      0.172331E-14
  0.1883      0.106283E-05     -0.401807E+02      0.393689E-09     -0.176631E-03      0.173062E-14
  0.1946      0.114875E-05     -0.364566E+02      0.377317E-09     -0.167628E-03      0.173491E-14
  0.2009      0.123939E-05     -0.313226E+02      0.360318E-09     -0.150530E-03      0.173162E-14
  0.2071      0.133496E-05     -0.206136E+02      0.345386E-09     -0.103470E-03      0.173366E-14
  0.2134      0.143564E-05     -0.969405E+01      0.328726E-09     -0.507899E-04      0.172229E-14
  0.2197      0.154164E-05     -0.565981E+01      0.319519E-09     -0.309332E-04      0.174630E-14
  0.2260      0.165320E-05     -0.425405E+01      0.305146E-09     -0.242400E-04      0.173875E-14
  0.2322      0.177052E-05      0.133874E+01      0.292785E-09      0.794884E-05      0.173842E-14
  0.2385      0.189385E-05      0.677977E+01      0.280266E-09      0.419261E-04      0.173316E-14
  0.2448      0.202343E-05      0.101467E+02      0.269459E-09      0.653215E-04      0.173469E-14
  0.2511      0.215950E-05      0.132521E+02      0.258369E-09      0.887737E-04      0.173077E-14
  0.2574      0.230232E-05      0.159565E+02      0.248201E-09      0.111180E-03      0.172939E-14
  0.2636      0.245216E-05      0.187197E+02      0.237957E-09      0.135614E-03      0.172386E-14
  0.2699      0.260928E-05      0.211641E+02      0.229627E-09      0.159353E-03      0.172895E-14
  0.2762      0.277398E-05      0.235139E+02      0.220844E-09      0.183943E-03      0.172760E-14
  0.2825      0.294655E-05      0.257189E+02      0.212566E-09      0.208958E-03      0.172704E-14
  0.2887      0.312727E-05      0.277358E+02      0.204273E-09      0.233967E-03      0.172316E-14
  0.2950      0.331647E-05      0.295503E+02      0.198272E-09      0.258730E-03      0.173598E-14
  0.3013      0.351445E-05      0.310327E+02      0.191294E-09      0.281931E-03      0.173789E-14
  0.3076      0.372154E-05      0.323107E+02      0.185390E-09      0.304494E-03      0.174711E-14
  0.3138      0.393807E-05      0.333422E+02      0.177971E-09      0.325847E-03      0.173928E-14
  0.3201      0.416438E-05      0.342924E+02      0.170812E-09      0.347444E-03      0.173063E-14
  0.3264      0.440082E-05      0.351141E+02      0.164161E-09      0.368739E-03      0.172388E-14
  0.3327      0.464775E-05      0.358849E+02      0.158098E-09      0.390469E-03      0.172029E-14
  0.3390      0.490554E-05      0.365522E+02      0.153179E-09      0.412015E-03      0.172663E-14
  0.3452      0.517456E-05      0.371202E+02      0.149071E-09      0.433339E-03      0.174024E-14
  0.3515      0.545519E-05      0.375750E+02      0.142792E-09      0.454180E-03      0.172597E-14
  0.3578      0.574782E-05      0.378918E+02      0.137923E-09      0.474111E-03      0.172572E-14
  0.3641      0.605285E-05      0.381147E+02      0.133100E-09      0.493550E-03      0.172352E-14
  0.3703      0.637069E-05      0.382064E+02      0.128371E-09      0.511890E-03      0.171992E-14
  0.3766      0.670175E-05      0.382463E+02      0.123755E-09      0.530070E-03      0.171517E-14
  0.3829      0.704646E-05      0.381815E+02      0.120603E-09      0.547269E-03      0.172865E-14
  0.3892      0.740524E-05      0.380930E+02      0.116012E-09      0.564545E-03      0.171931E-14
  0.3954      0.777853E-05      0.379208E+02      0.112184E-09      0.580954E-03      0.171868E-14
  0.4017      0.816678E-05      0.377298E+02      0.109069E-09      0.597396E-03      0.172694E-14
  0.4080      0.857044E-05      0.374737E+02      0.105430E-09      0.613088E-03      0.172488E-14
  0.4143      0.898997E-05      0.371917E+02      0.101634E-09      0.628590E-03      0.171776E-14
  0.4206      0.942583E-05      0.368665E+02      0.982263E-10      0.643552E-03      0.171467E-14
  0.4268      0.987850E-05      0.365038E+02      0.958730E-10      0.658002E-03      0.172816E-14
  0.4331      0.103484E-04      0.361223E+02      0.924834E-10      0.672215E-03      0.172106E-14
  0.4394      0.108362E-04      0.356907E+02      0.890985E-10      0.685551E-03      0.171141E-14
  0.4457      0.113421E-04      0.352653E+02      0.862455E-10      0.699023E-03      0.170954E-14
  0.4519      0.118669E-04      0.347780E+02      0.843113E-10      0.711238E-03      0.172423E-14
  0.4582      0.124109E-04      0.343216E+02      0.815324E-10      0.724024E-03      0.171995E-14
  0.4645      0.129746E-04      0.337932E+02      0.787816E-10      0.735189E-03      0.171393E-14
  0.4708      0.135586E-04      0.333226E+02      0.771356E-10      0.747481E-03      0.173028E-14
  0.4770      0.141634E-04      0.327701E+02      0.744513E-10      0.757772E-03      0.172160E-14
  0.4833      0.147895E-04      0.323132E+02      0.725628E-10      0.770105E-03      0.172936E-14
  0.4896      0.154375E-04      0.317581E+02      0.699025E-10      0.779905E-03      0.171664E-14
  0.4959      0.161077E-04      0.313999E+02      0.674111E-10      0.794406E-03      0.170548E-14
  0.5022      0.168009E-04      0.309160E+02      0.651557E-10      0.805625E-03      0.169786E-14
  0.5084      0.175175E-04      0.315070E+02      0.638999E-10      0.845474E-03      0.171472E-14
  0.5147      0.182580E-04      0.317253E+02      0.626243E-10      0.876500E-03      0.173017E-14
  0.5210      0.190230E-04      0.288377E+02      0.597248E-10      0.820100E-03      0.169848E-14
  0.5273      0.198130E-04      0.287814E+02      0.586270E-10      0.842344E-03      0.171583E-14
  0.5335      0.206285E-04      0.320604E+02      0.574989E-10      0.965440E-03      0.173147E-14
  0.5398      0.214702E-04      0.333112E+02      0.547923E-10      0.103189E-02      0.169732E-14
  0.5461      0.223384E-04      0.317631E+02      0.539982E-10      0.101196E-02      0.172036E-14
  0.5524      0.232338E-04      0.303488E+02      0.514218E-10      0.994226E-03      0.168458E-14
  0.5586      0.241569E-04      0.301054E+02      0.506015E-10      0.101392E-02      0.170420E-14
  0.5649      0.251082E-04      0.296085E+02      0.482401E-10      0.102493E-02      0.166989E-14
  0.5712      0.260882E-04      0.290097E+02      0.474923E-10      0.103194E-02      0.168940E-14
  0.5775      0.270976E-04      0.282949E+02      0.451682E-10      0.103409E-02      0.165075E-14
  0.5838      0.281367E-04      0.276656E+02      0.461347E-10      0.103857E-02      0.173190E-14
  0.5900      0.292061E-04      0.270460E+02      0.454436E-10      0.104269E-02      0.175196E-14
  0.5963      0.303063E-04      0.264263E+02      0.433366E-10      0.104605E-02      0.171542E-14
  0.6026      0.314379E-04      0.258443E+02      0.426514E-10      0.105016E-02      0.173310E-14
  0.6089      0.326014E-04      0.252785E+02      0.405464E-10      0.105420E-02      0.169092E-14
  0.6151      0.337971E-04      0.247503E+02      0.401586E-10      0.105911E-02      0.171846E-14
  0.6214      0.350257E-04      0.242212E+02      0.382464E-10      0.106330E-02      0.167900E-14
  0.6277      0.362876E-04      0.237128E+02      0.378227E-10      0.106770E-02      0.170301E-14
  0.6340      0.375833E-04      0.231998E+02      0.360726E-10      0.107119E-02      0.166555E-14
  0.6402      0.389132E-04      0.226991E+02      0.356188E-10      0.107451E-02      0.168610E-14
  0.6465      0.402778E-04      0.221971E+02      0.352242E-10      0.107704E-02      0.170914E-14
  0.6528      0.416776E-04      0.217112E+02      0.336598E-10      0.107959E-02      0.167374E-14
  0.6591      0.431129E-04      0.212317E+02      0.333798E-10      0.108170E-02      0.170063E-14
  0.6654      0.445843E-04      0.207718E+02      0.317131E-10      0.108407E-02      0.165509E-14
  0.6716      0.460920E-04      0.203205E+02      0.325564E-10      0.108613E-02      0.174014E-14
  0.6779      0.476366E-04      0.198871E+02      0.310305E-10      0.108842E-02      0.169829E-14
  0.6842      0.492184E-04      0.194602E+02      0.307477E-10      0.109032E-02      0.172274E-14
  0.6905      0.508377E-04      0.190486E+02      0.304157E-10      0.109236E-02      0.174421E-14
  0.6967      0.524950E-04      0.186416E+02      0.290147E-10      0.109392E-02      0.170263E-14
  0.7030      0.541906E-04      0.182487E+02      0.287439E-10      0.109558E-02      0.172567E-14
  0.7093      0.559247E-04      0.178596E+02      0.274242E-10      0.109674E-02      0.168409E-14
  0.7156      0.576977E-04      0.174850E+02      0.272034E-10      0.109806E-02      0.170838E-14
  0.7218      0.595099E-04      0.171141E+02      0.260103E-10      0.109889E-02      0.167011E-14
  0.7281      0.613616E-04      0.167574E+02      0.257916E-10      0.109990E-02      0.169287E-14
  0.7344      0.632531E-04      0.164045E+02      0.246704E-10      0.110044E-02      0.165493E-14
  0.7407      0.651845E-04      0.160649E+02      0.245331E-10      0.110115E-02      0.168160E-14
  0.7470      0.671560E-04      0.157295E+02      0.243097E-10      0.110143E-02      0.170225E-14
  0.7532      0.691680E-04      0.154058E+02      0.232165E-10      0.110183E-02      0.166046E-14
  0.7595      0.712204E-04      0.150868E+02      0.239059E-10      0.110185E-02      0.174594E-14
  0.7658      0.733136E-04      0.147775E+02      0.228518E-10      0.110188E-02      0.170393E-14
  0.7721      0.754477E-04      0.144741E+02      0.227058E-10      0.110164E-02      0.172816E-14
  0.7783      0.776227E-04      0.141782E+02      0.217123E-10      0.110127E-02      0.168648E-14
  0.7846      0.798387E-04      0.138894E+02      0.214995E-10      0.110076E-02      0.170388E-14
  0.7909      0.820958E-04      0.136059E+02      0.205895E-10      0.109998E-02      0.166458E-14
  0.7972      0.843941E-04      0.133310E+02      0.205007E-10      0.109920E-02      0.169038E-14
  0.8034      0.867335E-04      0.130592E+02      0.203969E-10      0.109800E-02      0.171494E-14
  0.8097      0.891141E-04      0.127976E+02      0.195581E-10      0.109696E-02      0.167645E-14
  0.8160      0.915357E-04      0.125372E+02      0.194352E-10      0.109535E-02      0.169802E-14
  0.8223      0.939985E-04      0.122883E+02      0.186442E-10      0.109408E-02      0.165997E-14
  0.8286      0.965021E-04      0.120398E+02      0.185686E-10      0.109217E-02      0.168442E-14
  0.8348      0.990467E-04      0.118036E+02      0.178016E-10      0.109071E-02      0.164495E-14
  0.8411      0.101632E-03      0.115674E+02      0.177194E-10      0.108860E-02      0.166756E-14
  0.8474      0.104258E-03      0.113437E+02      0.169817E-10      0.108701E-02      0.162728E-14
  0.8537      0.106924E-03      0.111210E+02      0.175500E-10      0.108489E-02      0.171206E-14
  0.8599      0.109630E-03      0.109106E+02      0.174643E-10      0.108333E-02      0.173407E-14
  0.8662      0.112376E-03      0.107029E+02      0.167816E-10      0.108144E-02      0.169564E-14
  0.8725      0.115162E-03      0.105060E+02      0.167152E-10      0.108003E-02      0.171835E-14
  0.8788      0.117986E-03      0.103143E+02      0.160602E-10      0.107857E-02      0.167943E-14
  0.8850      0.120850E-03      0.101314E+02      0.160083E-10      0.107747E-02      0.170247E-14
  0.8913      0.123752E-03      0.995733E+01      0.153858E-10      0.107675E-02      0.166376E-14
  0.8976      0.126693E-03      0.978998E+01      0.153293E-10      0.107623E-02      0.168518E-14
  0.9039      0.129671E-03      0.963600E+01      0.152688E-10      0.107667E-02      0.170605E-14
  0.9102      0.132686E-03      0.948588E+01      0.146931E-10      0.107706E-02      0.166832E-14
  0.9164      0.135738E-03      0.935187E+01      0.145986E-10      0.107883E-02      0.168409E-14
  0.9227      0.138826E-03      0.921850E+01      0.140945E-10      0.108024E-02      0.165162E-14
  0.9290      0.141950E-03      0.910036E+01      0.140762E-10      0.108303E-02      0.167520E-14
  0.9353      0.145109E-03      0.897139E+01      0.135363E-10      0.108411E-02      0.163574E-14
  0.9415      0.148302E-03      0.882267E+01      0.140115E-10      0.108234E-02      0.171889E-14
  0.9478      0.151529E-03      0.860058E+01      0.134933E-10      0.107091E-02      0.168013E-14
  0.9541      0.154790E-03      0.819476E+01      0.134720E-10      0.103548E-02      0.170231E-14
  0.9604      0.158082E-03      0.752783E+01      0.134309E-10      0.965090E-03      0.172188E-14
  0.9666      0.161406E-03      0.667195E+01      0.129268E-10      0.867680E-03      0.168111E-14
  0.9729      0.164761E-03      0.645724E+01      0.129262E-10      0.851681E-03      0.170491E-14
  0.9792      0.168146E-03      0.725331E+01      0.125057E-10      0.970076E-03      0.167254E-14
  0.9855      0.171561E-03      0.927058E+01      0.124165E-10      0.125699E-02      0.168355E-14
  0.9918      0.175003E-03      0.118205E+02      0.117213E-10      0.162454E-02      0.161091E-14
  0.9980      0.178473E-03      0.127800E+02      0.117592E-10      0.177997E-02      0.163780E-14
  1.0043      0.181970E-03      0.134821E+02      0.110825E-10      0.190258E-02      0.156396E-14
  1.0106      0.185492E-03      0.147078E+02      0.110887E-10      0.210260E-02      0.158521E-14
  1.0169      0.189039E-03      0.146874E+02      0.112582E-10      0.212662E-02      0.163010E-14
  1.0231      0.192609E-03      0.134636E+02      0.106748E-10      0.197405E-02      0.156515E-14
  1.0294      0.196202E-03      0.108180E+02      0.115866E-10      0.160588E-02      0.171998E-14
  1.0357      0.199816E-03      0.780878E+01      0.111982E-10      0.117338E-02      0.168268E-14
  1.0420      0.203451E-03      0.779602E+01      0.107661E-10      0.118558E-02      0.163725E-14
  1.0482      0.207105E-03      0.928319E+01      0.112571E-10      0.142849E-02      0.173223E-14
  1.0545      0.210777E-03      0.811278E+01      0.108298E-10      0.126296E-02      0.168593E-14
  1.0608      0.214466E-03      0.618160E+01      0.105640E-10      0.973371E-03      0.166344E-14
  1.0671      0.218170E-03      0.551241E+01      0.108958E-10      0.877799E-03      0.173505E-14
  1.0734      0.221889E-03      0.516177E+01      0.105964E-10      0.831085E-03      0.170610E-14
  1.0796      0.225621E-03      0.498336E+01      0.103072E-10      0.811112E-03      0.167764E-14
  1.0859      0.229365E-03      0.486062E+01      0.100325E-10      0.799614E-03      0.165043E-14
  1.0922      0.233120E-03      0.477720E+01      0.103072E-10      0.794165E-03      0.171347E-14
  1.0985      0.236884E-03      0.471833E+01      0.100429E-10      0.792488E-03      0.168680E-14
  1.1047      0.240656E-03      0.468285E+01      0.975285E-11      0.794512E-03      0.165471E-14
  1.1110      0.244434E-03      0.468117E+01      0.948138E-11      0.802138E-03      0.162468E-14
  1.1173      0.248218E-03      0.471798E+01      0.974270E-11      0.816349E-03      0.168577E-14
  1.1236      0.252005E-03      0.479889E+01      0.947641E-11      0.838308E-03      0.165541E-14
  1.1298      0.255795E-03      0.511364E+01      0.916558E-11      0.901688E-03      0.161617E-14
  1.1361      0.259585E-03      0.534814E+01      0.944870E-11      0.951724E-03      0.168143E-14
  1.1424      0.263375E-03      0.519875E+01      0.918093E-11      0.933488E-03      0.164853E-14
  1.1487      0.267163E-03      0.516718E+01      0.891465E-11      0.936021E-03      0.161486E-14
  1.1550      0.270947E-03      0.518357E+01      0.865096E-11      0.947116E-03      0.158066E-14
  1.1612      0.274727E-03      0.503752E+01      0.956066E-11      0.928224E-03      0.176167E-14
  1.1675      0.278499E-03      0.489624E+01      0.930005E-11      0.909663E-03      0.172784E-14
  1.1738      0.282264E-03      0.465911E+01      0.905979E-11      0.872616E-03      0.169683E-14
  1.1801      0.286019E-03      0.438209E+01      0.933327E-11      0.827226E-03      0.176188E-14
  1.1863      0.289762E-03      0.430865E+01      0.912662E-11      0.819648E-03      0.173619E-14
  1.1926      0.293493E-03      0.427089E+01      0.889453E-11      0.818595E-03      0.170480E-14
  1.1989      0.297209E-03      0.415248E+01      0.868663E-11      0.801758E-03      0.167721E-14
  1.2052      0.300909E-03      0.401072E+01      0.893973E-11      0.779945E-03      0.173846E-14
  1.2114      0.304592E-03      0.387156E+01      0.873231E-11      0.758147E-03      0.171000E-14
  1.2177      0.308256E-03      0.373431E+01      0.853411E-11      0.736252E-03      0.168257E-14
  1.2240      0.311898E-03      0.359232E+01      0.876117E-11      0.712951E-03      0.173879E-14
  1.2303      0.315519E-03      0.345454E+01      0.856393E-11      0.690027E-03      0.171060E-14
  1.2366      0.319115E-03      0.332413E+01      0.840840E-11      0.668136E-03      0.169005E-14
  1.2428      0.322685E-03      0.320629E+01      0.825489E-11      0.648371E-03      0.166929E-14
  1.2491      0.326229E-03      0.309896E+01      0.846205E-11      0.630364E-03      0.172128E-14
  1.2554      0.329743E-03      0.300294E+01      0.830289E-11      0.614326E-03      0.169857E-14
