 
 # Omega; pulse ft; projected flux at t=    500.250000000000     
    0.000000000000         0.23910205E-10      0.00000000E+00      0.00000000E+00     -0.36951426E-01     -0.16696713E-16
    0.006276908399         0.59245936E-08     -0.61111931E+05     -0.43839624E-10     -0.22462667E-01     -0.16113955E-16
    0.012553816798         0.23666714E-07     -0.76465229E+04     -0.25521177E-10     -0.56136937E-02     -0.18736369E-16
    0.018830725196         0.53370592E-07     -0.22592986E+04     -0.14157680E-10     -0.24936250E-02     -0.15626064E-16
    0.025107633595         0.95237123E-07     -0.94871920E+03     -0.11551091E-10     -0.14013955E-02     -0.17062632E-16
    0.031384541994         0.14954832E-06     -0.48277047E+03     -0.66827173E-11     -0.89583697E-03     -0.12400562E-16
    0.037661450393         0.21666807E-06     -0.27723801E+03     -0.71191838E-11     -0.62111668E-03     -0.15949630E-16
    0.043938358791         0.29704308E-06     -0.17297728E+03     -0.63987223E-11     -0.45539390E-03     -0.16845791E-16
    0.050215267190         0.39120404E-06     -0.11468869E+03     -0.50718864E-11     -0.34794508E-03     -0.15387201E-16
    0.056492175589         0.49976695E-06     -0.79614177E+02     -0.45214763E-11     -0.27427877E-03     -0.15576936E-16
    0.062769083988         0.62343466E-06     -0.57247007E+02     -0.41026373E-11     -0.22142185E-03     -0.15868315E-16
    0.069045992387         0.76299851E-06     -0.42362407E+02     -0.34555575E-11     -0.18230072E-03     -0.14870510E-16
    0.075322900785         0.91934020E-06     -0.32089467E+02     -0.35700519E-11     -0.15252262E-03     -0.16968611E-16
    0.081599809184         0.10934337E-05     -0.24781821E+02     -0.28487318E-11     -0.12931803E-03     -0.14865428E-16
    0.087876717583         0.12863475E-05     -0.19448648E+02     -0.30703414E-11     -0.11086550E-03     -0.17502242E-16
    0.094153625982         0.14992463E-05     -0.15472847E+02     -0.26592744E-11     -0.95946409E-04     -0.16490037E-16
    0.100430534380         0.17333941E-05     -0.12452617E+02     -0.25205652E-11     -0.83697931E-04     -0.16941506E-16
    0.106707442779         0.19901556E-05     -0.10120925E+02     -0.22559617E-11     -0.73508081E-04     -0.16385005E-16
    0.112984351178         0.22709991E-05     -0.82952549E+01     -0.21039295E-11     -0.64930830E-04     -0.16468438E-16
    0.119261259577         0.25774989E-05     -0.68471273E+01     -0.18937276E-11     -0.57627535E-04     -0.15938195E-16
    0.125538167976         0.29113373E-05     -0.56853970E+01     -0.16831258E-11     -0.51345227E-04     -0.15200430E-16
    0.131815076374         0.32743070E-05     -0.47436938E+01     -0.15248757E-11     -0.45887406E-04     -0.14750655E-16
    0.138091984773         0.36683138E-05     -0.39725199E+01     -0.14010958E-11     -0.41094777E-04     -0.14494004E-16
    0.144368893172         0.40953781E-05     -0.33355773E+01     -0.13984102E-11     -0.36848001E-04     -0.15448187E-16
    0.150645801571         0.45576374E-05     -0.28048858E+01     -0.14376362E-11     -0.33046119E-04     -0.16937694E-16
    0.156922709970         0.50573481E-05     -0.23585045E+01     -0.12743162E-11     -0.29600312E-04     -0.15993253E-16
    0.163199618368         0.55968873E-05     -0.19793783E+01     -0.12410397E-11     -0.26434967E-04     -0.16574317E-16
    0.169476526767         0.61787544E-05     -0.16532065E+01     -0.11302967E-11     -0.23471510E-04     -0.16047463E-16
    0.175753435166         0.68055722E-05     -0.13682588E+01     -0.13173930E-11     -0.20632488E-04     -0.19865464E-16
    0.182030343565         0.74800884E-05     -0.11115932E+01     -0.11241740E-11     -0.17788174E-04     -0.17989497E-16
    0.188307251963         0.82051763E-05     -0.87042150E+00     -0.10038254E-11     -0.14769746E-04     -0.17033409E-16
    0.194584160362         0.89838351E-05     -0.60305616E+00     -0.93268250E-12     -0.10842629E-04     -0.16769135E-16
    0.200861068761         0.98191904E-05     -0.22262471E+00     -0.88440825E-12     -0.42381452E-05     -0.16836633E-16
    0.207137977160         0.10714494E-04      0.88225766E+00     -0.85350952E-12      0.17771739E-04     -0.17192651E-16
    0.213414885559         0.11673124E-04      0.29095285E+01     -0.83234877E-12      0.61973719E-04     -0.17729247E-16
    0.219691793957         0.12698583E-04      0.40747516E+01     -0.72355317E-12      0.91720224E-04     -0.16286750E-16
    0.225968702356         0.13794497E-04      0.43328061E+01     -0.69315300E-12      0.10300288E-03     -0.16478179E-16
    0.232245610755         0.14964614E-04      0.55407939E+01     -0.71564168E-12      0.13903128E-03     -0.17957098E-16
    0.238522519154         0.16212802E-04      0.69257828E+01     -0.68390256E-12      0.18332433E-03     -0.18102788E-16
    0.244799427552         0.17543047E-04      0.77737431E+01     -0.70476665E-12      0.21694386E-03     -0.19668105E-16
    0.251076335951         0.18959448E-04      0.84016476E+01     -0.77011269E-12      0.24706255E-03     -0.22646273E-16
    0.257353244350         0.20466216E-04      0.88151731E+01     -0.57786747E-12      0.27299915E-03     -0.17896112E-16
    0.263630152749         0.22067666E-04      0.93064454E+01     -0.63880600E-12      0.30336655E-03     -0.20823458E-16
    0.269907061148         0.23768218E-04      0.97714753E+01     -0.67934635E-12      0.33509277E-03     -0.23296794E-16
    0.276183969546         0.25572386E-04      0.10264728E+02     -0.71319246E-12      0.37012019E-03     -0.25715920E-16
    0.282460877945         0.27484778E-04      0.10749347E+02     -0.79953686E-12      0.40732264E-03     -0.30296674E-16
    0.288737786344         0.29510084E-04      0.11202276E+02     -0.87068617E-12      0.44585707E-03     -0.34653812E-16
    0.295014694743         0.31653075E-04      0.11591791E+02     -0.30651892E-12      0.48433443E-03     -0.12807138E-16
    0.301291603141         0.33918591E-04      0.11855745E+02     -0.35364945E-12      0.51975920E-03     -0.15504091E-16
    0.307568511540         0.36311537E-04      0.12060962E+02     -0.41327868E-12      0.55450726E-03     -0.19000643E-16
    0.313845419939         0.38836871E-04      0.12178542E+02     -0.50228564E-12      0.58687591E-03     -0.24204814E-16
    0.320122328338         0.41499597E-04      0.12304320E+02     -0.59972617E-12      0.62116658E-03     -0.30276346E-16
    0.326399236737         0.44304758E-04      0.12390427E+02     -0.69019461E-12      0.65495286E-03     -0.36483403E-16
    0.332676145135         0.47257422E-04      0.12508153E+02     -0.77319026E-12      0.69193307E-03     -0.42771776E-16
    0.338953053534         0.50362672E-04      0.12596418E+02     -0.51154184E-12      0.72885113E-03     -0.29598719E-16
    0.345229961933         0.53625599E-04      0.12697712E+02     -0.21956350E-12      0.76808929E-03     -0.13281477E-16
    0.351506870332         0.57051287E-04      0.12764620E+02     -0.31605568E-12      0.80679290E-03     -0.19976425E-16
    0.357783778731         0.60644802E-04      0.12812285E+02     -0.39749362E-12      0.84571118E-03     -0.26237693E-16
    0.364060687129         0.64411179E-04      0.12833946E+02     -0.48310178E-12      0.88424010E-03     -0.33285007E-16
    0.370337595528         0.68355412E-04      0.12817808E+02     -0.57469524E-12      0.92132191E-03     -0.41308103E-16
    0.376614503927         0.72482440E-04      0.12798892E+02     -0.66254815E-12      0.95924753E-03     -0.49656459E-16
    0.382891412326         0.76797129E-04      0.12738162E+02     -0.38866587E-12      0.99494405E-03     -0.30357661E-16
    0.389168320724         0.81304267E-04      0.12700528E+02     -0.47441878E-12      0.10332851E-02     -0.38597597E-16
    0.395445229123         0.86008542E-04      0.12615764E+02     -0.55618883E-12      0.10685414E-02     -0.47108584E-16
    0.401722137522         0.90914532E-04      0.12567467E+02     -0.28633199E-12      0.11075870E-02     -0.25234806E-16
    0.407999045921         0.96026689E-04      0.12470234E+02     -0.37025357E-12      0.11429571E-02     -0.33935528E-16
    0.414275954320         0.10134933E-03      0.12413290E+02     -0.46460383E-12      0.11826074E-02     -0.44262554E-16
    0.420552862718         0.10688660E-03      0.12313344E+02     -0.54826326E-12      0.12187124E-02     -0.54264319E-16
    0.426829771117         0.11264250E-03      0.12245994E+02     -0.29222673E-12      0.12585317E-02     -0.30032400E-16
    0.433106679516         0.11862082E-03      0.12144268E+02     -0.37408433E-12      0.12952688E-02     -0.39898640E-16
    0.439383587915         0.12482516E-03      0.12064500E+02     -0.45668351E-12      0.13347201E-02     -0.50523821E-16
    0.445660496313         0.13125892E-03      0.11971554E+02     -0.54212128E-12      0.13730862E-02     -0.62178995E-16
    0.451937404712         0.13792525E-03      0.11879124E+02     -0.28599588E-12      0.14117976E-02     -0.33989738E-16
    0.458214313111         0.14482706E-03      0.11799289E+02     -0.37304402E-12      0.14523103E-02     -0.45915962E-16
    0.464491221510         0.15196699E-03      0.11698639E+02     -0.45527075E-12      0.14904920E-02     -0.58004816E-16
    0.470768129909         0.15934743E-03      0.11647017E+02     -0.21467932E-12      0.15352365E-02     -0.28297677E-16
    0.477045038307         0.16697047E-03      0.11545304E+02     -0.29192650E-12      0.15736501E-02     -0.39790220E-16
    0.483321946706         0.17483788E-03      0.11551369E+02     -0.37212188E-12      0.16272528E-02     -0.52421175E-16
    0.489598855105         0.18295113E-03      0.11472142E+02     -0.45709619E-12      0.16694052E-02     -0.66515803E-16
    0.495875763504         0.19131136E-03      0.11653130E+02     -0.54844547E-12      0.17507858E-02     -0.82399365E-16
    0.502152671902         0.19991936E-03      0.11693765E+02     -0.64126567E-12      0.18129924E-02     -0.99421339E-16
    0.508429580301         0.20877557E-03      0.12850223E+02     -0.42308093E-12      0.20548592E-02     -0.67654216E-16
    0.514706488700         0.21788006E-03      0.12243550E+02     -0.15653334E-12      0.20183095E-02     -0.25804012E-16
    0.520983397099         0.22723252E-03      0.91347434E+01     -0.46757229E-12      0.15515490E-02     -0.79417809E-16
    0.527260305498         0.23683224E-03      0.91012269E+01     -0.27489422E-12      0.15919823E-02     -0.48084366E-16
    0.533537213896         0.24667813E-03      0.97255213E+01     -0.80089103E-13      0.17510614E-02     -0.14419889E-16
    0.539814122295         0.25676868E-03      0.91789493E+01     -0.40825746E-12      0.17002521E-02     -0.75623102E-16
    0.546091030694         0.26710195E-03      0.88673577E+01     -0.21203228E-12      0.16889967E-02     -0.40386531E-16
    0.552367939093         0.27767559E-03      0.87320779E+01     -0.52392561E-12      0.17094224E-02     -0.10256553E-15
    0.558644847491         0.28848680E-03      0.86608756E+01     -0.34127250E-12      0.17417046E-02     -0.68629998E-16
    0.564921755890         0.29953234E-03      0.84678966E+01     -0.63273135E-12      0.17484512E-02     -0.13064636E-15
    0.571198664289         0.31080855E-03      0.83380453E+01     -0.45230795E-12      0.17668211E-02     -0.95843472E-16
    0.577475572688         0.32231128E-03      0.81890713E+01     -0.73725933E-12      0.17799142E-02     -0.16024508E-15
    0.583752481087         0.33403594E-03      0.80779751E+01     -0.99741783E-13      0.18000705E-02     -0.22226145E-16
    0.590029389485         0.34597750E-03      0.79378838E+01      0.65522824E-13      0.18125980E-02      0.14961990E-16
    0.596306297884         0.35813043E-03      0.78286089E+01     -0.21695105E-12      0.18309605E-02     -0.50740662E-16
    0.602583206283         0.37048878E-03      0.77065092E+01     -0.58867155E-13      0.18451781E-02     -0.14094628E-16
    0.608860114682         0.38304611E-03      0.75993883E+01     -0.32969357E-12      0.18618072E-02     -0.80773062E-16
    0.615137023081         0.39579552E-03      0.74854545E+01     -0.16485939E-12      0.18755978E-02     -0.41308103E-16
    0.621413931479         0.40872967E-03      0.73779569E+01     -0.42794081E-12      0.18897913E-02     -0.10961284E-15
    0.627690839878         0.42184075E-03      0.72678320E+01     -0.26720508E-12      0.19020861E-02     -0.69931040E-16
    0.633967748277         0.43512051E-03      0.71614154E+01     -0.52409239E-12      0.19140964E-02     -0.14007892E-15
    0.640244656676         0.44856023E-03      0.70579112E+01     -0.36956929E-12      0.19256331E-02     -0.10083080E-15
    0.646521565074         0.46215079E-03      0.69533247E+01     -0.22278353E-12      0.19356006E-02     -0.62016364E-16
    0.652798473473         0.47588259E-03      0.68536188E+01     -0.46402707E-12      0.19456431E-02     -0.13173056E-15
    0.659075381872         0.48974566E-03      0.67506513E+01     -0.30985445E-12      0.19534564E-02     -0.89663520E-16
    0.665352290271         0.50372956E-03      0.66537765E+01     -0.54756622E-12      0.19617178E-02     -0.16143770E-15
    0.671629198670         0.51782348E-03      0.65523896E+01     -0.30332963E-13      0.19673174E-02     -0.91072982E-17
    0.677906107068         0.53201623E-03      0.64575741E+01     -0.26571386E-12      0.19735461E-02     -0.81206743E-16
    0.684183015467         0.54629619E-03      0.63585109E+01     -0.12866434E-12      0.19771237E-02     -0.40007060E-16
    0.690459923866         0.56065144E-03      0.62661564E+01      0.00000000E+00      0.19814277E-02      0.00000000E+00
    0.696736832265         0.57506964E-03      0.61704574E+01     -0.22026690E-12      0.19833144E-02     -0.70798402E-16
    0.703013740663         0.58953818E-03      0.60809221E+01     -0.93956329E-13      0.19858210E-02     -0.30682921E-16
    0.709290649062         0.60404409E-03      0.59886162E+01     -0.30632533E-12      0.19860649E-02     -0.10158974E-15
    0.715567557461         0.61857410E-03      0.59016401E+01     -0.17906942E-12      0.19867186E-02     -0.60281641E-16
    0.721844465860         0.63311469E-03      0.58129718E+01     -0.38758293E-12      0.19854526E-02     -0.13238109E-15
    0.728121374259         0.64765203E-03      0.57286023E+01     -0.26292329E-12      0.19843084E-02     -0.91072982E-16
    0.734398282657         0.66217208E-03      0.56437012E+01     -0.46502199E-12      0.19816446E-02     -0.16328085E-15
    0.740675191056         0.67666057E-03      0.55633253E+01     -0.34010174E-12      0.19792474E-02     -0.12099696E-15
    0.746952099455         0.69110303E-03      0.54842721E+01     -0.22116939E-12      0.19760211E-02     -0.79688860E-16
    0.753229007854         0.70548480E-03      0.54086109E+01     -0.41556052E-12      0.19727357E-02     -0.15157146E-15
    0.759505916252         0.71979107E-03      0.53332885E+01      0.67567877E-14      0.19683074E-02      0.24936650E-17
    0.765782824651         0.73400692E-03      0.52600922E+01     -0.18589734E-12      0.19634074E-02     -0.69388939E-16
    0.772059733050         0.74811728E-03      0.51880119E+01     -0.75853020E-13      0.19576826E-02     -0.28622937E-16
    0.778336641449         0.76210702E-03      0.51176296E+01     -0.26187791E-12      0.19513711E-02     -0.99855020E-16
    0.784613549848         0.77596097E-03      0.50480990E+01     -0.15314491E-12      0.19441711E-02     -0.58980598E-16
    0.790890458246         0.78966389E-03      0.49801379E+01     -0.33405548E-12      0.19363767E-02     -0.12988742E-15
    0.797167366645         0.80320056E-03      0.49138649E+01     -0.22768816E-12      0.19280587E-02     -0.89338259E-16
    0.803444275044         0.81655577E-03      0.48488459E+01     -0.12135603E-12      0.19190709E-02     -0.48030156E-16
    0.809721183443         0.82971435E-03      0.47843344E+01     -0.29398278E-12      0.19091373E-02     -0.11731068E-15
    0.815998091842         0.84266121E-03      0.47203798E+01     -0.19330497E-12      0.18982934E-02     -0.77737296E-16
    0.822275000240         0.85538134E-03      0.46572516E+01     -0.36104139E-12      0.18866656E-02     -0.14625887E-15
    0.828551908639         0.86785989E-03      0.45946628E+01     -0.25942251E-12      0.18741575E-02     -0.10581813E-15
    0.834828817038         0.88008214E-03      0.45322570E+01     -0.41542313E-12      0.18606421E-02     -0.17054500E-15
    0.841105725437         0.89203353E-03      0.44703170E+01     -0.31817039E-12      0.18462540E-02     -0.13140530E-15
    0.847382633835         0.90369974E-03      0.44097997E+01     -0.47304377E-12      0.18314118E-02     -0.19645743E-15
    0.853659542234         0.91506666E-03      0.43517592E+01     -0.13012401E-12      0.18165838E-02     -0.54318529E-16
    0.859936450633         0.92612043E-03      0.42952965E+01     -0.40069906E-13      0.18014276E-02     -0.16805134E-16
    0.866213359032         0.93684749E-03      0.42404045E+01     -0.19435274E-12      0.17859687E-02     -0.81857264E-16
    0.872490267431         0.94723458E-03      0.41876976E+01     -0.10565450E-12      0.17704954E-02     -0.44669130E-16
    0.878767175829         0.95726876E-03      0.41388664E+01     -0.25149118E-12      0.17557554E-02     -0.10668549E-15
    0.885044084228         0.96693747E-03      0.40936076E+01     -0.16334742E-12      0.17416554E-02     -0.69497359E-16
    0.891320992627         0.97622851E-03      0.40534710E+01     -0.30808673E-12      0.17288884E-02     -0.13140530E-15
    0.897597901026         0.98513008E-03      0.40202170E+01     -0.22297946E-12      0.17182399E-02     -0.95301371E-16
    0.903874809424         0.99363082E-03      0.39985240E+01     -0.13954766E-12      0.17117448E-02     -0.59739540E-16
    0.910151717823         0.10017198E-02      0.39860605E+01     -0.28483520E-12      0.17084367E-02     -0.12208116E-15
    0.916428626222         0.10093866E-02      0.39890900E+01     -0.20145923E-12      0.17110207E-02     -0.86410913E-16
    0.922705534621         0.10166212E-02      0.40100895E+01     -0.34517743E-12      0.17205712E-02     -0.14810202E-15
    0.928982443020         0.10234142E-02      0.40520289E+01     -0.26308406E-12      0.17383571E-02     -0.11286545E-15
    0.935259351418         0.10297566E-02      0.41290320E+01     -0.41595956E-12      0.17704078E-02     -0.17835126E-15
    0.941536259817         0.10356401E-02      0.42490431E+01     -0.98967522E-13      0.18200590E-02     -0.42392305E-16
    0.947813168216         0.10410567E-02      0.44149388E+01     -0.26107982E-12      0.18884213E-02     -0.11167282E-15
    0.954090076615         0.10459994E-02      0.45780856E+01     -0.17624028E-12      0.19545577E-02     -0.75243631E-16
    0.960366985013         0.10504613E-02      0.47762906E+01     -0.83741514E-13      0.20344926E-02     -0.35670251E-16
    0.966643893412         0.10544364E-02      0.49253450E+01     -0.26365389E-12      0.20922476E-02     -0.11199808E-15
    0.972920801811         0.10579192E-02      0.50850132E+01     -0.16437953E-12      0.21532262E-02     -0.69605779E-16
    0.979197710210         0.10609050E-02      0.51958049E+01     -0.35230521E-12      0.21922067E-02     -0.14864412E-15
    0.985474618609         0.10633895E-02      0.56022895E+01     -0.26214073E-12      0.23541548E-02     -0.11015494E-15
    0.991751527007         0.10653692E-02      0.65554379E+01     -0.53700735E-12      0.27423413E-02     -0.22464669E-15
    0.998028435406         0.10668411E-02      0.70374067E+01     -0.43287444E-12      0.29294899E-02     -0.18019440E-15
    1.004305343805         0.10678029E-02      0.72991470E+01     -0.70648726E-12      0.30221777E-02     -0.29251775E-15
    1.010582252204         0.10682532E-02      0.84673389E+01     -0.63790988E-12      0.34855557E-02     -0.26259377E-15
    1.016859160602         0.10681909E-02      0.10151727E+02     -0.54384734E-12      0.41528912E-02     -0.22247829E-15
