 
 # Omega; pulse ft; proj flux t=    500.250000000000     
    0.000000000000         0.71730614E-10      0.00000000E+00      0.00000000E+00     -0.36851207E-01      0.50111824E-15
    0.006276908399         0.17773781E-07     -0.20313743E+05      0.45453345E-09     -0.22399923E-01      0.50121311E-15
    0.012553816798         0.71000142E-07     -0.25381529E+04      0.22638007E-09     -0.55901537E-02      0.49859070E-15
    0.018830725196         0.16011178E-06     -0.74803369E+03      0.15130176E-09     -0.24768513E-02      0.50098272E-15
    0.025107633595         0.28571137E-06     -0.31293280E+03      0.11315221E-09     -0.13867410E-02      0.50142656E-15
    0.031384541994         0.44864496E-06     -0.15842211E+03      0.90788184E-10     -0.88191218E-03      0.50540423E-15
    0.037661450393         0.65000421E-06     -0.90371968E+02      0.74771972E-10     -0.60740087E-03      0.50255142E-15
    0.043938358791         0.89112924E-06     -0.55912176E+02      0.63496895E-10     -0.44159668E-03      0.50150110E-15
    0.050215267190         0.11736121E-05     -0.36693644E+02      0.55109883E-10     -0.33396595E-03      0.50158072E-15
    0.056492175589         0.14993009E-05     -0.25159035E+02      0.48448311E-10     -0.26002614E-03      0.50072776E-15
    0.062769083988         0.18703040E-05     -0.17813359E+02      0.43136236E-10     -0.20669728E-03      0.50053125E-15
    0.069045992387         0.22889955E-05     -0.12939970E+02      0.38997844E-10     -0.16705608E-03      0.50346537E-15
    0.075322900785         0.27580206E-05     -0.95912812E+01      0.35076017E-10     -0.13676332E-03      0.50015347E-15
    0.081599809184         0.32803012E-05     -0.72149976E+01      0.32136832E-10     -0.11294924E-03      0.50309522E-15
    0.087876717583         0.38590424E-05     -0.54884738E+01      0.29253510E-10     -0.93859852E-04      0.50027206E-15
    0.094153625982         0.44977390E-05     -0.42044128E+01      0.26931118E-10     -0.78214108E-04      0.50099585E-15
    0.100430534380         0.52001823E-05     -0.32316122E+01      0.24799882E-10     -0.65162025E-04      0.50006326E-15
    0.106707442779         0.59704668E-05     -0.24817689E+01      0.22990540E-10     -0.54075116E-04      0.50093952E-15
    0.112984351178         0.68129974E-05     -0.18939593E+01      0.21382258E-10     -0.44474708E-04      0.50210673E-15
    0.119261259577         0.77324968E-05     -0.14265635E+01      0.19868582E-10     -0.36019196E-04      0.50166035E-15
    0.125538167976         0.87340119E-05     -0.10484007E+01      0.18576458E-10     -0.28404544E-04      0.50329597E-15
    0.131815076374         0.98229211E-05     -0.73784657E+00      0.17317016E-10     -0.21412342E-04      0.50254062E-15
    0.138091984773         0.11004941E-04     -0.47631616E+00      0.16164343E-10     -0.14782133E-04      0.50164891E-15
    0.144368893172         0.12286134E-04     -0.25109190E+00      0.15128129E-10     -0.83214091E-05      0.50135965E-15
    0.150645801571         0.13672912E-04     -0.47957324E-01      0.14155582E-10     -0.16950460E-05      0.50032738E-15
    0.156922709970         0.15172044E-04      0.14500999E+00      0.13344427E-10      0.54598254E-05      0.50243602E-15
    0.163199618368         0.16790662E-04      0.36333391E+00      0.12509629E-10      0.14557177E-04      0.50120528E-15
    0.169476526767         0.18536263E-04      0.62699564E+00      0.11783790E-10      0.26705437E-04      0.50190344E-15
    0.175753435166         0.20416717E-04      0.14361934E+01      0.11026227E-10      0.64970698E-04      0.49880584E-15
    0.182030343565         0.22440265E-04      0.38095037E+01      0.10371060E-10      0.18288376E-03      0.49788597E-15
    0.188307251963         0.24615529E-04      0.55268574E+01      0.97327390E-11      0.28134741E-03      0.49544990E-15
    0.194584160362         0.26951505E-04      0.43485646E+01      0.92410042E-11      0.23455463E-03      0.49844501E-15
    0.200861068761         0.29457571E-04      0.51486663E+01      0.87778222E-11      0.29404815E-03      0.50131476E-15
    0.207137977160         0.32143483E-04      0.11010542E+02      0.81733952E-11      0.66537187E-03      0.49392185E-15
    0.213414885559         0.35019372E-04      0.16552068E+02      0.77647179E-11      0.10576901E-02      0.49617157E-15
    0.219691793957         0.38095749E-04      0.16581327E+02      0.72264001E-11      0.11197073E-02      0.48798585E-15
    0.225968702356         0.41383490E-04      0.14830979E+02      0.69349030E-11      0.10577211E-02      0.49458593E-15
    0.232245610755         0.44893841E-04      0.16365294E+02      0.64330336E-11      0.12319288E-02      0.48425890E-15
    0.238522519154         0.48638406E-04      0.18401471E+02      0.61699284E-11      0.14612517E-02      0.48995096E-15
    0.244799427552         0.52629141E-04      0.19277584E+02      0.57113010E-11      0.16139536E-02      0.47816026E-15
    0.251076335951         0.56878345E-04      0.19824226E+02      0.52225715E-11      0.17488797E-02      0.46073171E-15
    0.257353244350         0.61398647E-04      0.20123187E+02      0.53496684E-11      0.18695990E-02      0.49702538E-15
    0.263630152749         0.66202998E-04      0.20675418E+02      0.49075600E-11      0.20218989E-02      0.47992209E-15
    0.269907061148         0.71304653E-04      0.21216332E+02      0.44910366E-11      0.21827122E-02      0.46203276E-15
    0.276183969546         0.76717158E-04      0.21795575E+02      0.40843345E-11      0.23576803E-02      0.44181239E-15
    0.282460877945         0.82454333E-04      0.22344716E+02      0.36747818E-11      0.25401102E-02      0.41774310E-15
    0.288737786344         0.88530252E-04      0.22843780E+02      0.32816163E-11      0.27275869E-02      0.39183067E-15
    0.295014694743         0.94959225E-04      0.23265412E+02      0.41915787E-11      0.29162638E-02      0.52540437E-15
    0.301291603141         0.10175577E-03      0.23541777E+02      0.38435678E-11      0.30962343E-02      0.50550926E-15
    0.307568511540         0.10893461E-03      0.23761483E+02      0.34689468E-11      0.32773295E-02      0.47845842E-15
    0.313845419939         0.11651061E-03      0.23898046E+02      0.31153334E-11      0.34548931E-02      0.45037758E-15
    0.320122328338         0.12449879E-03      0.24041641E+02      0.27654338E-11      0.36411270E-02      0.41882730E-15
    0.326399236737         0.13291427E-03      0.24139058E+02      0.24285005E-11      0.38279420E-02      0.38510861E-15
    0.332676145135         0.14177227E-03      0.24254126E+02      0.21010392E-11      0.40251103E-02      0.34867942E-15
    0.338953053534         0.15108802E-03      0.24342797E+02      0.24583989E-11      0.42255524E-02      0.42674198E-15
    0.345229961933         0.16087680E-03      0.24400685E+02      0.28486497E-11      0.44280192E-02      0.51694760E-15
    0.351506870332         0.17115386E-03      0.24414918E+02      0.25518887E-11      0.46294640E-02      0.48387943E-15
    0.357783778731         0.18193441E-03      0.24375873E+02      0.22530114E-11      0.48269956E-02      0.44614919E-15
    0.364060687129         0.19323354E-03      0.24304455E+02      0.19680759E-11      0.50236242E-02      0.40679266E-15
    0.370337595528         0.20506624E-03      0.24176389E+02      0.16778285E-11      0.52132714E-02      0.36179826E-15
    0.376614503927         0.21744732E-03      0.24038608E+02      0.14070710E-11      0.54049151E-02      0.31637019E-15
    0.382891412326         0.23039139E-03      0.23858269E+02      0.18026693E-11      0.55905186E-02      0.42240517E-15
    0.389168320724         0.24391280E-03      0.23684680E+02      0.15458589E-11      0.57807898E-02      0.37730236E-15
    0.395445229123         0.25802563E-03      0.23475772E+02      0.13022542E-11      0.59651166E-02      0.33089850E-15
    0.401722137522         0.27274360E-03      0.23272395E+02      0.17108157E-11      0.61530780E-02      0.45232915E-15
    0.407999045921         0.28808007E-03      0.23043922E+02      0.14691851E-11      0.63362603E-02      0.40397373E-15
    0.414275954320         0.30404798E-03      0.22816877E+02      0.12207349E-11      0.65212543E-02      0.34889626E-15
    0.420552862718         0.32065980E-03      0.22572493E+02      0.99026971E-12      0.67023327E-02      0.29403563E-15
    0.426829771117         0.33792749E-03      0.22317300E+02      0.13883407E-11      0.68807062E-02      0.42804302E-15
    0.433106679516         0.35586245E-03      0.22054817E+02      0.11710466E-11      0.70568891E-02      0.37470027E-15
    0.439383587915         0.37447549E-03      0.21770249E+02      0.95518068E-12      0.72254601E-02      0.31702072E-15
    0.445660496313         0.39377677E-03      0.21488996E+02      0.74488504E-12      0.73940882E-02      0.25630539E-15
    0.451937404712         0.41377575E-03      0.21181741E+02      0.11458081E-11      0.75521558E-02      0.40852738E-15
    0.458214313111         0.43448117E-03      0.20894839E+02      0.93606010E-12      0.77154965E-02      0.34564365E-15
    0.464491221510         0.45590098E-03      0.20575600E+02      0.73977952E-12      0.78644449E-02      0.28275993E-15
    0.470768129909         0.47804230E-03      0.20284675E+02      0.11142487E-11      0.80213944E-02      0.44061976E-15
    0.477045038307         0.50091140E-03      0.19949966E+02      0.93119515E-12      0.81576720E-02      0.38077180E-15
    0.483321946706         0.52451363E-03      0.19662940E+02      0.74450030E-12      0.83098130E-02      0.31463547E-15
    0.489598855105         0.54885338E-03      0.19329793E+02      0.56128084E-12      0.84385086E-02      0.24502969E-15
    0.495875763504         0.57393407E-03      0.19091257E+02      0.39257149E-12      0.86049071E-02      0.17694179E-15
    0.502152671902         0.59975808E-03      0.18767675E+02      0.22191382E-12      0.87291781E-02      0.10321605E-15
    0.508429580301         0.62632671E-03      0.18799040E+02      0.57586016E-12      0.90183759E-02      0.27625471E-15
    0.514706488700         0.65364018E-03      0.17975871E+02      0.93306146E-12      0.88897917E-02      0.46143644E-15
    0.520983397099         0.68169755E-03      0.15914109E+02      0.33958834E-12      0.81091012E-02      0.17303867E-15
    0.527260305498         0.71049673E-03      0.15995446E+02      0.64131653E-12      0.83937477E-02      0.33653635E-15
    0.533537213896         0.74003440E-03      0.16592397E+02      0.94661707E-12      0.89622873E-02      0.51130974E-15
    0.539814122295         0.77030604E-03      0.15935015E+02      0.34806753E-12      0.88551125E-02      0.19342167E-15
    0.546091030694         0.80130585E-03      0.15475126E+02      0.65649369E-12      0.88428044E-02      0.37513395E-15
    0.552367939093         0.83302676E-03      0.15281445E+02      0.83444107E-13      0.89746486E-02      0.49005938E-16
    0.558644847491         0.86546039E-03      0.15102240E+02      0.37667570E-12      0.91111943E-02      0.22724878E-15
    0.564921755890         0.89859703E-03      0.14823533E+02     -0.16662801E-12      0.91822890E-02     -0.10321605E-15
    0.571198664289         0.93242565E-03      0.14550930E+02      0.13507839E-12      0.92499697E-02      0.85868812E-16
    0.577475572688         0.96693384E-03      0.14285548E+02     -0.38841628E-12      0.93149941E-02     -0.25326963E-15
    0.583752481087         0.10021078E-02      0.14039561E+02      0.70646375E-12      0.93855946E-02      0.47227847E-15
    0.590029389485         0.10379325E-02      0.13783499E+02      0.97049748E-12      0.94422935E-02      0.66483277E-15
    0.596306297884         0.10743913E-02      0.13540181E+02      0.45924395E-12      0.95003606E-02      0.32222489E-15
    0.602583206283         0.11114663E-02      0.13300142E+02      0.71848117E-12      0.95534031E-02      0.51608023E-15
    0.608860114682         0.11491383E-02      0.13068955E+02      0.23307196E-12      0.96054601E-02      0.17130394E-15
    0.615137023081         0.11873866E-02      0.12836332E+02      0.49904943E-12      0.96490318E-02      0.37513395E-15
    0.621413931479         0.12261890E-02      0.12606642E+02      0.32734015E-13      0.96872028E-02      0.25153490E-16
    0.627690839878         0.12655223E-02      0.12376087E+02      0.29054237E-12      0.97169485E-02      0.22811614E-15
    0.633967748277         0.13053615E-02      0.12148163E+02     -0.15847169E-12      0.97408487E-02     -0.12706849E-15
    0.640244656676         0.13456807E-02      0.11922459E+02      0.89544387E-13      0.97585312E-02      0.73292067E-16
    0.646521565074         0.13864524E-02      0.11699922E+02      0.32612600E-12      0.97707396E-02      0.27235159E-15
    0.652798473473         0.14276478E-02      0.11482309E+02     -0.91150448E-13      0.97789833E-02     -0.77628876E-16
    0.659075381872         0.14692370E-02      0.11266999E+02      0.14837045E-12      0.97810969E-02      0.12880322E-15
    0.665352290271         0.15111887E-02      0.11058061E+02     -0.25447671E-12      0.97806692E-02     -0.22508037E-15
    0.671629198670         0.15534705E-02      0.10850557E+02      0.59462238E-12      0.97734527E-02      0.53559587E-15
    0.677906107068         0.15960487E-02      0.10650594E+02      0.19771855E-12      0.97650164E-02      0.18127860E-15
    0.684183015467         0.16388886E-02      0.10450820E+02      0.41144695E-12      0.97487749E-02      0.38380757E-15
    0.690459923866         0.16819543E-02      0.10259003E+02      0.61397122E-12      0.97320293E-02      0.58243341E-15
    0.696736832265         0.17252089E-02      0.10066333E+02      0.24196752E-12      0.97065919E-02      0.23332031E-15
    0.703013740663         0.17686145E-02      0.98824093E+01      0.44399622E-12      0.96817700E-02      0.43498191E-15
    0.709290649062         0.18121323E-02      0.96973537E+01      0.86743140E-13      0.96480920E-02      0.86302493E-16
    0.715567557461         0.18557223E-02      0.95204375E+01      0.28814288E-12      0.96148341E-02      0.29099986E-15
    0.721844465860         0.18993441E-02      0.93414328E+01     -0.54598086E-13      0.95718536E-02     -0.55944832E-16
    0.728121374259         0.19429561E-02      0.91710111E+01      0.13772173E-12      0.95301331E-02      0.14311469E-15
    0.734398282657         0.19865162E-02      0.90001608E+01     -0.19103161E-12      0.94805445E-02     -0.20122792E-15
    0.740675191056         0.20299817E-02      0.88378797E+01      0.16253369E-14      0.94326768E-02      0.17347235E-17
    0.746952099455         0.20733091E-02      0.86749475E+01      0.18375616E-12      0.93769305E-02      0.19862584E-15
    0.753229007854         0.21164544E-02      0.85178204E+01     -0.12326115E-12      0.93203646E-02     -0.13487475E-15
    0.759505916252         0.21593732E-02      0.83598748E+01      0.53270906E-12      0.92559045E-02      0.58980598E-15
    0.765782824651         0.22020207E-02      0.82064109E+01      0.22733695E-12      0.91894938E-02      0.25457067E-15
    0.772059733050         0.22443518E-02      0.80538952E+01      0.39382275E-12      0.91173485E-02      0.44582393E-15
    0.778336641449         0.22863211E-02      0.79044733E+01      0.10160446E-12      0.90420150E-02      0.11622647E-15
    0.784613549848         0.23278829E-02      0.77569022E+01      0.26537610E-12      0.89622321E-02      0.30661237E-15
    0.790890458246         0.23689917E-02      0.76106040E+01     -0.13012734E-13      0.88774630E-02     -0.15178830E-16
    0.797167366645         0.24096017E-02      0.74689383E+01      0.14663412E-12      0.87917871E-02      0.17260499E-15
    0.803444275044         0.24496673E-02      0.73269410E+01      0.30206603E-12      0.86995459E-02      0.35865408E-15
    0.809721183443         0.24891430E-02      0.71891275E+01      0.40936604E-13      0.86062326E-02      0.49005938E-16
    0.815998091842         0.25279836E-02      0.70493683E+01      0.18872173E-12      0.85046776E-02      0.22768246E-15
    0.822275000240         0.25661440E-02      0.69157076E+01     -0.61734777E-13      0.84047172E-02     -0.75026790E-16
    0.828551908639         0.26035797E-02      0.67797254E+01      0.87182973E-13      0.82963258E-02      0.10668549E-15
    0.834828817038         0.26402464E-02      0.66497922E+01     -0.14542891E-12      0.81898820E-02     -0.17911020E-15
    0.841105725437         0.26761006E-02      0.65168940E+01     -0.17501122E-14      0.80744890E-02     -0.21684043E-17
    0.847382633835         0.27110992E-02      0.63943686E+01     -0.22555729E-12      0.79668394E-02     -0.28102520E-15
    0.853659542234         0.27452000E-02      0.62699582E+01      0.26977139E-12      0.78519310E-02      0.33783740E-15
    0.859936450633         0.27783613E-02      0.61531227E+01      0.39742453E-12      0.77417738E-02      0.50003404E-15
    0.866213359032         0.28105425E-02      0.60346624E+01      0.17573263E-12      0.76250167E-02      0.22204460E-15
    0.872490267431         0.28417037E-02      0.59240449E+01      0.30191884E-12      0.75137907E-02      0.38294021E-15
    0.878767175829         0.28718063E-02      0.58126299E+01      0.95757484E-13      0.73973561E-02      0.12186432E-15
    0.885044084228         0.29008124E-02      0.57082119E+01      0.21881588E-12      0.72858021E-02      0.27929048E-15
    0.891320992627         0.29286855E-02      0.56033063E+01      0.19996829E-13      0.71697747E-02      0.25587171E-16
    0.897597901026         0.29553902E-02      0.55022888E+01      0.13901336E-12      0.70550311E-02      0.17824284E-15
    0.903874809424         0.29808924E-02      0.54031870E+01      0.25427559E-12      0.69392185E-02      0.32656169E-15
    0.910151717823         0.30051594E-02      0.53073764E+01      0.62734573E-13      0.68242693E-02      0.80664642E-16
    0.916428626222         0.30281598E-02      0.52131395E+01      0.17727738E-12      0.67081386E-02      0.22811614E-15
    0.922705534621         0.30498636E-02      0.51140046E+01     -0.10107685E-14      0.65826527E-02     -0.13010426E-17
    0.928982443020         0.30702425E-02      0.50026735E+01      0.11018698E-12      0.64385768E-02      0.14181364E-15
    0.935259351418         0.30892698E-02      0.48716728E+01     -0.56978452E-13      0.62664911E-02     -0.73292067E-16
    0.941536259817         0.31069202E-02      0.47247637E+01      0.32263581E-12      0.60714955E-02      0.41459891E-15
    0.947813168216         0.31231702E-02      0.44995578E+01      0.16323825E-12      0.57738472E-02      0.20946786E-15
    0.954090076615         0.31379981E-02      0.41272224E+01      0.26749244E-12      0.52862015E-02      0.34260789E-15
    0.960366985013         0.31513838E-02      0.35459841E+01      0.35889220E-12      0.45313061E-02      0.45861752E-15
    0.966643893412         0.31633091E-02      0.31423179E+01      0.25114756E-12      0.40044953E-02      0.32005648E-15
    0.972920801811         0.31737577E-02      0.37133549E+01      0.30332546E-12      0.47172107E-02      0.38532545E-15
    0.979197710210         0.31827151E-02      0.47506458E+01      0.11101083E-12      0.60131573E-02      0.14051260E-15
    0.985474618609         0.31901686E-02      0.57056479E+01      0.17166434E-12      0.71927621E-02      0.21640675E-15
    0.991751527007         0.31961075E-02      0.77587238E+01     -0.19006052E-12      0.97371383E-02     -0.23852448E-15
    0.998028435406         0.32005232E-02      0.92511124E+01     -0.11043247E-12      0.11552994E-01     -0.13791052E-15
    1.004305343805         0.32034088E-02      0.95388423E+01     -0.46715095E-12      0.11848539E-01     -0.58026500E-15
    1.010582252204         0.32047596E-02      0.99129248E+01     -0.29358253E-12      0.12241881E-01     -0.36255721E-15
    1.016859160602         0.32045728E-02      0.90271029E+01     -0.40284988E-13      0.11078482E-01     -0.49439619E-16
