 
 # Omega; pulse ft; proj flux t=    500.250000000000     
    0.000000000000         0.44556337E-06      0.00000000E+00      0.00000000E+00      0.00000000E+00      0.00000000E+00      0.00000000E+00      0.00000000E+00
    0.006270644019         0.45087192E-06      0.15096293E+00     -0.47322753E-10      0.67275049E-06     -0.21088890E-15      0.42185788E-08     -0.13224092E-17
    0.012541288038         0.46684081E-06      0.45874218E+00     -0.21458463E-09      0.10583712E-05     -0.49507153E-15      0.10855248E-07     -0.44268265E-17
    0.018811932057         0.49359979E-06      0.46898461E-01     -0.34467641E-09      0.76268082E-07     -0.56052604E-15      0.11333498E-07     -0.79416858E-17
    0.025082576077         0.53136541E-06      0.11374515E-01     -0.43374509E-09      0.14934707E-07     -0.56950611E-15      0.11427148E-07     -0.11512856E-16
    0.031353220096         0.58044149E-06     -0.35284268E-01     -0.50233176E-09     -0.40485554E-07     -0.57638094E-15      0.11173278E-07     -0.15127136E-16
    0.037623864115         0.64121969E-06     -0.24747366E-01     -0.54215805E-09     -0.26140573E-07     -0.57268002E-15      0.11009359E-07     -0.18718208E-16
    0.043894508134         0.71418031E-06     -0.93649237E-02     -0.57160028E-09     -0.94437526E-08     -0.57641171E-15      0.10950141E-07     -0.22332681E-16
    0.050165152153         0.79989324E-06     -0.66934441E-01     -0.58472243E-09     -0.66148836E-07     -0.57785959E-15      0.10535345E-07     -0.25956233E-16
    0.056435796172         0.89901904E-06     -0.12283954E+00     -0.58822475E-09     -0.12128165E-06     -0.58076469E-15      0.97748312E-08     -0.29598001E-16
    0.062706440191         0.10123102E-05     -0.87493822E-01     -0.58117786E-09     -0.87543021E-07     -0.58150467E-15      0.92258800E-08     -0.33244410E-16
    0.068977084211         0.11406125E-05     -0.54896024E-01     -0.56827200E-09     -0.56262219E-07     -0.58241456E-15      0.88730797E-08     -0.36896524E-16
    0.075247728230         0.12848664E-05     -0.60119461E-01     -0.55038941E-09     -0.63624202E-07     -0.58247506E-15      0.84741150E-08     -0.40549018E-16
    0.081518372249         0.14461090E-05     -0.61935996E-01     -0.53040768E-09     -0.68097524E-07     -0.58317380E-15      0.80470996E-08     -0.44205893E-16
    0.087789016268         0.16254751E-05     -0.58978801E-01     -0.50868672E-09     -0.67682866E-07     -0.58375848E-15      0.76226845E-08     -0.47866435E-16
    0.094059660287         0.18241995E-05     -0.55802464E-01     -0.48437325E-09     -0.67075663E-07     -0.58222621E-15      0.72020769E-08     -0.51517368E-16
    0.100330304306         0.20436188E-05     -0.52816197E-01     -0.46162021E-09     -0.66677230E-07     -0.58276739E-15      0.67839677E-08     -0.55171695E-16
    0.106600948325         0.22851729E-05     -0.49698139E-01     -0.43896857E-09     -0.66029923E-07     -0.58322226E-15      0.63699176E-08     -0.58828874E-16
    0.112871592345         0.25504072E-05     -0.47242031E-01     -0.41637353E-09     -0.66160093E-07     -0.58311024E-15      0.59550512E-08     -0.62485351E-16
    0.119142236364         0.28409746E-05     -0.44546459E-01     -0.39458294E-09     -0.65835095E-07     -0.58315309E-15      0.55422227E-08     -0.66142096E-16
    0.125412880383         0.31586369E-05     -0.42065169E-01     -0.37371255E-09     -0.65663326E-07     -0.58336171E-15      0.51304714E-08     -0.69800150E-16
    0.131683524402         0.35052673E-05     -0.39496795E-01     -0.35312101E-09     -0.65161975E-07     -0.58258049E-15      0.47218638E-08     -0.73453305E-16
    0.137954168421         0.38828517E-05     -0.36430543E-01     -0.33405139E-09     -0.63551278E-07     -0.58273612E-15      0.43233564E-08     -0.77107436E-16
    0.144224812440         0.42934906E-05     -0.33455008E-01     -0.31606302E-09     -0.61726882E-07     -0.58315887E-15      0.39362891E-08     -0.80764217E-16
    0.150495456459         0.47394007E-05     -0.30921087E-01     -0.29853968E-09     -0.60352806E-07     -0.58269967E-15      0.35578381E-08     -0.84418120E-16
    0.156766100479         0.52229165E-05     -0.28423246E-01     -0.28220352E-09     -0.58691780E-07     -0.58272819E-15      0.31898029E-08     -0.88072201E-16
    0.163036744498         0.57464915E-05     -0.25772010E-01     -0.26687720E-09     -0.56299981E-07     -0.58300386E-15      0.28367657E-08     -0.91728010E-16
    0.169307388517         0.63126995E-05     -0.23206377E-01     -0.25218636E-09     -0.53627706E-07     -0.58277845E-15      0.25004855E-08     -0.95382406E-16
    0.175578032536         0.69242356E-05     -0.19041613E-01     -0.23842786E-09     -0.46542325E-07     -0.58277557E-15      0.22086351E-08     -0.99036785E-16
    0.181848676555         0.75839168E-05     -0.14809916E-01     -0.22564224E-09     -0.38280596E-07     -0.58323893E-15      0.19685911E-08     -0.10269407E-15
    0.188119320574         0.82946828E-05      0.25209995E-02     -0.21331252E-09      0.68894067E-08     -0.58294207E-15      0.20117921E-08     -0.10634949E-15
    0.194389964593         0.90595963E-05      0.55598445E-01     -0.20180835E-09      0.16059807E-06     -0.58293054E-15      0.30188455E-08     -0.11000484E-15
    0.200660608613         0.98818426E-05      0.46328975E+00     -0.19105356E-09      0.14140709E-05     -0.58314105E-15      0.11885981E-07     -0.11366151E-15
    0.206931252632         0.10764730E-04      0.26372435E+01     -0.18078815E-09      0.85029566E-05     -0.58289413E-15      0.65204994E-07     -0.11731663E-15
    0.213201896651         0.11711688E-04      0.65501537E+01     -0.17121919E-09      0.22300911E-04     -0.58293958E-15      0.20504607E-06     -0.12097204E-15
    0.219472540670         0.12726269E-04      0.88340852E+01     -0.16222373E-09      0.31748643E-04     -0.58301263E-15      0.40413051E-06     -0.12462790E-15
    0.225743184689         0.13812143E-04      0.94259414E+01     -0.15375997E-09      0.35744880E-04     -0.58308568E-15      0.62827393E-06     -0.12828423E-15
    0.232013828708         0.14973100E-04      0.11540693E+02     -0.14594150E-09      0.46160706E-04     -0.58373984E-15      0.91773128E-06     -0.13194465E-15
    0.238284472727         0.16213045E-04      0.14350193E+02     -0.13842252E-09      0.60515867E-04     -0.58373841E-15      0.12972047E-05     -0.13560507E-15
    0.244555116747         0.17535997E-04      0.16166498E+02     -0.13129103E-09      0.71847610E-04     -0.58348735E-15      0.17477355E-05     -0.13926391E-15
    0.250825760766         0.18946084E-04      0.17291094E+02     -0.12480235E-09      0.80949183E-04     -0.58426890E-15      0.22553390E-05     -0.14292765E-15
    0.257096404785         0.20447546E-04      0.18086478E+02     -0.11849442E-09      0.89154209E-04     -0.58409804E-15      0.28143933E-05     -0.14659032E-15
    0.263367048804         0.22044721E-04      0.18939951E+02     -0.11272453E-09      0.98257268E-04     -0.58479585E-15      0.34305297E-05     -0.15025737E-15
    0.269637692823         0.23742049E-04      0.19851617E+02     -0.10739307E-09      0.10833684E-03     -0.58607952E-15      0.41098715E-05     -0.15393246E-15
    0.275908336842         0.25544067E-04      0.20798482E+02     -0.10177002E-09      0.11934371E-03     -0.58396628E-15      0.48582334E-05     -0.15759431E-15
    0.282178980861         0.27455397E-04      0.21766913E+02     -0.96998808E-10      0.13126308E-03     -0.58494111E-15      0.56813374E-05     -0.16126227E-15
    0.288449624880         0.29480748E-04      0.22680906E+02     -0.92585894E-10      0.14367182E-03     -0.58648380E-15      0.65822523E-05     -0.16493990E-15
    0.294720268900         0.31624906E-04      0.23443901E+02     -0.87771532E-10      0.15591640E-03     -0.58373480E-15      0.75599485E-05     -0.16860029E-15
    0.300990912919         0.33892727E-04      0.23981049E+02     -0.83844870E-10      0.16736474E-03     -0.58515685E-15      0.86094332E-05     -0.17226960E-15
    0.307261556938         0.36289132E-04      0.24342993E+02     -0.80177724E-10      0.17819068E-03     -0.58690087E-15      0.97268035E-05     -0.17594985E-15
    0.313532200957         0.38819099E-04      0.24572742E+02     -0.76021565E-10      0.18856435E-03     -0.58336824E-15      0.10909223E-04     -0.17960794E-15
    0.319802844976         0.41487653E-04      0.24763972E+02     -0.72780696E-10      0.19911296E-03     -0.58518802E-15      0.12157790E-04     -0.18327745E-15
    0.326073488995         0.44299860E-04      0.24936244E+02     -0.69728534E-10      0.20997161E-03     -0.58713785E-15      0.13474447E-04     -0.18695918E-15
    0.332344133014         0.47260816E-04      0.25129118E+02     -0.66872197E-10      0.22147929E-03     -0.58938824E-15      0.14863265E-04     -0.19065502E-15
    0.338614777034         0.50375638E-04      0.25316184E+02     -0.63465795E-10      0.23342941E-03     -0.58519022E-15      0.16327018E-04     -0.19432454E-15
    0.344885421053         0.53649455E-04      0.25498771E+02     -0.60943583E-10      0.24583991E-03     -0.58757207E-15      0.17868592E-04     -0.19800900E-15
    0.351156065072         0.57087396E-04      0.25637021E+02     -0.58553258E-10      0.25831540E-03     -0.58997527E-15      0.19488396E-04     -0.20170852E-15
    0.357426709091         0.60694581E-04      0.25725931E+02     -0.55572091E-10      0.27075513E-03     -0.58487402E-15      0.21186205E-04     -0.20537606E-15
    0.363697353110         0.64476108E-04      0.25757708E+02     -0.53464573E-10      0.28301442E-03     -0.58744533E-15      0.22960888E-04     -0.20905972E-15
    0.369967997129         0.68437043E-04      0.25731199E+02     -0.51477438E-10      0.29500527E-03     -0.59018297E-15      0.24810761E-04     -0.21276055E-15
    0.376238641148         0.72582407E-04      0.25661851E+02     -0.49598290E-10      0.30683057E-03     -0.59303093E-15      0.26734786E-04     -0.21647923E-15
    0.382509285168         0.76917163E-04      0.25553021E+02     -0.47112158E-10      0.31846829E-03     -0.58716065E-15      0.28731787E-04     -0.22016111E-15
    0.388779929187         0.81446204E-04      0.25436095E+02     -0.45460125E-10      0.33026315E-03     -0.59025587E-15      0.30802750E-04     -0.22386239E-15
    0.395050573206         0.86174343E-04      0.25291828E+02     -0.43159470E-10      0.34193863E-03     -0.58350431E-15      0.32946926E-04     -0.22752134E-15
    0.401321217225         0.91106293E-04      0.25150133E+02     -0.41698230E-10      0.35386631E-03     -0.58670062E-15      0.35165895E-04     -0.23120033E-15
    0.407591861244         0.96246660E-04      0.24984509E+02     -0.40306315E-10      0.36565681E-03     -0.58989665E-15      0.37458799E-04     -0.23489936E-15
    0.413862505263         0.10159992E-03      0.24827382E+02     -0.38995880E-10      0.37775559E-03     -0.59333327E-15      0.39827570E-04     -0.23861995E-15
    0.420133149282         0.10717043E-03      0.24653107E+02     -0.37771226E-10      0.38976458E-03     -0.59716148E-15      0.42271645E-04     -0.24236453E-15
    0.426403793302         0.11296238E-03      0.24489874E+02     -0.35901930E-10      0.40210732E-03     -0.58948564E-15      0.44793117E-04     -0.24606099E-15
    0.432674437321         0.11897978E-03      0.24304826E+02     -0.34804844E-10      0.41423532E-03     -0.59319065E-15      0.47390639E-04     -0.24978067E-15
    0.438945081340         0.12522650E-03      0.24124685E+02     -0.33089340E-10      0.42657006E-03     -0.58508212E-15      0.50065508E-04     -0.25344952E-15
    0.445215725359         0.13170617E-03      0.23935596E+02     -0.32117784E-10      0.43885652E-03     -0.58887604E-15      0.52817421E-04     -0.25714215E-15
    0.451486369378         0.13842226E-03      0.23755564E+02     -0.31208946E-10      0.45140805E-03     -0.59303874E-15      0.55648040E-04     -0.26086088E-15
    0.457757013397         0.14537797E-03      0.23571379E+02     -0.30348045E-10      0.46397145E-03     -0.59736115E-15      0.58557440E-04     -0.26460672E-15
    0.464027657416         0.15257628E-03      0.23402139E+02     -0.29527757E-10      0.47691546E-03     -0.60175027E-15      0.61548007E-04     -0.26838008E-15
    0.470298301436         0.16001994E-03      0.23243216E+02     -0.28085917E-10      0.49016195E-03     -0.59228672E-15      0.64621638E-04     -0.27209410E-15
    0.476568945455         0.16771141E-03      0.23111998E+02     -0.27366246E-10      0.50410039E-03     -0.59689065E-15      0.67782672E-04     -0.27583699E-15
    0.482839589474         0.17565286E-03      0.23023751E+02     -0.26031945E-10      0.51912400E-03     -0.58695074E-15      0.71037914E-04     -0.27951755E-15
    0.489110233493         0.18384620E-03      0.23033170E+02     -0.25394281E-10      0.53659213E-03     -0.59159772E-15      0.74402692E-04     -0.28322725E-15
    0.495380877512         0.19229300E-03      0.23211975E+02     -0.24808254E-10      0.55844319E-03     -0.59684714E-15      0.77904490E-04     -0.28696987E-15
    0.501651521531         0.20099453E-03      0.23919717E+02     -0.24270936E-10      0.59399231E-03     -0.60271404E-15      0.81629205E-04     -0.29074927E-15
    0.507922165550         0.20995173E-03      0.27414992E+02     -0.23908005E-10      0.70234917E-03     -0.61250310E-15      0.86033386E-04     -0.29459006E-15
    0.514192809570         0.21916516E-03      0.29265595E+02     -0.22720701E-10      0.77311760E-03     -0.60021926E-15      0.90881332E-04     -0.29835382E-15
    0.520463453589         0.22863508E-03      0.25202923E+02     -0.22180858E-10      0.68619288E-03     -0.60391196E-15      0.95184203E-04     -0.30214074E-15
    0.526734097608         0.23836132E-03      0.23939819E+02     -0.21714529E-10      0.67144103E-03     -0.60902825E-15      0.99394571E-04     -0.30595974E-15
    0.533004741627         0.24834337E-03      0.30169763E+02     -0.21629118E-10      0.87123651E-03     -0.62460144E-15      0.10485778E-03     -0.30987639E-15
    0.539275385646         0.25858031E-03      0.35226032E+02     -0.21605992E-10      0.10468664E-02     -0.64209863E-15      0.11142231E-03     -0.31390276E-15
    0.545546029665         0.26907084E-03      0.32953381E+02     -0.19339825E-10      0.10073442E-02     -0.59119457E-15      0.11773901E-03     -0.31760993E-15
    0.551816673684         0.27981322E-03      0.29525279E+02     -0.19038415E-10      0.92791907E-03     -0.59833840E-15      0.12355766E-03     -0.32136190E-15
    0.558087317704         0.29080531E-03      0.29159448E+02     -0.18777008E-10      0.94172077E-03     -0.60641403E-15      0.12946285E-03     -0.32516451E-15
    0.564357961723         0.30204453E-03      0.29091821E+02     -0.18553499E-10      0.96500576E-03     -0.61543871E-15      0.13551406E-03     -0.32902370E-15
    0.570628605742         0.31352788E-03      0.28465862E+02     -0.18317804E-10      0.96937017E-03     -0.62379043E-15      0.14159264E-03     -0.33293527E-15
    0.576899249761         0.32525191E-03      0.27602550E+02     -0.18073284E-10      0.96452119E-03     -0.63153820E-15      0.14764081E-03     -0.33689542E-15
    0.583169893780         0.33721273E-03      0.26837658E+02     -0.16321232E-10      0.96182519E-03     -0.58493079E-15      0.15367207E-03     -0.34056332E-15
    0.589440537799         0.34940598E-03      0.26181980E+02     -0.16144137E-10      0.96191234E-03     -0.59312720E-15      0.15970388E-03     -0.34428261E-15
    0.595711181818         0.36182686E-03      0.25506866E+02     -0.15965266E-10      0.96020691E-03     -0.60101302E-15      0.16572499E-03     -0.34805134E-15
    0.601981825838         0.37447010E-03      0.24890063E+02     -0.15798519E-10      0.95962693E-03     -0.60910590E-15      0.17174247E-03     -0.35187083E-15
    0.608252469857         0.38732997E-03      0.24343640E+02     -0.15638580E-10      0.96078323E-03     -0.61721604E-15      0.17776720E-03     -0.35574117E-15
    0.614523113876         0.40040028E-03      0.23849406E+02     -0.15484023E-10      0.96311113E-03     -0.62529167E-15      0.18380653E-03     -0.35966215E-15
    0.620793757895         0.41367437E-03      0.23341797E+02     -0.15337721E-10      0.96402486E-03     -0.63345357E-15      0.18985159E-03     -0.36363432E-15
    0.627064401914         0.42714512E-03      0.22850787E+02     -0.13898068E-10      0.96473304E-03     -0.58675988E-15      0.19590108E-03     -0.36731368E-15
    0.633335045933         0.44080494E-03      0.22379726E+02     -0.13784070E-10      0.96540685E-03     -0.59461119E-15      0.20195481E-03     -0.37104227E-15
    0.639605689952         0.45464578E-03      0.21912688E+02     -0.13683982E-10      0.96538196E-03     -0.60285937E-15      0.20800837E-03     -0.37482259E-15
    0.645876333972         0.46865914E-03      0.21445054E+02     -0.13580309E-10      0.96444514E-03     -0.61074518E-15      0.21405607E-03     -0.37865236E-15
    0.652146977991         0.48283605E-03      0.20984883E+02     -0.13479138E-10      0.96294930E-03     -0.61852747E-15      0.22009438E-03     -0.38253092E-15
    0.658417622010         0.49716709E-03      0.20535489E+02     -0.13384231E-10      0.96105593E-03     -0.62637877E-15      0.22612082E-03     -0.38645872E-15
    0.664688266029         0.51164243E-03      0.20106553E+02     -0.13293637E-10      0.95924345E-03     -0.63421282E-15      0.23213589E-03     -0.39043564E-15
    0.670958910048         0.52625176E-03      0.19694415E+02     -0.12085265E-10      0.95737790E-03     -0.58748462E-15      0.23813927E-03     -0.39411955E-15
    0.677229554067         0.54098437E-03      0.19299737E+02     -0.12025644E-10      0.95552682E-03     -0.59538769E-15      0.24413104E-03     -0.39785301E-15
    0.683500198086         0.55582913E-03      0.18914388E+02     -0.11965196E-10      0.95331762E-03     -0.60306644E-15      0.25010895E-03     -0.40163463E-15
    0.689770842106         0.57077448E-03      0.18539888E+02     -0.11907507E-10      0.95084450E-03     -0.61069342E-15      0.25607136E-03     -0.40546407E-15
    0.696041486125         0.58580849E-03      0.18170310E+02     -0.11855257E-10      0.94781932E-03     -0.61840668E-15      0.26201480E-03     -0.40934188E-15
    0.702312130144         0.60091883E-03      0.17810471E+02     -0.11803790E-10      0.94450383E-03     -0.62596464E-15      0.26793744E-03     -0.41326708E-15
    0.708582774163         0.61609280E-03      0.17455453E+02     -0.10756748E-10      0.94065277E-03     -0.57966782E-15      0.27383594E-03     -0.41690197E-15
    0.714853418182         0.63131734E-03      0.17108619E+02     -0.10728005E-10      0.93645809E-03     -0.58720853E-15      0.27970814E-03     -0.42058414E-15
    0.721124062201         0.64657905E-03      0.16766101E+02     -0.10702671E-10      0.93172209E-03     -0.59476649E-15      0.28555064E-03     -0.42431371E-15
    0.727394706220         0.66186420E-03      0.16432616E+02     -0.10670341E-10      0.92671913E-03     -0.60175501E-15      0.29136176E-03     -0.42808711E-15
    0.733665350240         0.67715875E-03      0.16107179E+02     -0.10645332E-10      0.92141365E-03     -0.60896786E-15      0.29713962E-03     -0.43190573E-15
    0.739935994259         0.69244838E-03      0.15793453E+02     -0.10621231E-10      0.91603699E-03     -0.61604266E-15      0.30288376E-03     -0.43576871E-15
    0.746206638278         0.70771846E-03      0.15488748E+02     -0.10594910E-10      0.91045901E-03     -0.62278960E-15      0.30859292E-03     -0.43967400E-15
    0.752477282297         0.72295415E-03      0.15191645E+02     -0.10574989E-10      0.90461723E-03     -0.62970910E-15      0.31426546E-03     -0.44362268E-15
    0.758747926316         0.73814035E-03      0.14901456E+02     -0.97059516E-11      0.89848909E-03     -0.58522413E-15      0.31989956E-03     -0.44729242E-15
    0.765018570335         0.75326174E-03      0.14618127E+02     -0.96971610E-11      0.89208933E-03     -0.59178127E-15      0.32549354E-03     -0.45100327E-15
