 
 # Omega; pulse ft; projected flux at t=    500.250000000000     
    0.000000000000         0.23910205E-10      0.00000000E+00      0.00000000E+00     -0.92309708E-01      0.37663828E-15
    0.006276908399         0.59245936E-08     -0.15266724E+06      0.10283876E-08     -0.56115284E-01      0.37800031E-15
    0.012553816798         0.23666714E-07     -0.19102247E+05      0.50635769E-09     -0.14023912E-01      0.37174243E-15
    0.018830725196         0.53370592E-07     -0.56440718E+04      0.34355089E-09     -0.62294548E-02      0.37918277E-15
    0.025107633595         0.95237123E-07     -0.23700402E+04      0.25435107E-09     -0.35008923E-02      0.37571332E-15
    0.031384541994         0.14954832E-06     -0.12060311E+04      0.20875184E-09     -0.22379316E-02      0.38736341E-15
    0.037661450393         0.21666807E-06     -0.69258678E+03      0.16898477E-09     -0.15516530E-02      0.37858900E-15
    0.043938358791         0.29704308E-06     -0.43214164E+03      0.14312251E-09     -0.11376909E-02      0.37679583E-15
    0.050215267190         0.39120404E-06     -0.28650943E+03      0.12493073E-09     -0.86921860E-03      0.37901760E-15
    0.056492175589         0.49976695E-06     -0.19887568E+03      0.10999456E-09     -0.68514650E-03      0.37894221E-15
    0.062769083988         0.62343466E-06     -0.14301040E+03      0.97905189E-10     -0.55314033E-03      0.37868090E-15
    0.069045992387         0.76299851E-06     -0.10583242E+03      0.88636643E-10     -0.45543507E-03      0.38143545E-15
    0.075322900785         0.91934020E-06     -0.80173358E+02      0.79082006E-10     -0.38106743E-03      0.37588019E-15
    0.081599809184         0.10934337E-05     -0.61921368E+02      0.73113877E-10     -0.32312191E-03      0.38152736E-15
    0.087876717583         0.12863475E-05     -0.48603044E+02      0.65768799E-10     -0.27705786E-03      0.37490991E-15
    0.094153625982         0.14992463E-05     -0.38675283E+02      0.60823252E-10     -0.23982364E-03      0.37716217E-15
    0.100430534380         0.17333941E-05     -0.31133866E+02      0.55963201E-10     -0.20926044E-03      0.37614616E-15
    0.106707442779         0.19901556E-05     -0.25312924E+02      0.52028817E-10     -0.18384727E-03      0.37788427E-15
    0.112984351178         0.22709991E-05     -0.20755640E+02      0.48218402E-10     -0.16246408E-03      0.37742793E-15
    0.119261259577         0.25774989E-05     -0.17142001E+02      0.44951461E-10     -0.14427237E-03      0.37832536E-15
    0.125538167976         0.29113373E-05     -0.14243771E+02      0.42190226E-10     -0.12863651E-03      0.38102295E-15
    0.131815076374         0.32743070E-05     -0.11895667E+02      0.39411923E-10     -0.11507094E-03      0.38124529E-15
    0.138091984773         0.36683138E-05     -0.99741793E+01      0.36888167E-10     -0.10318052E-03      0.38159935E-15
    0.144368893172         0.40953781E-05     -0.83886102E+01      0.34359618E-10     -0.92668670E-04      0.37956944E-15
    0.150645801571         0.45576374E-05     -0.70688092E+01      0.31925317E-10     -0.83282075E-04      0.37613218E-15
    0.156922709970         0.50573481E-05     -0.59607186E+01      0.30160594E-10     -0.74809751E-04      0.37852928E-15
    0.163199618368         0.55968873E-05     -0.50219121E+01      0.28236167E-10     -0.67068575E-04      0.37709928E-15
    0.169476526767         0.61787544E-05     -0.42173850E+01      0.26640873E-10     -0.59876605E-04      0.37823557E-15
    0.175753435166         0.68055722E-05     -0.35185122E+01      0.24495825E-10     -0.53056968E-04      0.36938175E-15
    0.182030343565         0.74800884E-05     -0.28954359E+01      0.23309676E-10     -0.46333963E-04      0.37301108E-15
    0.188307251963         0.82051763E-05     -0.23192844E+01      0.22134775E-10     -0.39354773E-04      0.37559389E-15
    0.194584160362         0.89838351E-05     -0.17040940E+01      0.20944841E-10     -0.30638703E-04      0.37657708E-15
    0.200861068761         0.98191904E-05     -0.87384490E+00      0.19770531E-10     -0.16635537E-04      0.37637501E-15
    0.207137977160         0.10714494E-04      0.13960093E+01      0.18639496E-10      0.28120484E-04      0.37546429E-15
    0.213414885559         0.11673124E-04      0.55020305E+01      0.17565697E-10      0.11719469E-03      0.37415393E-15
    0.219691793957         0.12698583E-04      0.78777562E+01      0.16814093E-10      0.17732358E-03      0.37847518E-15
    0.225968702356         0.13794497E-04      0.84335741E+01      0.15887532E-10      0.20048957E-03      0.37769093E-15
    0.232245610755         0.14964614E-04      0.10883654E+02      0.14923049E-10      0.27309596E-03      0.37445368E-15
    0.238522519154         0.16212802E-04      0.13684244E+02      0.14107390E-10      0.36221967E-03      0.37342030E-15
    0.244799427552         0.17543047E-04      0.15406349E+02      0.13297758E-10      0.42994898E-03      0.37110398E-15
    0.251076335951         0.18959448E-04      0.16685712E+02      0.12402795E-10      0.49066739E-03      0.36472206E-15
    0.257353244350         0.20466216E-04      0.17533352E+02      0.12065616E-10      0.54299446E-03      0.37366287E-15
    0.263630152749         0.22067666E-04      0.18534116E+02      0.11277488E-10      0.60416525E-03      0.36761754E-15
    0.269907061148         0.23768218E-04      0.19480510E+02      0.10601762E-10      0.66804428E-03      0.36356576E-15
    0.276183969546         0.25572386E-04      0.20481347E+02      0.99328068E-11      0.73850569E-03      0.35815195E-15
    0.282460877945         0.27484778E-04      0.21463677E+02      0.92224033E-11      0.81331839E-03      0.34946250E-15
    0.288737786344         0.29510084E-04      0.22380921E+02      0.85653023E-11      0.89077356E-03      0.34090397E-15
    0.295014694743         0.31653075E-04      0.23170564E+02      0.92086317E-11      0.96812495E-03      0.38475999E-15
    0.301291603141         0.33918591E-04      0.23707665E+02      0.86518703E-11      0.10393507E-02      0.37930042E-15
    0.307568511540         0.36311537E-04      0.24126796E+02      0.81004868E-11      0.11092385E-02      0.37242294E-15
    0.313845419939         0.38836871E-04      0.24369550E+02      0.75118433E-11      0.11743525E-02      0.36199077E-15
    0.320122328338         0.41499597E-04      0.24628341E+02      0.69182989E-11      0.12433277E-02      0.34926075E-15
    0.326399236737         0.44304758E-04      0.24806999E+02      0.63656129E-11      0.13112878E-02      0.33648368E-15
    0.332676145135         0.47257422E-04      0.25048602E+02      0.58632810E-11      0.13856527E-02      0.32434829E-15
    0.338953053534         0.50362672E-04      0.25230779E+02      0.60577136E-11      0.14598976E-02      0.35051007E-15
    0.345229961933         0.53625599E-04      0.25438723E+02      0.63401419E-11      0.15387977E-02      0.38351751E-15
    0.351506870332         0.57051287E-04      0.25577671E+02      0.58413177E-11      0.16166469E-02      0.36920282E-15
    0.357783778731         0.60644802E-04      0.25677830E+02      0.54108251E-11      0.16949379E-02      0.35715684E-15
    0.364060687129         0.64411179E-04      0.25726015E+02      0.49788891E-11      0.17724848E-02      0.34303818E-15
    0.370337595528         0.68355412E-04      0.25698281E+02      0.45485246E-11      0.18471481E-02      0.32694011E-15
    0.376614503927         0.72482440E-04      0.25665266E+02      0.41417284E-11      0.19235526E-02      0.31041301E-15
    0.382891412326         0.76797129E-04      0.25548327E+02      0.44678139E-11      0.19955121E-02      0.34896910E-15
    0.389168320724         0.81304267E-04      0.25478047E+02      0.40843372E-11      0.20728341E-02      0.33229208E-15
    0.395445229123         0.86008542E-04      0.25313298E+02      0.37318035E-11      0.21440086E-02      0.31607966E-15
    0.401722137522         0.90914532E-04      0.25222141E+02      0.40804327E-11      0.22228596E-02      0.35961377E-15
    0.407999045921         0.96026689E-04      0.25033054E+02      0.37328596E-11      0.22944003E-02      0.34213461E-15
    0.414275954320         0.10134933E-03      0.24925367E+02      0.33730699E-11      0.23746262E-02      0.32135054E-15
    0.420552862718         0.10688660E-03      0.24731908E+02      0.30477931E-11      0.24478389E-02      0.30165511E-15
    0.426829771117         0.11264250E-03      0.24604721E+02      0.34048955E-11      0.25286490E-02      0.34992413E-15
    0.433106679516         0.11862082E-03      0.24409412E+02      0.30936887E-11      0.26034299E-02      0.32996296E-15
    0.439383587915         0.12482516E-03      0.24259509E+02      0.27870381E-11      0.26838786E-02      0.30833566E-15
    0.445660496313         0.13125892E-03      0.24084578E+02      0.24871202E-11      0.27623982E-02      0.28526206E-15
    0.451937404712         0.13792525E-03      0.23913005E+02      0.28788385E-11      0.28419878E-02      0.34214117E-15
    0.458214313111         0.14482706E-03      0.23769205E+02      0.25820815E-11      0.29256223E-02      0.31781439E-15
    0.464491221510         0.15196699E-03      0.23587800E+02      0.23036713E-11      0.30052579E-02      0.29350454E-15
    0.470768129909         0.15934743E-03      0.23510147E+02      0.26834208E-11      0.30989595E-02      0.35371164E-15
    0.477045038307         0.16697047E-03      0.23340425E+02      0.24167209E-11      0.31813509E-02      0.32940434E-15
    0.483321946706         0.17483788E-03      0.23401213E+02      0.21672997E-11      0.32965519E-02      0.30530964E-15
    0.489598855105         0.18295113E-03      0.23312971E+02      0.18934730E-11      0.33924610E-02      0.27553474E-15
    0.495875763504         0.19131136E-03      0.23808601E+02      0.16158845E-11      0.35770441E-02      0.24277320E-15
    0.502152671902         0.19991936E-03      0.24120992E+02      0.13294724E-11      0.37397002E-02      0.20612039E-15
    0.508429580301         0.20877557E-03      0.27551450E+02      0.16730003E-11      0.44057097E-02      0.26752689E-15
    0.514706488700         0.21788006E-03      0.29486443E+02      0.21503603E-11      0.48607443E-02      0.35447990E-15
    0.520983397099         0.22723252E-03      0.25020030E+02      0.12038790E-11      0.42496873E-02      0.20448053E-15
    0.527260305498         0.23683224E-03      0.24457094E+02      0.16741585E-11      0.42780234E-02      0.29284301E-15
    0.533537213896         0.24667813E-03      0.30603325E+02      0.21316949E-11      0.55100698E-02      0.38380757E-15
    0.539814122295         0.25676868E-03      0.35004821E+02      0.81856353E-12      0.64840777E-02      0.15162567E-15
    0.546091030694         0.26710195E-03      0.32021521E+02      0.15272017E-11      0.60992511E-02      0.29089144E-15
    0.552367939093         0.27767559E-03      0.29211002E+02      0.45608112E-12      0.57184488E-02      0.89284049E-16
    0.558644847491         0.28848680E-03      0.29404415E+02      0.99389551E-12      0.59132363E-02      0.19987267E-15
    0.564921755890         0.29953234E-03      0.29021370E+02     -0.76662885E-13      0.59923321E-02     -0.15829352E-16
    0.571198664289         0.31080855E-03      0.28493525E+02      0.50219486E-12      0.60377413E-02      0.10641444E-15
    0.577475572688         0.32231128E-03      0.27584702E+02     -0.49084112E-12      0.59956010E-02     -0.10668549E-15
    0.583752481087         0.33403594E-03      0.26952103E+02      0.16090053E-11      0.60059217E-02      0.35854566E-15
    0.590029389485         0.34597750E-03      0.26290478E+02      0.21086004E-11      0.60033717E-02      0.48149418E-15
    0.596306297884         0.35813043E-03      0.25659510E+02      0.11334301E-11      0.60012640E-02      0.26508743E-15
    0.602583206283         0.37048878E-03      0.25067387E+02      0.16125072E-11      0.60019123E-02      0.38608439E-15
    0.608860114682         0.38304611E-03      0.24541796E+02      0.69390539E-12      0.60126014E-02      0.17000290E-15
    0.615137023081         0.39579552E-03      0.24069588E+02      0.11881992E-11      0.60310121E-02      0.29772192E-15
    0.621413931479         0.40872967E-03      0.23570788E+02      0.31365395E-12      0.60374259E-02      0.80339381E-16
    0.627690839878         0.42184075E-03      0.23108941E+02      0.79208699E-12      0.60479101E-02      0.20729946E-15
    0.633967748277         0.43512051E-03      0.22647801E+02     -0.51111178E-13      0.60532828E-02     -0.13660947E-16
    0.640244656676         0.44856023E-03      0.22204479E+02      0.40970531E-12      0.60581209E-02      0.11178124E-15
    0.646521565074         0.46215079E-03      0.21747485E+02      0.84400683E-12      0.60538584E-02      0.23494661E-15
    0.652798473473         0.47588259E-03      0.21313316E+02      0.64543683E-13      0.60505417E-02      0.18323017E-16
    0.659075381872         0.48974566E-03      0.20878211E+02      0.51330181E-12      0.60415911E-02      0.14853570E-15
    0.665352290271         0.50372956E-03      0.20474426E+02     -0.23719289E-12      0.60364283E-02     -0.69931040E-16
    0.671629198670         0.51782348E-03      0.20076379E+02      0.13299560E-11      0.60278175E-02      0.39931166E-15
    0.677906107068         0.53201623E-03      0.19702866E+02      0.58677000E-12      0.60215358E-02      0.17932704E-15
    0.684183015467         0.54629619E-03      0.19331857E+02      0.97980164E-12      0.60110731E-02      0.30466081E-15
    0.690459923866         0.56065144E-03      0.18976825E+02      0.13505767E-11      0.60006812E-02      0.42706724E-15
    0.696736832265         0.57506964E-03      0.18625068E+02      0.66214996E-12      0.59864875E-02      0.21282889E-15
    0.703013740663         0.58953818E-03      0.18284299E+02      0.10265476E-11      0.59710261E-02      0.33523531E-15
    0.709290649062         0.60404409E-03      0.17946996E+02      0.36647887E-12      0.59519424E-02      0.12153906E-15
    0.715567557461         0.61857410E-03      0.17619052E+02      0.73238105E-12      0.59312491E-02      0.24654757E-15
    0.721844465860         0.63311469E-03      0.17296722E+02      0.95864082E-13      0.59077909E-02      0.32742906E-16
    0.728121374259         0.64765203E-03      0.16983756E+02      0.45072565E-12      0.58829376E-02      0.15612511E-15
    0.734398282657         0.66217208E-03      0.16677040E+02     -0.16118292E-12      0.58557256E-02     -0.56595353E-16
    0.740675191056         0.67666057E-03      0.16382567E+02      0.19412617E-12      0.58283762E-02      0.69063678E-16
    0.746952099455         0.69110303E-03      0.16096433E+02      0.52839926E-12      0.57996559E-02      0.19038590E-15
    0.753229007854         0.70548480E-03      0.15823095E+02     -0.46371560E-13      0.57713128E-02     -0.16913554E-16
    0.759505916252         0.71979107E-03      0.15552479E+02      0.11706869E-11      0.57398093E-02      0.43205457E-15
    0.765782824651         0.73400692E-03      0.15293364E+02      0.59835706E-12      0.57084750E-02      0.22334565E-15
    0.772059733050         0.74811728E-03      0.15035574E+02      0.90678837E-12      0.56736343E-02      0.34217421E-15
    0.778336641449         0.76210702E-03      0.14789305E+02      0.35883814E-12      0.56392169E-02      0.13682631E-15
    0.784613549848         0.77596097E-03      0.14541643E+02      0.66353409E-12      0.56004137E-02      0.25554645E-15
    0.790890458246         0.78966389E-03      0.14305511E+02      0.13300874E-12      0.55622672E-02      0.51716444E-16
    0.797167366645         0.80320056E-03      0.14070758E+02      0.43133643E-12      0.55209590E-02      0.16924396E-15
    0.803444275044         0.81655577E-03      0.13847116E+02      0.72484889E-12      0.54803964E-02      0.28687989E-15
    0.809721183443         0.82971435E-03      0.13622828E+02      0.22605700E-12      0.54360432E-02      0.90205621E-16
    0.815998091842         0.84266121E-03      0.13404032E+02      0.50523504E-12      0.53904106E-02      0.20317949E-15
    0.822275000240         0.85538134E-03      0.13186444E+02      0.24354905E-13      0.53418650E-02      0.98662398E-17
    0.828551908639         0.86785989E-03      0.12971379E+02      0.30726682E-12      0.52910099E-02      0.12533377E-15
    0.834828817038         0.88008214E-03      0.12759766E+02     -0.13944273E-12      0.52383079E-02     -0.57245875E-16
    0.841105725437         0.89203353E-03      0.12546891E+02      0.13152093E-12      0.51819027E-02      0.54318529E-16
    0.847382633835         0.90369974E-03      0.12341542E+02     -0.30518111E-12      0.51255041E-02     -0.12674323E-15
    0.853659542234         0.91506666E-03      0.12137055E+02      0.65010057E-12      0.50664514E-02      0.27137580E-15
    0.859936450633         0.92612043E-03      0.11947211E+02      0.89730737E-12      0.50106053E-02      0.37632657E-15
    0.866213359032         0.93684749E-03      0.11755335E+02      0.46490204E-12      0.49510987E-02      0.19580691E-15
    0.872490267431         0.94723458E-03      0.11577366E+02      0.70726968E-12      0.48947360E-02      0.29902296E-15
    0.878767175829         0.95726876E-03      0.11397353E+02      0.30490750E-12      0.48348901E-02      0.12934532E-15
    0.885044084228         0.96693747E-03      0.11235544E+02      0.54483117E-12      0.47802446E-02      0.23180242E-15
    0.891320992627         0.97622851E-03      0.11079681E+02      0.14845103E-12      0.47257110E-02      0.63317407E-16
    0.897597901026         0.98513008E-03      0.10947718E+02      0.38190623E-12      0.46790523E-02      0.16322664E-15
    0.903874809424         0.99363082E-03      0.10836161E+02      0.60820999E-12      0.46388972E-02      0.26037115E-15
    0.910151717823         0.10017198E-02      0.10751137E+02      0.21678842E-12      0.46079676E-02      0.92916126E-16
    0.916428626222         0.10093866E-02      0.10705103E+02      0.44159257E-12      0.45916869E-02      0.18941012E-15
    0.922705534621         0.10166212E-02      0.10697858E+02      0.60898800E-13      0.45900289E-02      0.26129272E-16
    0.928982443020         0.10234142E-02      0.10752334E+02      0.28153280E-12      0.46128486E-02      0.12078012E-15
    0.935259351418         0.10297566E-02      0.10876282E+02     -0.11619053E-12      0.46634308E-02     -0.49819090E-16
    0.941536259817         0.10356401E-02      0.11115326E+02      0.72213386E-12      0.47612012E-02      0.30932288E-15
    0.947813168216         0.10410567E-02      0.11436511E+02      0.30543804E-12      0.48917894E-02      0.13064636E-15
    0.954090076615         0.10459994E-02      0.11758772E+02      0.53062544E-12      0.50202639E-02      0.22654404E-15
    0.960366985013         0.10504613E-02      0.12140062E+02      0.77352724E-12      0.51711396E-02      0.32948904E-15
    0.966643893412         0.10544364E-02      0.12384264E+02      0.32146377E-12      0.52607373E-02      0.13655526E-15
    0.972920801811         0.10579192E-02      0.12674716E+02      0.57891295E-12      0.53670522E-02      0.24513811E-15
    0.979197710210         0.10609050E-02      0.13071548E+02      0.10510053E-12      0.55151289E-02      0.44343869E-16
    0.985474618609         0.10633895E-02      0.15818880E+02      0.26884906E-12      0.66472990E-02      0.11297387E-15
    0.991751527007         0.10653692E-02      0.19593364E+02     -0.58625031E-12      0.81965066E-02     -0.24524653E-15
    0.998028435406         0.10668411E-02      0.19280938E+02     -0.16721143E-12      0.80261543E-02     -0.69605779E-16
    1.004305343805         0.10678029E-02      0.18475037E+02     -0.77483165E-12      0.76495029E-02     -0.32081542E-15
    1.010582252204         0.10682532E-02      0.20770805E+02     -0.55099400E-12      0.85502422E-02     -0.22681509E-15
    1.016859160602         0.10681909E-02      0.24331991E+02     -0.28676551E-12      0.99537854E-02     -0.11731068E-15
