 
 # Omega; pulse ft; proj flux t=    500.250000000000     
    0.000000000000         0.23910205E-10      0.00000000E+00      0.00000000E+00     -0.18456846E-01     -0.50821977E-16
    0.006276908399         0.59245936E-08     -0.30501377E+05     -0.13708639E-09     -0.11211269E-01     -0.50388296E-16
    0.012553816798         0.23666714E-07     -0.38100362E+04     -0.70379377E-10     -0.27971376E-02     -0.51669010E-16
    0.018830725196         0.53370592E-07     -0.11279052E+04     -0.45479857E-10     -0.12448875E-02     -0.50196867E-16
    0.025107633595         0.95237123E-07     -0.47287294E+03     -0.34345915E-10     -0.69850173E-03     -0.50733885E-16
    0.031384541994         0.14954832E-06     -0.24112972E+03     -0.26235143E-10     -0.44744436E-03     -0.48682372E-16
    0.037661450393         0.21666807E-06     -0.13826954E+03     -0.22491781E-10     -0.30977540E-03     -0.50389990E-16
    0.043938358791         0.29704308E-06     -0.86473406E+02     -0.19267914E-10     -0.22765685E-03     -0.50726262E-16
    0.050215267190         0.39120404E-06     -0.57241504E+02     -0.16586236E-10     -0.17366053E-03     -0.50319686E-16
    0.056492175589         0.49976695E-06     -0.39814072E+02     -0.14603950E-10     -0.13716344E-03     -0.50312063E-16
    0.062769083988         0.62343466E-06     -0.28599289E+02     -0.12960077E-10     -0.11061727E-03     -0.50127410E-16
    0.069045992387         0.76299851E-06     -0.21220367E+02     -0.11535255E-10     -0.91318897E-04     -0.49640366E-16
    0.075322900785         0.91934020E-06     -0.16060843E+02     -0.10737867E-10     -0.76337879E-04     -0.51037547E-16
    0.081599809184         0.10934337E-05     -0.12441287E+02     -0.95044567E-11     -0.64921896E-04     -0.49596744E-16
    0.087876717583         0.12863475E-05     -0.97596894E+01     -0.89286264E-11     -0.55634349E-04     -0.50896939E-16
    0.094153625982         0.14992463E-05     -0.77924970E+01     -0.81780746E-11     -0.48320914E-04     -0.50711863E-16
    0.100430534380         0.17333941E-05     -0.62733960E+01     -0.75435483E-11     -0.42165454E-04     -0.50702545E-16
    0.106707442779         0.19901556E-05     -0.51220966E+01     -0.69333153E-11     -0.37201686E-04     -0.50356532E-16
    0.112984351178         0.22709991E-05     -0.42032142E+01     -0.64328248E-11     -0.32900518E-04     -0.50352721E-16
    0.119261259577         0.25774989E-05     -0.34895943E+01     -0.59877881E-11     -0.29369502E-04     -0.50395072E-16
    0.125538167976         0.29113373E-05     -0.29055988E+01     -0.54980266E-11     -0.26240671E-04     -0.49653071E-16
    0.131815076374         0.32743070E-05     -0.24433397E+01     -0.51494382E-11     -0.23635278E-04     -0.49812314E-16
    0.138091984773         0.36683138E-05     -0.20573984E+01     -0.48296312E-11     -0.21283299E-04     -0.49961391E-16
    0.144368893172         0.40953781E-05     -0.17473210E+01     -0.45451592E-11     -0.19302591E-04     -0.50210207E-16
    0.150645801571         0.45576374E-05     -0.14835927E+01     -0.43210688E-11     -0.17479137E-04     -0.50909221E-16
    0.156922709970         0.50573481E-05     -0.12692344E+01     -0.40041429E-11     -0.15929473E-04     -0.50253829E-16
    0.163199618368         0.55968873E-05     -0.10845628E+01     -0.38062674E-11     -0.14484539E-04     -0.50833412E-16
    0.169476526767         0.61787544E-05     -0.93296512E+00     -0.35490499E-11     -0.13245835E-04     -0.50387872E-16
    0.175753435166         0.68055722E-05     -0.80073848E+00     -0.34602559E-11     -0.12074637E-04     -0.52178500E-16
    0.182030343565         0.74800884E-05     -0.69134143E+00     -0.32219582E-11     -0.11063131E-04     -0.51559107E-16
    0.188307251963         0.82051763E-05     -0.59491897E+00     -0.29919020E-11     -0.10094882E-04     -0.50768084E-16
    0.194584160362         0.89838351E-05     -0.51463563E+00     -0.28283635E-11     -0.92528746E-05     -0.50852470E-16
    0.200861068761         0.98191904E-05     -0.44312510E+00     -0.26643342E-11     -0.84358492E-05     -0.50721392E-16
    0.207137977160         0.10714494E-04     -0.38311599E+00     -0.25241185E-11     -0.77172890E-05     -0.50844529E-16
    0.213414885559         0.11673124E-04     -0.32985547E+00     -0.24034513E-11     -0.70260079E-05     -0.51194142E-16
    0.219691793957         0.12698583E-04     -0.28460244E+00     -0.22143858E-11     -0.64062309E-05     -0.49844501E-16
    0.225968702356         0.13794497E-04     -0.24343405E+00     -0.21175746E-11     -0.57871061E-05     -0.50340650E-16
    0.232245610755         0.14964614E-04     -0.20928633E+00     -0.20024928E-11     -0.52514763E-05     -0.50247159E-16
    0.238522519154         0.16212802E-04     -0.17744534E+00     -0.19244120E-11     -0.46969488E-05     -0.50938867E-16
    0.244799427552         0.17543047E-04     -0.15116125E+00     -0.18037527E-11     -0.42184961E-05     -0.50337792E-16
    0.251076335951         0.18959448E-04     -0.12661040E+00     -0.17256587E-11     -0.37231611E-05     -0.50745479E-16
    0.257353244350         0.20466216E-04     -0.10587185E+00     -0.16477842E-11     -0.32787699E-05     -0.51030612E-16
    0.263630152749         0.22067666E-04     -0.86824168E-01     -0.15769792E-11     -0.28302480E-05     -0.51405530E-16
    0.269907061148         0.23768218E-04     -0.70318779E-01     -0.14816550E-11     -0.24114387E-05     -0.50810330E-16
    0.276183969546         0.25572386E-04     -0.55294303E-01     -0.14064570E-11     -0.19937730E-05     -0.50713292E-16
    0.282460877945         0.27484778E-04     -0.42034290E-01     -0.13439549E-11     -0.15927961E-05     -0.50926188E-16
    0.288737786344         0.29510084E-04     -0.30043054E-01     -0.12738636E-11     -0.11957309E-05     -0.50700507E-16
    0.295014694743         0.31653075E-04     -0.19279618E-01     -0.12154865E-11     -0.80555135E-06     -0.50786110E-16
    0.301291603141         0.33918591E-04     -0.95429375E-02     -0.11460354E-11     -0.41836506E-06     -0.50242514E-16
    0.307568511540         0.36311537E-04     -0.73315794E-03     -0.10940076E-11     -0.33707213E-07     -0.50297414E-16
    0.313845419939         0.38836871E-04      0.73641550E-02     -0.10465161E-11      0.35487377E-06     -0.50430919E-16
    0.320122328338         0.41499597E-04      0.14681501E-01     -0.10054545E-11      0.74117527E-06     -0.50758979E-16
    0.326399236737         0.44304758E-04      0.21592467E-01     -0.97144547E-12      0.11413689E-05     -0.51350208E-16
    0.332676145135         0.47257422E-04      0.27805056E-01     -0.92021810E-12      0.15381358E-05     -0.50905145E-16
    0.338953053534         0.50362672E-04      0.33873270E-01     -0.88344867E-12      0.19599676E-05     -0.51117909E-16
    0.345229961933         0.53625599E-04      0.39289683E-01     -0.83586759E-12      0.23766473E-05     -0.50561938E-16
    0.351506870332         0.57051287E-04      0.44790556E-01     -0.80813208E-12      0.28310049E-05     -0.51078310E-16
    0.357783778731         0.60644802E-04      0.49688674E-01     -0.77142872E-12      0.32798417E-05     -0.50920339E-16
    0.364060687129         0.64411179E-04      0.54858866E-01     -0.73986025E-12      0.37796957E-05     -0.50975290E-16
    0.370337595528         0.68355412E-04      0.59494541E-01     -0.71248723E-12      0.42763650E-05     -0.51212353E-16
    0.376614503927         0.72482440E-04      0.64565727E-01     -0.68076924E-12      0.48390527E-05     -0.51022088E-16
    0.382891412326         0.76797129E-04      0.69205897E-01     -0.65021012E-12      0.54054892E-05     -0.50786190E-16
    0.389168320724         0.81304267E-04      0.74390622E-01     -0.62439250E-12      0.60522463E-05     -0.50799107E-16
    0.395445229123         0.86008542E-04      0.79313156E-01     -0.59683094E-12      0.67177374E-05     -0.50550926E-16
    0.401722137522         0.90914532E-04      0.84916368E-01     -0.57409843E-12      0.74837883E-05     -0.50596031E-16
    0.407999045921         0.96026689E-04      0.90435074E-01     -0.55349739E-12      0.82888113E-05     -0.50730709E-16
    0.414275954320         0.10134933E-03      0.96792690E-01     -0.53431974E-12      0.92213868E-05     -0.50904351E-16
    0.420552862718         0.10688660E-03      0.10337383E+00     -0.51273449E-12      0.10231418E-04     -0.50747861E-16
    0.426829771117         0.11264250E-03      0.11104330E+00     -0.49352410E-12      0.11412018E-04     -0.50719909E-16
    0.433106679516         0.11862082E-03      0.11931427E+00     -0.47387934E-12      0.12725679E-04     -0.50542456E-16
    0.439383587915         0.12482516E-03      0.12912103E+00     -0.46175199E-12      0.14284921E-04     -0.51084557E-16
    0.445660496313         0.13125892E-03      0.14022302E+00     -0.44773673E-12      0.16082981E-04     -0.51353490E-16
    0.451937404712         0.13792525E-03      0.15370118E+00     -0.42902233E-12      0.18266916E-04     -0.50987995E-16
    0.458214313111         0.14482706E-03      0.16973327E+00     -0.41505690E-12      0.20891547E-04     -0.51087098E-16
    0.464491221510         0.15196699E-03      0.18993749E+00     -0.40265002E-12      0.24199422E-04     -0.51300550E-16
    0.470768129909         0.15934743E-03      0.21574345E+00     -0.38532137E-12      0.28437943E-04     -0.50790637E-16
    0.477045038307         0.16697047E-03      0.24987401E+00     -0.37444097E-12      0.34058374E-04     -0.51037123E-16
    0.483321946706         0.17483788E-03      0.29899625E+00     -0.36773251E-12      0.42119896E-04     -0.51802841E-16
    0.489598855105         0.18295113E-03      0.37010052E+00     -0.36024963E-12      0.53856351E-04     -0.52422869E-16
    0.495875763504         0.19131136E-03      0.50526694E+00     -0.35624149E-12      0.75912150E-04     -0.53522318E-16
    0.502152671902         0.19991936E-03      0.74025294E+00     -0.36064638E-12      0.11476825E-03     -0.55914339E-16
    0.508429580301         0.20877557E-03      0.18787231E+01     -0.36316142E-12      0.30042369E-03     -0.58072579E-16
    0.514706488700         0.21788006E-03      0.50635773E+01     -0.33230449E-12      0.83471425E-03     -0.54779315E-16
    0.520983397099         0.22723252E-03      0.68032282E+01     -0.57353406E-12      0.11555379E-02     -0.97415565E-16
    0.527260305498         0.23683224E-03      0.62973938E+01     -0.41311611E-12      0.11015371E-02     -0.72262075E-16
    0.533537213896         0.24667813E-03      0.11270113E+02     -0.26676295E-12      0.20291621E-02     -0.48030156E-16
    0.539814122295         0.25676868E-03      0.16782955E+02     -0.85573106E-12      0.31087714E-02     -0.15851036E-15
    0.546091030694         0.26710195E-03      0.14378612E+02     -0.46903249E-12      0.27387446E-02     -0.89338259E-16
    0.552367939093         0.27767559E-03      0.11823939E+02     -0.85400982E-12      0.23146961E-02     -0.16718397E-15
    0.558644847491         0.28848680E-03      0.12141023E+02     -0.61569225E-12      0.24415632E-02     -0.12381589E-15
    0.564921755890         0.29953234E-03      0.12147301E+02     -0.10417751E-11      0.25081746E-02     -0.21510571E-15
    0.571198664289         0.31080855E-03      0.11888764E+02     -0.77004917E-12      0.25192138E-02     -0.16317243E-15
    0.577475572688         0.32231128E-03      0.11267082E+02     -0.11418042E-11      0.24489272E-02     -0.24817388E-15
    0.583752481087         0.33403594E-03      0.10836660E+02     -0.25981518E-12      0.24148072E-02     -0.57896396E-16
    0.590029389485         0.34597750E-03      0.10458470E+02     -0.39408655E-13      0.23881682E-02     -0.89988780E-17
    0.596306297884         0.35813043E-03      0.10048961E+02     -0.40330643E-12      0.23502580E-02     -0.94325589E-16
    0.602583206283         0.37048878E-03      0.96943510E+01     -0.19516726E-12      0.23211292E-02     -0.46729114E-16
    0.608860114682         0.38304611E-03      0.93847031E+01     -0.52839479E-12      0.22991992E-02     -0.12945374E-15
    0.615137023081         0.39579552E-03      0.91372148E+01     -0.32279556E-12      0.22894722E-02     -0.80881482E-16
    0.621413931479         0.40872967E-03      0.88528535E+01     -0.63281060E-12      0.22675716E-02     -0.16208822E-15
    0.627690839878         0.42184075E-03      0.86045461E+01     -0.43581355E-12      0.22519215E-02     -0.11405807E-15
    0.633967748277         0.43512051E-03      0.83582045E+01     -0.72853711E-12      0.22339730E-02     -0.19472271E-15
    0.640244656676         0.44856023E-03      0.81171545E+01     -0.54044541E-12      0.22146299E-02     -0.14745150E-15
    0.646521565074         0.46215079E-03      0.78717829E+01     -0.36689175E-12      0.21912722E-02     -0.10213184E-15
    0.652798473473         0.47588259E-03      0.76335110E+01     -0.63092405E-12      0.21670432E-02     -0.17911020E-15
    0.659075381872         0.48974566E-03      0.74040677E+01     -0.45747555E-12      0.21425375E-02     -0.13238109E-15
    0.665352290271         0.50372956E-03      0.71925319E+01     -0.70606255E-12      0.21205578E-02     -0.20816682E-15
    0.671629198670         0.51782348E-03      0.69960117E+01     -0.14372047E-12      0.21005124E-02     -0.43151246E-16
    0.677906107068         0.53201623E-03      0.68128736E+01     -0.39023398E-12      0.20821317E-02     -0.11926224E-15
    0.684183015467         0.54629619E-03      0.66369196E+01     -0.24373002E-12      0.20636925E-02     -0.75785732E-16
    0.690459923866         0.56065144E-03      0.64695249E+01     -0.10800499E-12      0.20457351E-02     -0.34152368E-16
    0.696736832265         0.57506964E-03      0.63040781E+01     -0.33158095E-12      0.20262630E-02     -0.10657707E-15
    0.703013740663         0.58953818E-03      0.61466295E+01     -0.19720869E-12      0.20072788E-02     -0.64401609E-16
    0.709290649062         0.60404409E-03      0.59886993E+01     -0.40963249E-12      0.19860924E-02     -0.13585053E-15
    0.715567557461         0.61857410E-03      0.58389900E+01     -0.27729995E-12      0.19656282E-02     -0.93349807E-16
    0.721844465860         0.63311469E-03      0.56885803E+01     -0.47995527E-12      0.19429660E-02     -0.16393137E-15
    0.728121374259         0.64765203E-03      0.55476552E+01     -0.35400744E-12      0.19216308E-02     -0.12262327E-15
    0.734398282657         0.66217208E-03      0.54072838E+01     -0.54468711E-12      0.18986326E-02     -0.19125326E-15
    0.740675191056         0.67666057E-03      0.52758928E+01     -0.42116541E-12      0.18769884E-02     -0.14983674E-15
    0.746952099455         0.69110303E-03      0.51464982E+01     -0.30632713E-12      0.18543189E-02     -0.11037178E-15
    0.753229007854         0.70548480E-03      0.50233379E+01     -0.48125356E-12      0.18322113E-02     -0.17553233E-15
    0.759505916252         0.71979107E-03      0.49040153E+01     -0.90482200E-13      0.18098795E-02     -0.33393427E-16
    0.765782824651         0.73400692E-03      0.47878121E+01     -0.26461324E-12      0.17871219E-02     -0.98770818E-16
    0.772059733050         0.74811728E-03      0.46773205E+01     -0.16319892E-12      0.17649746E-02     -0.61582683E-16
    0.778336641449         0.76210702E-03      0.45661397E+01     -0.32756065E-12      0.17410860E-02     -0.12490009E-15
    0.784613549848         0.77596097E-03      0.44626089E+01     -0.22830978E-12      0.17186817E-02     -0.87928796E-16
    0.790890458246         0.78966389E-03      0.43559398E+01     -0.38424746E-12      0.16936761E-02     -0.14940306E-15
    0.797167366645         0.80320056E-03      0.42608786E+01     -0.28930765E-12      0.16718457E-02     -0.11351597E-15
    0.803444275044         0.81655577E-03      0.41607471E+01     -0.19641597E-12      0.16467359E-02     -0.77737296E-16
    0.809721183443         0.82971435E-03      0.40711188E+01     -0.34153083E-12      0.16245363E-02     -0.13628421E-15
    0.815998091842         0.84266121E-03      0.39739161E+01     -0.25396553E-12      0.15981042E-02     -0.10213184E-15
    0.822275000240         0.85538134E-03      0.38871937E+01     -0.39208720E-12      0.15747130E-02     -0.15883562E-15
    0.828551908639         0.86785989E-03      0.37931709E+01     -0.30514041E-12      0.15472299E-02     -0.12446641E-15
    0.834828817038         0.88008214E-03      0.37079000E+01     -0.43153300E-12      0.15222162E-02     -0.17715863E-15
    0.841105725437         0.89203353E-03      0.36180756E+01     -0.34835982E-12      0.14942758E-02     -0.14387363E-15
    0.847382633835         0.90369974E-03      0.35327765E+01     -0.46938890E-12      0.14671797E-02     -0.19493955E-15
    0.853659542234         0.91506666E-03      0.34460764E+01     -0.19375750E-12      0.14385186E-02     -0.80881482E-16
    0.859936450633         0.92612043E-03      0.33648992E+01     -0.12098526E-12      0.14112232E-02     -0.50740662E-16
    0.866213359032         0.93684749E-03      0.32867631E+01     -0.24043107E-12      0.13843151E-02     -0.10126448E-15
    0.872490267431         0.94723458E-03      0.32043728E+01     -0.17104745E-12      0.13547605E-02     -0.72316285E-16
    0.878767175829         0.95726876E-03      0.31296657E+01     -0.27909388E-12      0.13276407E-02     -0.11839488E-15
    0.885044084228         0.96693747E-03      0.30470339E+01     -0.21100103E-12      0.12963830E-02     -0.89771940E-16
    0.891320992627         0.97622851E-03      0.29784376E+01     -0.31596684E-12      0.12703647E-02     -0.13476633E-15
    0.897597901026         0.98513008E-03      0.29000345E+01     -0.25037625E-12      0.12394741E-02     -0.10701075E-15
    0.903874809424         0.99363082E-03      0.28412206E+01     -0.18956701E-12      0.12163100E-02     -0.81152533E-16
    0.910151717823         0.10017198E-02      0.27676089E+01     -0.28837667E-12      0.11862049E-02     -0.12359905E-15
    0.916428626222         0.10093866E-02      0.27193493E+01     -0.22863221E-12      0.11663971E-02     -0.98066087E-16
    0.922705534621         0.10166212E-02      0.26599514E+01     -0.32155072E-12      0.11412802E-02     -0.13796473E-15
    0.928982443020         0.10234142E-02      0.26269076E+01     -0.26346314E-12      0.11269672E-02     -0.11302808E-15
    0.935259351418         0.10297566E-02      0.25988806E+01     -0.35628390E-12      0.11143238E-02     -0.15276409E-15
    0.941536259817         0.10356401E-02      0.25905037E+01     -0.15465257E-12      0.11096309E-02     -0.66244753E-16
    0.947813168216         0.10410567E-02      0.26144846E+01     -0.24967342E-12      0.11183051E-02     -0.10679391E-15
    0.954090076615         0.10459994E-02      0.26080544E+01     -0.19693708E-12      0.11134769E-02     -0.84079878E-16
    0.960366985013         0.10504613E-02      0.26696626E+01     -0.14317508E-12      0.11371604E-02     -0.60986372E-16
    0.966643893412         0.10544364E-02      0.26066338E+01     -0.23902407E-12      0.11072774E-02     -0.10153553E-15
    0.972920801811         0.10579192E-02      0.26264867E+01     -0.18460692E-12      0.11121741E-02     -0.78170977E-16
    0.979197710210         0.10609050E-02      0.26113843E+01     -0.27727011E-12      0.11017916E-02     -0.11698541E-15
    0.985474618609         0.10633895E-02      0.43419875E+01     -0.29232820E-12      0.18245595E-02     -0.12284011E-15
    0.991751527007         0.10653692E-02      0.79163584E+01     -0.72153884E-12      0.33116562E-02     -0.30184188E-15
    0.998028435406         0.10668411E-02      0.74481591E+01     -0.53549329E-12      0.31004755E-02     -0.22291197E-15
    1.004305343805         0.10678029E-02      0.47828276E+01     -0.55906238E-12      0.19803074E-02     -0.23147716E-15
    1.010582252204         0.10682532E-02      0.43553632E+01     -0.43010191E-12      0.17928727E-02     -0.17705021E-15
    1.016859160602         0.10681909E-02      0.45911150E+01     -0.35169855E-12      0.18781436E-02     -0.14387363E-15
