 
 # Omega; pulse ft; proj flux t=    500.050000000000     
    0.000000000000         0.16626861E-13      0.00000000E+00      0.00000000E+00      0.00000000E+00      0.00000000E+00      0.00000000E+00      0.00000000E+00
    0.006280045285         0.55619039E-10      0.19185429E+03      0.21417767E-08      0.10531128E-06      0.11756487E-17      0.66135960E-09      0.73831271E-20
    0.012560090569         0.22310564E-09      0.48882094E+02      0.25282028E-08      0.53815858E-07      0.27833792E-17      0.99932563E-09      0.24862874E-19
    0.018840135854         0.50451792E-09      0.37680765E+02      0.19318733E-08      0.62539579E-07      0.32063718E-17      0.13920770E-08      0.44999035E-19
    0.025120181138         0.90326950E-09      0.22363564E+02      0.14549376E-08      0.49840026E-07      0.32425122E-17      0.17050746E-08      0.65362158E-19
    0.031400226423         0.14241628E-08      0.13184742E+02      0.11653551E-08      0.37063050E-07      0.32758785E-17      0.19378323E-08      0.85934824E-19
    0.037680271707         0.20734119E-08      0.88232625E+01      0.96349579E-09      0.30091472E-07      0.32859735E-17      0.21268081E-08      0.10657089E-18
    0.043960316992         0.28586714E-08      0.57288603E+01      0.81730330E-09      0.23089489E-07      0.32940436E-17      0.22718111E-08      0.12725763E-18
    0.050240362276         0.37890711E-08      0.38489544E+01      0.70521570E-09      0.17991419E-07      0.32964359E-17      0.23847980E-08      0.14795940E-18
    0.056520407561         0.48752551E-08      0.24098313E+01      0.61657022E-09      0.12883130E-07      0.32962283E-17      0.24657047E-08      0.16865986E-18
    0.062800452845         0.61294263E-08      0.15346569E+01      0.54538703E-09      0.92834848E-08      0.32991688E-17      0.25240054E-08      0.18937879E-18
    0.069080498130         0.75653939E-08      0.83651413E+00      0.48629933E-09      0.56779562E-08      0.33008244E-17      0.25596632E-08      0.21010812E-18
    0.075360543414         0.91986243E-08      0.36108389E+00      0.43701953E-09      0.27316789E-08      0.33061487E-17      0.25768183E-08      0.23087088E-18
    0.081640588699         0.11046294E-07     -0.25638485E-01      0.39462268E-09     -0.21500349E-09      0.33092928E-17      0.25754680E-08      0.25165339E-18
    0.087920633984         0.13127346E-07     -0.28904786E+00      0.35760261E-09     -0.26748445E-08      0.33092491E-17      0.25586699E-08      0.27243562E-18
    0.094200679268         0.15462541E-07     -0.50446660E+00      0.32572408E-09     -0.51321804E-08      0.33137472E-17      0.25264396E-08      0.29324610E-18
    0.100480724553         0.18074516E-07     -0.64975662E+00      0.29730186E-09     -0.72439810E-08      0.33145473E-17      0.24809470E-08      0.31406161E-18
    0.106760769837         0.20987836E-07     -0.76745161E+00      0.27204170E-09     -0.93508187E-08      0.33146228E-17      0.24222235E-08      0.33487759E-18
    0.113040815122         0.24229044E-07     -0.84203746E+00      0.24921721E-09     -0.11186007E-07      0.33107143E-17      0.23519749E-08      0.35566903E-18
    0.119320860406         0.27826708E-07     -0.90038675E+00      0.22911604E-09     -0.13014193E-07      0.33116439E-17      0.22702451E-08      0.37646630E-18
    0.125600905691         0.31811467E-07     -0.93120932E+00      0.21086226E-09     -0.14617763E-07      0.33100339E-17      0.21784449E-08      0.39725346E-18
    0.131880950975         0.36216061E-07     -0.95254946E+00      0.19450734E-09     -0.16212476E-07      0.33105321E-17      0.20766298E-08      0.41804376E-18
    0.138160996260         0.41075368E-07     -0.95569057E+00      0.17966302E-09     -0.17609863E-07      0.33105288E-17      0.19660391E-08      0.43883403E-18
    0.144441041544         0.46426423E-07     -0.95358676E+00      0.16618189E-09     -0.18996671E-07      0.33105564E-17      0.18467391E-08      0.45962447E-18
    0.150721086829         0.52308432E-07     -0.93925046E+00      0.15402685E-09     -0.20203275E-07      0.33131172E-17      0.17198617E-08      0.48043100E-18
    0.157001132113         0.58762774E-07     -0.92241313E+00      0.14285248E-09     -0.21397728E-07      0.33138281E-17      0.15854830E-08      0.50124199E-18
    0.163281177398         0.65832996E-07     -0.89751559E+00      0.13262570E-09     -0.22428084E-07      0.33141934E-17      0.14446336E-08      0.52205527E-18
    0.169561222683         0.73564796E-07     -0.87188626E+00      0.12313327E-09     -0.23444771E-07      0.33110184E-17      0.12973994E-08      0.54284862E-18
    0.175841267967         0.82005985E-07     -0.84127730E+00      0.11459583E-09     -0.24316809E-07      0.33123502E-17      0.11446887E-08      0.56365033E-18
    0.182121313252         0.91206450E-07     -0.81103141E+00      0.10670291E-09     -0.25173588E-07      0.33119497E-17      0.98659741E-09      0.58444952E-18
    0.188401358536         0.10121809E-06     -0.77814351E+00      0.99544689E-10     -0.25910541E-07      0.33146286E-17      0.82387804E-09      0.60526554E-18
    0.194681403821         0.11209474E-06     -0.74623321E+00      0.92874195E-10     -0.26630421E-07      0.33143511E-17      0.65663779E-09      0.62607981E-18
    0.200961449105         0.12389210E-06     -0.71348379E+00      0.86720596E-10     -0.27261996E-07      0.33135673E-17      0.48543122E-09      0.64688917E-18
    0.207241494390         0.13666760E-06     -0.68198059E+00      0.81037248E-10     -0.27874272E-07      0.33121973E-17      0.31037953E-09      0.66768991E-18
    0.213521539674         0.15048030E-06     -0.65107564E+00      0.75849309E-10     -0.28438853E-07      0.33130825E-17      0.13178225E-09      0.68849622E-18
    0.219801584959         0.16539075E-06     -0.62143197E+00      0.71045952E-10     -0.28981221E-07      0.33133127E-17     -0.50221130E-10      0.70930398E-18
    0.226081630243         0.18146085E-06     -0.59356948E+00      0.66586893E-10     -0.29527856E-07      0.33124482E-17     -0.23565740E-09      0.73010630E-18
    0.232361675528         0.19875365E-06     -0.56679559E+00      0.62510313E-10     -0.30048289E-07      0.33139425E-17     -0.42436202E-09      0.75091801E-18
    0.238641720812         0.21733318E-06     -0.54282688E+00      0.58696877E-10     -0.30639642E-07      0.33131212E-17     -0.61678036E-09      0.77172456E-18
    0.244921766097         0.23726424E-06     -0.51963172E+00      0.55181575E-10     -0.31199184E-07      0.33131544E-17     -0.81271265E-09      0.79253132E-18
    0.251201811381         0.25861222E-06     -0.50020209E+00      0.51930548E-10     -0.31916440E-07      0.33135373E-17     -0.10131493E-08      0.81334049E-18
    0.257481856666         0.28144279E-06     -0.48111501E+00      0.48907347E-10     -0.32593806E-07      0.33132963E-17     -0.12178399E-08      0.83414814E-18
    0.263761901951         0.30582173E-06     -0.46679340E+00      0.46115066E-10     -0.33544681E-07      0.33139182E-17     -0.14285020E-08      0.85495969E-18
    0.270041947235         0.33181462E-06     -0.45227577E+00      0.43520706E-10     -0.34443739E-07      0.33143845E-17     -0.16448103E-08      0.87577418E-18
    0.276321992520         0.35948656E-06     -0.44366625E+00      0.41117550E-10     -0.35773899E-07      0.33154090E-17     -0.18694720E-08      0.89659510E-18
    0.282602037804         0.38890192E-06     -0.43420522E+00      0.38867530E-10     -0.37034162E-07      0.33150831E-17     -0.21020482E-08      0.91741397E-18
    0.288882083089         0.42012400E-06     -0.43204572E+00      0.36771041E-10     -0.38942987E-07      0.33144043E-17     -0.23466119E-08      0.93822858E-18
    0.295162128373         0.45321473E-06     -0.42823546E+00      0.34816822E-10     -0.40753854E-07      0.33134101E-17     -0.26025480E-08      0.95903694E-18
    0.301442173658         0.48823435E-06     -0.43361052E+00      0.33006260E-10     -0.43527809E-07      0.33133195E-17     -0.28759046E-08      0.97984474E-18
    0.307722218942         0.52524111E-06     -0.43632546E+00      0.31324261E-10     -0.46158649E-07      0.33137776E-17     -0.31657830E-08      0.10006554E-17
    0.314002264227         0.56429086E-06     -0.45109813E+00      0.29748157E-10     -0.50243969E-07      0.33133932E-17     -0.34813174E-08      0.10214637E-17
    0.320282309511         0.60543679E-06     -0.46183617E+00      0.28281200E-10     -0.54108622E-07      0.33134190E-17     -0.38211220E-08      0.10422721E-17
    0.326562354796         0.64872905E-06     -0.48941289E+00      0.26922967E-10     -0.60258083E-07      0.33148419E-17     -0.41995455E-08      0.10630895E-17
    0.332842400080         0.69421440E-06     -0.51085326E+00      0.25642336E-10     -0.66037985E-07      0.33147840E-17     -0.46142670E-08      0.10839064E-17
    0.339122445365         0.74193587E-06     -0.55672557E+00      0.24441341E-10     -0.75490739E-07      0.33141910E-17     -0.50883522E-08      0.11047197E-17
    0.345402490650         0.79193243E-06     -0.59289627E+00      0.23321892E-10     -0.84252744E-07      0.33141268E-17     -0.56174633E-08      0.11255326E-17
    0.351682535934         0.84423861E-06     -0.66789779E+00      0.22296264E-10     -0.99372700E-07      0.33173338E-17     -0.62415284E-08      0.11463656E-17
    0.357962581219         0.89888421E-06     -0.72556360E+00      0.21305208E-10     -0.11292349E-06      0.33158477E-17     -0.69506930E-08      0.11671893E-17
    0.364242626503         0.95589395E-06     -0.85135910E+00      0.20386419E-10     -0.13847597E-06      0.33159088E-17     -0.78203283E-08      0.11880133E-17
    0.370522671788         0.10152872E-05     -0.93581792E+00      0.19530804E-10     -0.15893082E-06      0.33169346E-17     -0.88184211E-08      0.12088438E-17
    0.376802717072         0.10770774E-05     -0.11392156E+01      0.18751997E-10     -0.20182803E-06      0.33221795E-17     -0.10085910E-07      0.12297073E-17
    0.383082762357         0.11412724E-05     -0.11413241E+01      0.17960201E-10     -0.21074068E-06      0.33162753E-17     -0.11409371E-07      0.12505336E-17
    0.389362807641         0.12078734E-05     -0.45200076E+00      0.17239192E-10     -0.86905804E-07      0.33145649E-17     -0.11955144E-07      0.12713492E-17
    0.395642852926         0.12768751E-05      0.10323421E+02      0.16453498E-10      0.20649590E-05      0.32911376E-17      0.10128924E-08      0.12920177E-17
    0.401922898210         0.13482657E-05      0.32659020E+02      0.15679033E-10      0.67901372E-05      0.32598280E-17      0.43655261E-07      0.13124896E-17
    0.408202943495         0.14220259E-05      0.35220897E+02      0.14160229E-10      0.76045666E-05      0.30573442E-17      0.91412284E-07      0.13316899E-17
    0.414482988779         0.14981296E-05      0.17270924E+02      0.14252771E-10      0.38690197E-05      0.31928951E-17      0.11570990E-06      0.13517414E-17
    0.420763034064         0.15765431E-05      0.81357587E+01      0.14030775E-10      0.18893352E-05      0.32583114E-17      0.12757501E-06      0.13722037E-17
    0.427043079349         0.16572251E-05      0.66507179E+01      0.13790719E-10      0.15996354E-05      0.33169536E-17      0.13762080E-06      0.13930343E-17
    0.433323124633         0.17401266E-05      0.59557747E+01      0.13172626E-10      0.14823471E-05      0.32785666E-17      0.14693000E-06      0.14136239E-17
    0.439603169918         0.18251908E-05      0.55336286E+01      0.12758922E-10      0.14239677E-05      0.32832512E-17      0.15587258E-06      0.14342429E-17
    0.445883215202         0.19123531E-05      0.56927966E+01      0.12362382E-10      0.15132661E-05      0.32861833E-17      0.16537596E-06      0.14548802E-17
    0.452163260487         0.20015409E-05      0.79536018E+01      0.11953311E-10      0.21821053E-05      0.32794428E-17      0.17907968E-06      0.14754753E-17
    0.458443305771         0.20926735E-05      0.10488970E+02      0.11275156E-10      0.29675043E-05      0.31899293E-17      0.19771575E-06      0.14955082E-17
    0.464723351056         0.21856626E-05      0.12510036E+02      0.10882521E-10      0.36466146E-05      0.31722019E-17      0.22061665E-06      0.15154298E-17
    0.471003396340         0.22804117E-05      0.13855918E+02      0.10932959E-10      0.41578344E-05      0.32807235E-17      0.24672804E-06      0.15360328E-17
    0.477283441625         0.23768165E-05      0.14240384E+02      0.10658201E-10      0.43952510E-05      0.32896209E-17      0.27433041E-06      0.15566918E-17
    0.483563486909         0.24747652E-05      0.14179336E+02      0.10004479E-10      0.44975819E-05      0.31733478E-17      0.30257543E-06      0.15766206E-17
    0.489843532194         0.25741382E-05      0.14064921E+02      0.97682166E-11      0.45809386E-05      0.31815037E-17      0.33134393E-06      0.15966006E-17
    0.496123577478         0.26748086E-05      0.14075565E+02      0.95444946E-11      0.47033941E-05      0.31893227E-17      0.36088146E-06      0.16166297E-17
    0.502403622763         0.27766424E-05      0.14192950E+02      0.93377930E-11      0.48616372E-05      0.31985571E-17      0.39141276E-06      0.16367167E-17
    0.508683668048         0.28794986E-05      0.14403951E+02      0.87292872E-11      0.50535130E-05      0.30626018E-17      0.42314905E-06      0.16559500E-17
    0.514963713332         0.29832293E-05      0.14662343E+02      0.89548051E-11      0.52644869E-05      0.32152061E-17      0.45621027E-06      0.16761417E-17
    0.521243758617         0.30876806E-05      0.14930258E+02      0.87860295E-11      0.54815261E-05      0.32257212E-17      0.49063450E-06      0.16963993E-17
    0.527523803901         0.31926924E-05      0.15195451E+02      0.86238581E-11      0.56999532E-05      0.32348883E-17      0.52643047E-06      0.17167146E-17
    0.533803849186         0.32980988E-05      0.15425439E+02      0.84789573E-11      0.59069348E-05      0.32468863E-17      0.56352628E-06      0.17371052E-17
    0.540083894470         0.34037289E-05      0.15632331E+02      0.83487200E-11      0.61060471E-05      0.32610413E-17      0.60187254E-06      0.17575847E-17
    0.546363939755         0.35094067E-05      0.15797464E+02      0.73340596E-11      0.62890017E-05      0.29197037E-17      0.64136775E-06      0.17759205E-17
    0.552643985039         0.36149520E-05      0.15944504E+02      0.72144021E-11      0.64641401E-05      0.29248265E-17      0.68196284E-06      0.17942886E-17
    0.558924030324         0.37201804E-05      0.16058759E+02      0.71099337E-11      0.66246950E-05      0.29330499E-17      0.72356623E-06      0.18127083E-17
    0.565204075608         0.38249044E-05      0.16167373E+02      0.70145015E-11      0.67810574E-05      0.29420821E-17      0.76615158E-06      0.18311847E-17
    0.571484120893         0.39289333E-05      0.16252905E+02      0.69252140E-11      0.69253885E-05      0.29508447E-17      0.80964333E-06      0.18497161E-17
    0.577764166177         0.40320740E-05      0.16340320E+02      0.68487133E-11      0.70677490E-05      0.29623035E-17      0.85402911E-06      0.18683195E-17
    0.584044211462         0.41341318E-05      0.16410233E+02      0.77048252E-11      0.71993952E-05      0.33802129E-17      0.89924164E-06      0.18895474E-17
    0.590324256747         0.42349105E-05      0.16482896E+02      0.76457055E-11      0.73287483E-05      0.33994907E-17      0.94526651E-06      0.19108964E-17
    0.596604302031         0.43342134E-05      0.16540210E+02      0.75973109E-11      0.74474503E-05      0.34207906E-17      0.99203684E-06      0.19323791E-17
    0.602884347316         0.44318436E-05      0.16597462E+02      0.66089543E-11      0.75619669E-05      0.30111046E-17      0.10395263E-05      0.19512890E-17
    0.609164392600         0.45276046E-05      0.16639980E+02      0.65702133E-11      0.76653053E-05      0.30266076E-17      0.10876648E-05      0.19702962E-17
    0.615444437885         0.46213012E-05      0.16678686E+02      0.65395721E-11      0.77621123E-05      0.30434588E-17      0.11364112E-05      0.19894092E-17
    0.621724483169         0.47127398E-05      0.16703067E+02      0.65151403E-11      0.78471943E-05      0.30608493E-17      0.11856919E-05      0.20086315E-17
    0.628004528454         0.48017293E-05      0.16720315E+02      0.64939767E-11      0.79235904E-05      0.30774308E-17      0.12354525E-05      0.20279579E-17
    0.634284573738         0.48880813E-05      0.16724056E+02      0.64848198E-11      0.79880094E-05      0.30973826E-17      0.12856175E-05      0.20474096E-17
    0.640564619023         0.49716111E-05      0.16718196E+02      0.64787887E-11      0.80420410E-05      0.31165256E-17      0.13361219E-05      0.20669815E-17
    0.646844664307         0.50521382E-05      0.16700176E+02      0.64775720E-11      0.80842353E-05      0.31356685E-17      0.13868913E-05      0.20866737E-17
    0.653124709592         0.51294867E-05      0.16670928E+02      0.55373204E-11      0.81148454E-05      0.26953808E-17      0.14378529E-05      0.21036008E-17
    0.659404754876         0.52034861E-05      0.16631250E+02      0.55513026E-11      0.81341071E-05      0.27150629E-17      0.14889354E-05      0.21206515E-17
    0.665684800161         0.52739718E-05      0.16579396E+02      0.55693565E-11      0.81410521E-05      0.27347451E-17      0.15400616E-05      0.21378258E-17
    0.671964845445         0.53407857E-05      0.16518984E+02      0.65345715E-11      0.81373800E-05      0.32189808E-17      0.15911647E-05      0.21580412E-17
    0.678244890730         0.54037765E-05      0.16445947E+02      0.65613465E-11      0.81210543E-05      0.32400111E-17      0.16421653E-05      0.21783886E-17
    0.684524936015         0.54628005E-05      0.16366153E+02      0.65930681E-11      0.80949720E-05      0.32610413E-17      0.16930021E-05      0.21988681E-17
    0.690804981299         0.55177220E-05      0.16273656E+02      0.66303537E-11      0.80562357E-05      0.32823412E-17      0.17435956E-05      0.22194813E-17
    0.697085026584         0.55684138E-05      0.16175980E+02      0.66694762E-11      0.80086443E-05      0.33020234E-17      0.17938903E-05      0.22402182E-17
    0.703365071868         0.56147573E-05      0.16065819E+02      0.58015499E-11      0.79486933E-05      0.28703635E-17      0.18438084E-05      0.22582442E-17
    0.709645117153         0.56566434E-05      0.15951768E+02      0.58596695E-11      0.78807777E-05      0.28948988E-17      0.18933001E-05      0.22764243E-17
    0.715925162437         0.56939728E-05      0.15825712E+02      0.59230903E-11      0.78010614E-05      0.29197037E-17      0.19422911E-05      0.22947602E-17
    0.722205207722         0.57266558E-05      0.15696750E+02      0.59881274E-11      0.77142352E-05      0.29428910E-17      0.19907368E-05      0.23132417E-17
    0.728485253006         0.57546134E-05      0.15556507E+02      0.60620678E-11      0.76164071E-05      0.29679655E-17      0.20385682E-05      0.23318806E-17
    0.734765298291         0.57777770E-05      0.15414041E+02      0.61329650E-11      0.75122725E-05      0.29889958E-17      0.20857456E-05      0.23506517E-17
    0.741045343575         0.57960889E-05      0.15261239E+02      0.62136734E-11      0.73981431E-05      0.30121830E-17      0.21322063E-05      0.23695683E-17
    0.747325388860         0.58095025E-05      0.15106537E+02      0.63016679E-11      0.72784149E-05      0.30361791E-17      0.21779151E-05      0.23886356E-17
    0.753605434144         0.58179822E-05      0.14942820E+02      0.55446545E-11      0.71499598E-05      0.26530506E-17      0.22228171E-05      0.24052969E-17
    0.759885479429         0.58215039E-05      0.14776536E+02      0.64886289E-11      0.70162063E-05      0.30809359E-17      0.22668792E-05      0.24246453E-17
    0.766165524714         0.58200549E-05      0.14596767E+02      0.65937049E-11      0.68723274E-05      0.31043927E-17      0.23100378E-05      0.24441411E-17
