 
 # Omega; pulse ft; proj flux t=    500.050000000000     
    0.000000000000         0.16626861E-13      0.00000000E+00      0.00000000E+00      0.00000000E+00      0.00000000E+00      0.00000000E+00      0.00000000E+00
    0.006280045285         0.55619039E-10     -0.17018149E+05     -0.23636082E-08     -0.93414805E-05     -0.12974149E-17     -0.58664920E-07     -0.81478241E-20
    0.012560090569         0.22310564E-09     -0.62543592E+04     -0.27272062E-08     -0.68856237E-05     -0.30024683E-17     -0.10190695E-06     -0.27003461E-19
    0.018840135854         0.50451792E-09     -0.18411478E+04     -0.20983968E-08     -0.30557927E-05     -0.34827545E-17     -0.12109747E-06     -0.48875317E-19
    0.025120181138         0.90326950E-09     -0.10926805E+04     -0.15795522E-08     -0.24351766E-05     -0.35202315E-17     -0.13639048E-06     -0.70982530E-19
    0.031400226423         0.14241628E-08     -0.64587309E+03     -0.12602191E-08     -0.18155855E-05     -0.35425467E-17     -0.14779244E-06     -0.93229884E-19
    0.037680271707         0.20734119E-08     -0.45871296E+03     -0.10429687E-08     -0.15644268E-05     -0.35570134E-17     -0.15761711E-06     -0.11556809E-18
    0.043960316992         0.28586714E-08     -0.32595590E+03     -0.88539068E-09     -0.13137264E-05     -0.35684617E-17     -0.16586738E-06     -0.13797819E-18
    0.050240362276         0.37890711E-08     -0.25221208E+03     -0.76521615E-09     -0.11789314E-05     -0.35768999E-17     -0.17327112E-06     -0.16044128E-18
    0.056520407561         0.48752551E-08     -0.19535632E+03     -0.66861648E-09     -0.10443888E-05     -0.35744713E-17     -0.17982993E-06     -0.18288913E-18
    0.062800452845         0.61294263E-08     -0.15865021E+03     -0.59190721E-09     -0.95971081E-06     -0.35805798E-17     -0.18585696E-06     -0.20537533E-18
    0.069080498130         0.75653939E-08     -0.12894048E+03     -0.52700456E-09     -0.87520146E-06     -0.35771169E-17     -0.19135326E-06     -0.22783979E-18
    0.075360543414         0.91986243E-08     -0.10807623E+03     -0.47317406E-09     -0.81762038E-06     -0.35796656E-17     -0.19648795E-06     -0.25032025E-18
    0.081640588699         0.11046294E-07     -0.90646173E+02     -0.42657693E-09     -0.76015582E-06     -0.35772601E-17     -0.20126177E-06     -0.27278560E-18
    0.087920633984         0.13127346E-07     -0.77660713E+02     -0.38683539E-09     -0.71867107E-06     -0.35797689E-17     -0.20577505E-06     -0.29526671E-18
    0.094200679268         0.15462541E-07     -0.66572268E+02     -0.35100676E-09     -0.67727158E-06     -0.35709599E-17     -0.21002835E-06     -0.31769250E-18
    0.100480724553         0.18074516E-07     -0.57945147E+02     -0.32122194E-09     -0.64601657E-06     -0.35812265E-17     -0.21408536E-06     -0.34018277E-18
    0.106760769837         0.20987836E-07     -0.50461065E+02     -0.29395850E-09     -0.61483000E-06     -0.35816625E-17     -0.21794652E-06     -0.36267577E-18
    0.113040815122         0.24229044E-07     -0.44459881E+02     -0.27007563E-09     -0.59062519E-06     -0.35878069E-17     -0.22165568E-06     -0.38520736E-18
    0.119320860406         0.27826708E-07     -0.39191815E+02     -0.24824350E-09     -0.56647861E-06     -0.35881123E-17     -0.22521319E-06     -0.40774087E-18
    0.125600905691         0.31811467E-07     -0.34872658E+02     -0.22841646E-09     -0.54741747E-06     -0.35855931E-17     -0.22865099E-06     -0.43025856E-18
    0.131880950975         0.36216061E-07     -0.31046218E+02     -0.21029578E-09     -0.52840937E-06     -0.35792528E-17     -0.23196943E-06     -0.45273642E-18
    0.138160996260         0.41075368E-07     -0.27857410E+02     -0.19413766E-09     -0.51330963E-06     -0.35772433E-17     -0.23519304E-06     -0.47520167E-18
    0.144441041544         0.46426423E-07     -0.25011546E+02     -0.17966768E-09     -0.49826207E-06     -0.35792107E-17     -0.23832214E-06     -0.49767928E-18
    0.150721086829         0.52308432E-07     -0.22613611E+02     -0.16648949E-09     -0.48641871E-06     -0.35811886E-17     -0.24137688E-06     -0.52016931E-18
    0.157001132113         0.58762774E-07     -0.20460362E+02     -0.15449000E-09     -0.47463033E-06     -0.35837900E-17     -0.24435758E-06     -0.54267567E-18
    0.163281177398         0.65832996E-07     -0.18635152E+02     -0.14300891E-09     -0.46567519E-06     -0.35736603E-17     -0.24728204E-06     -0.56511842E-18
    0.169561222683         0.73564796E-07     -0.16987204E+02     -0.13333948E-09     -0.45678105E-06     -0.35854603E-17     -0.25015064E-06     -0.58763527E-18
    0.175841267967         0.82005985E-07     -0.15589452E+02     -0.12396798E-09     -0.45060736E-06     -0.35832486E-17     -0.25298048E-06     -0.61013824E-18
    0.182121313252         0.91206450E-07     -0.14320823E+02     -0.11552466E-09     -0.44450375E-06     -0.35857679E-17     -0.25577198E-06     -0.63265702E-18
    0.188401358536         0.10121809E-06     -0.13251156E+02     -0.10742095E-09     -0.44123559E-06     -0.35768915E-17     -0.25854296E-06     -0.65512006E-18
    0.194681403821         0.11209474E-06     -0.12274952E+02     -0.10046102E-09     -0.43804955E-06     -0.35850980E-17     -0.26129393E-06     -0.67763464E-18
    0.200961449105         0.12389210E-06     -0.11464175E+02     -0.93864526E-10     -0.43804259E-06     -0.35865346E-17     -0.26404486E-06     -0.70015824E-18
    0.207241494390         0.13666760E-06     -0.10719490E+02     -0.87604763E-10     -0.43813265E-06     -0.35806283E-17     -0.26679635E-06     -0.72264475E-18
    0.213521539674         0.15048030E-06     -0.10119147E+02     -0.82115957E-10     -0.44200230E-06     -0.35868084E-17     -0.26957215E-06     -0.74517007E-18
    0.219801584959         0.16539075E-06     -0.95631001E+01     -0.76762349E-10     -0.44598657E-06     -0.35799037E-17     -0.27237296E-06     -0.76765202E-18
    0.226081630243         0.18146085E-06     -0.91396848E+01     -0.72117838E-10     -0.45466504E-06     -0.35875920E-17     -0.27522828E-06     -0.79018226E-18
    0.232361675528         0.19875365E-06     -0.87425051E+01     -0.67534562E-10     -0.46347806E-06     -0.35802997E-17     -0.27813894E-06     -0.81266671E-18
    0.238641720812         0.21733318E-06     -0.84739844E+01     -0.63558491E-10     -0.47831059E-06     -0.35875330E-17     -0.28114275E-06     -0.83519658E-18
    0.244921766097         0.23726424E-06     -0.82160452E+01     -0.59527535E-10     -0.49329919E-06     -0.35740900E-17     -0.28424070E-06     -0.85764202E-18
    0.251201811381         0.25861222E-06     -0.80899896E+01     -0.56094081E-10     -0.51619870E-06     -0.35792001E-17     -0.28748245E-06     -0.88011956E-18
    0.257481856666         0.28144279E-06     -0.79602176E+01     -0.52897505E-10     -0.53927603E-06     -0.35836151E-17     -0.29086913E-06     -0.90262483E-18
    0.263761901951         0.30582173E-06     -0.79732301E+01     -0.49948015E-10     -0.57297181E-06     -0.35893614E-17     -0.29446741E-06     -0.92516618E-18
    0.270041947235         0.33181462E-06     -0.79686520E+01     -0.47058479E-10     -0.60686463E-06     -0.35838089E-17     -0.29827855E-06     -0.94767266E-18
    0.276321992520         0.35948656E-06     -0.81271410E+01     -0.44167444E-10     -0.65531134E-06     -0.35613295E-17     -0.30239394E-06     -0.97003797E-18
    0.282602037804         0.38890192E-06     -0.82536224E+01     -0.41785751E-10     -0.70396663E-06     -0.35639835E-17     -0.30681488E-06     -0.99241995E-18
    0.288882083089         0.42012400E-06     -0.85763943E+01     -0.39589306E-10     -0.77304415E-06     -0.35684322E-17     -0.31166963E-06     -0.10148299E-17
    0.295162128373         0.45321473E-06     -0.88510145E+01     -0.37763933E-10     -0.84232387E-06     -0.35938775E-17     -0.31695946E-06     -0.10373996E-17
    0.301442173658         0.48823435E-06     -0.93749163E+01     -0.35595540E-10     -0.94109702E-06     -0.35732432E-17     -0.32286959E-06     -0.10598397E-17
    0.307722218942         0.52524111E-06     -0.98310997E+01     -0.33766408E-10     -0.10400270E-05     -0.35721311E-17     -0.32940101E-06     -0.10822729E-17
    0.314002264227         0.56429086E-06     -0.10622711E+02     -0.32050873E-10     -0.11831730E-05     -0.35698730E-17     -0.33683139E-06     -0.11046918E-17
    0.320282309511         0.60543679E-06     -0.11320814E+02     -0.30488535E-10     -0.13263441E-05     -0.35720300E-17     -0.34516089E-06     -0.11271243E-17
    0.326562354796         0.64872905E-06     -0.12500930E+02     -0.28657766E-10     -0.15391545E-05     -0.35284359E-17     -0.35482685E-06     -0.11492831E-17
    0.332842400080         0.69421440E-06     -0.13550392E+02     -0.27280624E-10     -0.17516588E-05     -0.35265655E-17     -0.36582735E-06     -0.11714301E-17
    0.339122445365         0.74193587E-06     -0.15351636E+02     -0.26387950E-10     -0.20816475E-05     -0.35781469E-17     -0.37890019E-06     -0.11939010E-17
    0.345402490650         0.79193243E-06     -0.16962851E+02     -0.25212561E-10     -0.24104837E-05     -0.35827979E-17     -0.39403814E-06     -0.12164011E-17
    0.351682535934         0.84423861E-06     -0.19882298E+02     -0.23554056E-10     -0.29581737E-05     -0.35044736E-17     -0.41261560E-06     -0.12384094E-17
    0.357962581219         0.89888421E-06     -0.22503183E+02     -0.22490111E-10     -0.35022952E-05     -0.35002608E-17     -0.43461017E-06     -0.12603912E-17
    0.364242626503         0.95589395E-06     -0.27800745E+02     -0.21438603E-10     -0.45218699E-05     -0.34870494E-17     -0.46300772E-06     -0.12822900E-17
    0.370522671788         0.10152872E-05     -0.32556423E+02     -0.20468576E-10     -0.55290875E-05     -0.34761973E-17     -0.49773064E-06     -0.13041207E-17
    0.376802717072         0.10770774E-05     -0.44527862E+02     -0.18208300E-10     -0.78887359E-05     -0.32258561E-17     -0.54727226E-06     -0.13243792E-17
    0.383082762357         0.11412724E-05     -0.55139586E+02     -0.18600702E-10     -0.10181292E-04     -0.34345411E-17     -0.61121123E-06     -0.13459483E-17
    0.389362807641         0.12078734E-05     -0.10123792E+03     -0.17392722E-10     -0.19464929E-04     -0.33440840E-17     -0.73345187E-06     -0.13669493E-17
    0.395642852926         0.12768751E-05     -0.13307750E+03     -0.16582056E-10     -0.26619043E-04     -0.33168525E-17     -0.90062066E-06     -0.13877792E-17
    0.401922898210         0.13482657E-05      0.67609245E+02     -0.17785695E-10      0.14056639E-04     -0.36978241E-17     -0.81234433E-06     -0.14110017E-17
    0.408202943495         0.14220259E-05      0.23266438E+03     -0.24435589E-10      0.50234718E-04     -0.52759038E-17     -0.49686803E-06     -0.14441347E-17
    0.414482988779         0.14981296E-05      0.14933658E+03     -0.20638520E-10      0.33454271E-04     -0.46234259E-17     -0.28677369E-06     -0.14731700E-17
    0.420763034064         0.15765431E-05      0.81089446E+02     -0.17762436E-10      0.18831082E-04     -0.41249005E-17     -0.16851364E-06     -0.14990746E-17
    0.427043079349         0.16572251E-05      0.59426170E+02     -0.14766672E-10      0.14293225E-04     -0.35516906E-17     -0.78751546E-07     -0.15213793E-17
    0.433323124633         0.17401266E-05      0.39361093E+02     -0.15332135E-10      0.97966771E-05     -0.38160520E-17     -0.17227970E-07     -0.15453443E-17
    0.439603169918         0.18251908E-05      0.10703077E+02     -0.14168809E-10      0.27542210E-05     -0.36460572E-17      0.68662322E-10     -0.15682417E-17
    0.445883215202         0.19123531E-05     -0.14335443E+02     -0.13242276E-10     -0.38106649E-05     -0.35200778E-17     -0.23862486E-07     -0.15903480E-17
    0.452163260487         0.20015409E-05      0.31015921E+00     -0.13087845E-10      0.85093531E-07     -0.35907074E-17     -0.23328094E-07     -0.16128978E-17
    0.458443305771         0.20926735E-05      0.13615896E+02     -0.13250005E-10      0.38521639E-05     -0.37486472E-17      0.86366966E-09     -0.16364394E-17
    0.464723351056         0.21856626E-05      0.17482577E+02     -0.12987018E-10      0.50960860E-05     -0.37856524E-17      0.32867320E-07     -0.16602135E-17
    0.471003396340         0.22804117E-05      0.21359665E+02     -0.12128864E-10      0.64095320E-05     -0.36395864E-17      0.73119472E-07     -0.16830703E-17
    0.477283441625         0.23768165E-05      0.21327425E+02     -0.11742278E-10      0.65826443E-05     -0.36242181E-17      0.11445878E-06     -0.17058305E-17
    0.483563486909         0.24747652E-05      0.20470956E+02     -0.11946979E-10      0.64932376E-05     -0.37894945E-17      0.15523660E-06     -0.17296287E-17
    0.489843532194         0.25741382E-05      0.18713829E+02     -0.11552158E-10      0.60950857E-05     -0.37625326E-17      0.19351402E-06     -0.17532576E-17
    0.496123577478         0.26748086E-05      0.17190192E+02     -0.11188901E-10      0.57441562E-05     -0.37388061E-17      0.22958758E-06     -0.17767375E-17
    0.502403622763         0.27766424E-05      0.15266024E+02     -0.10837059E-10      0.52292068E-05     -0.37121139E-17      0.26242723E-06     -0.18000497E-17
    0.508683668048         0.28794986E-05      0.13563158E+02     -0.10903540E-10      0.47585273E-05     -0.38254212E-17      0.29231100E-06     -0.18240735E-17
    0.514963713332         0.29832293E-05      0.11799545E+02     -0.10214297E-10      0.42366047E-05     -0.36674245E-17      0.31891707E-06     -0.18471051E-17
    0.521243758617         0.30876806E-05      0.10043490E+02     -0.99327518E-11      0.36873881E-05     -0.36467313E-17      0.34207403E-06     -0.18700068E-17
    0.527523803901         0.31926924E-05      0.85309545E+01     -0.96853085E-11      0.32000393E-05     -0.36330481E-17      0.36217043E-06     -0.18928225E-17
    0.533803849186         0.32980988E-05      0.69943334E+01     -0.94498921E-11      0.26783724E-05     -0.36186909E-17      0.37899073E-06     -0.19155480E-17
    0.540083894470         0.34037289E-05      0.58071718E+01     -0.92388992E-11      0.22683031E-05     -0.36087487E-17      0.39323577E-06     -0.19382111E-17
    0.546363939755         0.35094067E-05      0.46387288E+01     -0.93080215E-11      0.18466872E-05     -0.37055419E-17      0.40483305E-06     -0.19614821E-17
    0.552643985039         0.36149520E-05      0.38909213E+01     -0.90862528E-11      0.15774377E-05     -0.36837028E-17      0.41473943E-06     -0.19846159E-17
    0.558924030324         0.37201804E-05      0.31663852E+01     -0.88794108E-11      0.13062240E-05     -0.36630095E-17      0.42294258E-06     -0.20076198E-17
    0.565204075608         0.38249044E-05      0.29137052E+01     -0.87070586E-11      0.12220911E-05     -0.36519888E-17      0.43061736E-06     -0.20305544E-17
    0.571484120893         0.39289333E-05      0.26597341E+01     -0.85566209E-11      0.11333169E-05     -0.36459898E-17      0.43773464E-06     -0.20534514E-17
    0.577764166177         0.40320740E-05      0.28666622E+01     -0.84341964E-11      0.12399298E-05     -0.36480794E-17      0.44552146E-06     -0.20763615E-17
    0.584044211462         0.41341318E-05      0.30469058E+01     -0.81560709E-11      0.13367195E-05     -0.35781806E-17      0.45391612E-06     -0.20988326E-17
    0.590324256747         0.42349105E-05      0.36203364E+01     -0.80331148E-11      0.16097010E-05     -0.35717435E-17      0.46402511E-06     -0.21212634E-17
    0.596604302031         0.43342134E-05      0.41511604E+01     -0.79107093E-11      0.18691153E-05     -0.35619024E-17      0.47576324E-06     -0.21436323E-17
    0.602884347316         0.44318436E-05      0.49822213E+01     -0.80765587E-11      0.22699490E-05     -0.36797596E-17      0.49001863E-06     -0.21667413E-17
    0.609164392600         0.45276046E-05      0.57632915E+01     -0.80090113E-11      0.26548943E-05     -0.36893985E-17      0.50669148E-06     -0.21899109E-17
    0.615444437885         0.46213012E-05      0.67497614E+01     -0.79499715E-11      0.31412791E-05     -0.36998462E-17      0.52641886E-06     -0.22131461E-17
    0.621724483169         0.47127398E-05      0.76845375E+01     -0.78883270E-11      0.36102386E-05     -0.37059800E-17      0.54909132E-06     -0.22364198E-17
    0.628004528454         0.48017293E-05      0.87373007E+01     -0.78347036E-11      0.41405197E-05     -0.37127879E-17      0.57509397E-06     -0.22597363E-17
    0.634284573738         0.48880813E-05      0.97405381E+01     -0.77766469E-11      0.46524305E-05     -0.37144056E-17      0.60431144E-06     -0.22830630E-17
    0.640564619023         0.49716111E-05      0.10783998E+02     -0.77242138E-11      0.51874829E-05     -0.37156189E-17      0.63688907E-06     -0.23063972E-17
    0.646844664307         0.50521382E-05      0.11782913E+02     -0.76722747E-11      0.57038825E-05     -0.37140012E-17      0.67270971E-06     -0.23297213E-17
    0.653124709592         0.51294867E-05      0.12754369E+02     -0.83428149E-11      0.62083965E-05     -0.40610008E-17      0.71169872E-06     -0.23552246E-17
    0.659404754876         0.52034861E-05      0.13688211E+02     -0.83451459E-11      0.66947086E-05     -0.40814918E-17      0.75374180E-06     -0.23808565E-17
    0.665684800161         0.52739718E-05      0.14537479E+02     -0.83430531E-11      0.71384010E-05     -0.40967253E-17      0.79857128E-06     -0.24065841E-17
    0.671964845445         0.53407857E-05      0.15357184E+02     -0.74644849E-11      0.75650684E-05     -0.36770634E-17      0.84608025E-06     -0.24296763E-17
    0.678244890730         0.54037765E-05      0.16046498E+02     -0.74103848E-11      0.79238050E-05     -0.36592685E-17      0.89584210E-06     -0.24526566E-17
    0.684524936015         0.54628005E-05      0.16714640E+02     -0.73660297E-11      0.82673392E-05     -0.36433610E-17      0.94776137E-06     -0.24755371E-17
    0.690804981299         0.55177220E-05      0.17218527E+02     -0.73171350E-11      0.85239917E-05     -0.36223307E-17      0.10012924E-05     -0.24982855E-17
    0.697085026584         0.55684138E-05      0.17709295E+02     -0.72761388E-11      0.87677811E-05     -0.36023789E-17      0.10563545E-05     -0.25209086E-17
    0.703365071868         0.56147573E-05      0.18014143E+02     -0.82592795E-11      0.89126419E-05     -0.40863450E-17      0.11123263E-05     -0.25465710E-17
    0.709645117153         0.56566434E-05      0.18313046E+02     -0.82352997E-11      0.90473387E-05     -0.40685501E-17      0.11691440E-05     -0.25721217E-17
    0.715925162437         0.56939728E-05      0.18416196E+02     -0.82094064E-11      0.90780040E-05     -0.40467110E-17      0.12261543E-05     -0.25975353E-17
    0.722205207722         0.57266558E-05      0.18519321E+02     -0.81919119E-11      0.91013997E-05     -0.40259503E-17      0.12833115E-05     -0.26228184E-17
    0.728485253006         0.57546134E-05      0.18427749E+02     -0.81690328E-11      0.90221566E-05     -0.39995277E-17      0.13399710E-05     -0.26479356E-17
    0.734765298291         0.57777770E-05      0.18340608E+02     -0.81522075E-11      0.89385805E-05     -0.39731050E-17      0.13961057E-05     -0.26728869E-17
    0.741045343575         0.57960889E-05      0.18069414E+02     -0.81352847E-11      0.87594531E-05     -0.39437165E-17      0.14511155E-05     -0.26976536E-17
    0.747325388860         0.58095025E-05      0.17805604E+02     -0.81231694E-11      0.85788403E-05     -0.39137888E-17      0.15049910E-05     -0.27222324E-17
    0.753605434144         0.58179822E-05      0.17377008E+02     -0.91064189E-11      0.83146897E-05     -0.43573120E-17      0.15572076E-05     -0.27495965E-17
    0.759885479429         0.58215039E-05      0.16956905E+02     -0.81177421E-11      0.80514909E-05     -0.38544727E-17      0.16077713E-05     -0.27738028E-17
    0.766165524714         0.58200549E-05      0.16394310E+02     -0.81198664E-11      0.77186313E-05     -0.38229272E-17      0.16562447E-05     -0.27978109E-17
