 
 # Omega; pulse ft; proj flux t=    500.050000000000     
    0.000000000000         0.16626861E-13      0.00000000E+00      0.00000000E+00      0.00000000E+00      0.00000000E+00      0.00000000E+00      0.00000000E+00
    0.006280045285         0.55619039E-10      0.18119643E+05      0.10087496E-07      0.99461043E-05      0.55371562E-17      0.62461985E-07      0.34773592E-19
    0.012560090569         0.22310564E-09      0.66615593E+04      0.11892223E-07      0.73339232E-05      0.13092528E-16      0.10851935E-06      0.11699526E-18
    0.018840135854         0.50451792E-09      0.20002077E+04      0.90839152E-08      0.33197879E-05      0.15076770E-16      0.12936777E-06      0.21167806E-18
    0.025120181138         0.90326950E-09      0.11894353E+04      0.68471157E-08      0.26508069E-05      0.15259662E-16      0.14601496E-06      0.30750943E-18
    0.031400226423         0.14241628E-08      0.70536336E+03      0.54768711E-08      0.19828161E-05      0.15395792E-16      0.15846714E-06      0.40419570E-18
    0.037680271707         0.20734119E-08      0.50148982E+03      0.45338660E-08      0.17103160E-05      0.15462614E-16      0.16920800E-06      0.50130162E-18
    0.043960316992         0.28586714E-08      0.35685386E+03      0.38461886E-08      0.14382570E-05      0.15501605E-16      0.17824032E-06      0.59865240E-18
    0.050240362276         0.37890711E-08      0.27593774E+03      0.33216942E-08      0.12898338E-05      0.15526813E-16      0.18634053E-06      0.69616149E-18
    0.056520407561         0.48752551E-08      0.21355281E+03      0.29065413E-08      0.11416685E-05      0.15538577E-16      0.19351026E-06      0.79374445E-18
    0.062800452845         0.61294263E-08      0.17343080E+03      0.25701221E-08      0.10491219E-05      0.15547247E-16      0.20009879E-06      0.89138187E-18
    0.069080498130         0.75653939E-08      0.14095247E+03      0.22907642E-08      0.95673451E-06      0.15548881E-16      0.20610713E-06      0.98902954E-18
    0.075360543414         0.91986243E-08      0.11805002E+03      0.20580007E-08      0.89307428E-06      0.15569227E-16      0.21171568E-06      0.10868050E-17
    0.081640588699         0.11046294E-07      0.98918510E+02      0.18563383E-08      0.82952737E-06      0.15567192E-16      0.21692515E-06      0.11845677E-17
    0.087920633984         0.13127346E-07      0.84609455E+02      0.16829186E-08      0.78297462E-06      0.15573703E-16      0.22184226E-06      0.12823712E-17
    0.094200679268         0.15462541E-07      0.72395077E+02      0.15304275E-08      0.73650980E-06      0.15569773E-16      0.22646758E-06      0.13801501E-17
    0.100480724553         0.18074516E-07      0.62888366E+02      0.13975397E-08      0.70112734E-06      0.15580835E-16      0.23087069E-06      0.14779985E-17
    0.106760769837         0.20987836E-07      0.54645668E+02      0.12789313E-08      0.66581623E-06      0.15582813E-16      0.23505204E-06      0.15758592E-17
    0.113040815122         0.24229044E-07      0.48034084E+02      0.11733658E-08      0.63810653E-06      0.15587523E-16      0.23905938E-06      0.16737496E-17
    0.119320860406         0.27826708E-07      0.42234665E+02      0.10783860E-08      0.61045997E-06      0.15586994E-16      0.24289310E-06      0.17716366E-17
    0.125600905691         0.31811467E-07      0.37480207E+02      0.99288531E-09      0.58834975E-06      0.15585929E-16      0.24658796E-06      0.18695169E-17
    0.131880950975         0.36216061E-07      0.33272453E+02      0.91543264E-09      0.56630010E-06      0.15580745E-16      0.25014435E-06      0.19673647E-17
    0.138160996260         0.41075368E-07      0.29769780E+02      0.84550042E-09      0.54854759E-06      0.15579464E-16      0.25358926E-06      0.20652045E-17
    0.144441041544         0.46426423E-07      0.26647736E+02      0.78213733E-09      0.53085707E-06      0.15581179E-16      0.25692306E-06      0.21630550E-17
    0.150721086829         0.52308432E-07      0.24022539E+02      0.72467390E-09      0.51672476E-06      0.15587734E-16      0.26016812E-06      0.22609466E-17
    0.157001132113         0.58762774E-07      0.21668638E+02      0.67197011E-09      0.50265938E-06      0.15588062E-16      0.26332484E-06      0.23588404E-17
    0.163281177398         0.65832996E-07      0.19678886E+02      0.62341663E-09      0.49175716E-06      0.15578605E-16      0.26641310E-06      0.24566747E-17
    0.169561222683         0.73564796E-07      0.17885285E+02      0.57976105E-09      0.48093018E-06      0.15589608E-16      0.26943336E-06      0.25545782E-17
    0.175841267967         0.82005985E-07      0.16369042E+02      0.53920736E-09      0.47314111E-06      0.15585589E-16      0.27240471E-06      0.26524564E-17
    0.182121313252         0.91206450E-07      0.14995301E+02      0.50216945E-09      0.46543888E-06      0.15586828E-16      0.27532769E-06      0.27503424E-17
    0.188401358536         0.10121809E-06      0.13841348E+02      0.46800761E-09      0.46088777E-06      0.15583668E-16      0.27822208E-06      0.28482085E-17
    0.194681403821         0.11209474E-06      0.12790240E+02      0.43690525E-09      0.45643837E-06      0.15591601E-16      0.28108854E-06      0.29461245E-17
    0.200961449105         0.12389210E-06      0.11920861E+02      0.40811608E-09      0.45549241E-06      0.15593990E-16      0.28394905E-06      0.30440554E-17
    0.207241494390         0.13666760E-06      0.11124009E+02      0.38137567E-09      0.45466640E-06      0.15587789E-16      0.28680437E-06      0.31419475E-17
    0.213521539674         0.15048030E-06      0.10484559E+02      0.35698617E-09      0.45796342E-06      0.15593084E-16      0.28968041E-06      0.32398727E-17
    0.219801584959         0.16539075E-06      0.98936467E+01      0.33420627E-09      0.46140201E-06      0.15586108E-16      0.29257803E-06      0.33377542E-17
    0.226081630243         0.18146085E-06      0.94461549E+01      0.31349708E-09      0.46991078E-06      0.15595304E-16      0.29552909E-06      0.34356934E-17
    0.232361675528         0.19875365E-06      0.90274844E+01      0.29401024E-09      0.47858605E-06      0.15586756E-16      0.29853463E-06      0.35335789E-17
    0.238641720812         0.21733318E-06      0.87467668E+01      0.27626754E-09      0.49370767E-06      0.15593809E-16      0.30163514E-06      0.36315088E-17
    0.244921766097         0.23726424E-06      0.84779407E+01      0.25951690E-09      0.50902365E-06      0.15581642E-16      0.30483183E-06      0.37293622E-17
    0.251201811381         0.25861222E-06      0.83494511E+01      0.24428136E-09      0.53275419E-06      0.15586883E-16      0.30817755E-06      0.38272485E-17
    0.257481856666         0.28144279E-06      0.82175447E+01      0.23014964E-09      0.55670901E-06      0.15591808E-16      0.31167371E-06      0.39251658E-17
    0.263761901951         0.30582173E-06      0.82366389E+01      0.21706640E-09      0.59190088E-06      0.15598813E-16      0.31539087E-06      0.40231270E-17
    0.270041947235         0.33181462E-06      0.82376044E+01      0.20475386E-09      0.62734709E-06      0.15593337E-16      0.31933064E-06      0.41210539E-17
    0.276321992520         0.35948656E-06      0.84102576E+01      0.19310811E-09      0.67813972E-06      0.15570781E-16      0.32358939E-06      0.42188391E-17
    0.282602037804         0.38890192E-06      0.85496214E+01      0.18258564E-09      0.72921293E-06      0.15573065E-16      0.32816888E-06      0.43166387E-17
    0.288882083089         0.42012400E-06      0.88950945E+01      0.17281855E-09      0.80177059E-06      0.15577219E-16      0.33320404E-06      0.44144643E-17
    0.295162128373         0.45321473E-06      0.91904073E+01      0.16394632E-09      0.87462284E-06      0.15602268E-16      0.33869671E-06      0.45124472E-17
    0.301442173658         0.48823435E-06      0.97471334E+01      0.15519178E-09      0.97846188E-06      0.15578862E-16      0.34484149E-06      0.46102832E-17
    0.307722218942         0.52524111E-06      0.10233335E+02      0.14726293E-09      0.10825793E-05      0.15578870E-16      0.35164014E-06      0.47081192E-17
    0.314002264227         0.56429086E-06      0.11071070E+02      0.13984772E-09      0.12331119E-05      0.15576443E-16      0.35938414E-06      0.48059400E-17
    0.320282309511         0.60543679E-06      0.11811530E+02      0.13296957E-09      0.13838362E-05      0.15578685E-16      0.36807469E-06      0.49037748E-17
    0.326562354796         0.64872905E-06      0.13057356E+02      0.12616449E-09      0.16076635E-05      0.15533776E-16      0.37817089E-06      0.50013276E-17
    0.332842400080         0.69421440E-06      0.14167457E+02      0.12014636E-09      0.18314267E-05      0.15531316E-16      0.38967234E-06      0.50988650E-17
    0.339122445365         0.74193587E-06      0.16066529E+02      0.11496899E-09      0.21785854E-05      0.15589537E-16      0.40335395E-06      0.51967680E-17
    0.345402490650         0.79193243E-06      0.17768603E+02      0.10973999E-09      0.25249839E-05      0.15594457E-16      0.41921096E-06      0.52947019E-17
    0.351682535934         0.84423861E-06      0.20845919E+02      0.10426480E-09      0.31015452E-05      0.15512965E-16      0.43868881E-06      0.53921240E-17
    0.357962581219         0.89888421E-06      0.23615012E+02      0.99614099E-10      0.36753352E-05      0.15503495E-16      0.46177008E-06      0.54894867E-17
    0.364242626503         0.95589395E-06      0.29206100E+02      0.95228623E-10      0.47504548E-05      0.15489205E-16      0.49160315E-06      0.55867596E-17
    0.370522671788         0.10152872E-05      0.34244594E+02      0.91135410E-10      0.58157912E-05      0.15477611E-16      0.52812658E-06      0.56839597E-17
    0.376802717072         0.10770774E-05      0.46940686E+02      0.85882394E-10      0.83162016E-05      0.15215272E-16      0.58035271E-06      0.57795123E-17
    0.383082762357         0.11412724E-05      0.58323826E+02      0.83590360E-10      0.10769248E-04      0.15434607E-16      0.64798407E-06      0.58764423E-17
    0.389362807641         0.12078734E-05      0.10838534E+03      0.79764204E-10      0.20839158E-04      0.15336196E-16      0.77885493E-06      0.59727543E-17
    0.395642852926         0.12768751E-05      0.15121796E+03      0.76432197E-10      0.30247617E-04      0.15288474E-16      0.96881133E-06      0.60687666E-17
    0.401922898210         0.13482657E-05     -0.46382952E+02      0.75380742E-10     -0.96434803E-05      0.15672411E-16      0.90824984E-06      0.61671901E-17
    0.408202943495         0.14220259E-05     -0.22137643E+03      0.79670409E-10     -0.47797528E-04      0.17201690E-16      0.60807920E-06      0.62752175E-17
    0.414482988779         0.14981296E-05     -0.14607769E+03      0.74141246E-10     -0.32724217E-04      0.16609067E-16      0.40256963E-06      0.63795232E-17
    0.420763034064         0.15765431E-05     -0.80050138E+02      0.69440571E-10     -0.18589728E-04      0.16125910E-16      0.28582530E-06      0.64807946E-17
    0.427043079349         0.16572251E-05     -0.57846967E+02      0.64695132E-10     -0.13913394E-04      0.15560519E-16      0.19844855E-06      0.65785154E-17
    0.433323124633         0.17401266E-05     -0.36803623E+02      0.63520006E-10     -0.91601423E-05      0.15809647E-16      0.14092245E-06      0.66778007E-17
    0.439603169918         0.18251908E-05     -0.69375257E+01      0.60755331E-10     -0.17852323E-05      0.15634159E-16      0.12971111E-06      0.67759839E-17
    0.445883215202         0.19123531E-05      0.19165719E+02      0.58331130E-10      0.50946547E-05      0.15505652E-16      0.16170577E-06      0.68733601E-17
    0.452163260487         0.20015409E-05      0.52027344E+01      0.56779760E-10      0.14273929E-05      0.15577775E-16      0.17066986E-06      0.69711892E-17
    0.458443305771         0.20926735E-05     -0.54815928E+01      0.55361788E-10     -0.15508339E-05      0.15662772E-16      0.16093055E-06      0.70695521E-17
    0.464723351056         0.21856626E-05     -0.46312570E+01      0.53692415E-10     -0.13499889E-05      0.15651077E-16      0.15245256E-06      0.71678416E-17
    0.471003396340         0.22804117E-05     -0.34387984E+01      0.52010513E-10     -0.10319024E-05      0.15607129E-16      0.14597217E-06      0.72658551E-17
    0.477283441625         0.23768165E-05      0.14764393E+00      0.50538354E-10      0.45569845E-07      0.15598508E-16      0.14625835E-06      0.73638144E-17
    0.483563486909         0.24747652E-05      0.25787589E+01      0.49095242E-10      0.81796348E-06      0.15572652E-16      0.15139520E-06      0.74616114E-17
    0.489843532194         0.25741382E-05      0.52276565E+01      0.47735743E-10      0.17026454E-05      0.15547510E-16      0.16208789E-06      0.75592505E-17
    0.496123577478         0.26748086E-05      0.78405764E+01      0.46469602E-10      0.26199531E-05      0.15527963E-16      0.17854131E-06      0.76567668E-17
    0.502403622763         0.27766424E-05      0.11191287E+02      0.45270970E-10      0.38334508E-05      0.15507067E-16      0.20261556E-06      0.77541518E-17
    0.508683668048         0.28794986E-05      0.14402705E+02      0.43747493E-10      0.50530759E-05      0.15348464E-16      0.23434910E-06      0.78505409E-17
    0.514963713332         0.29832293E-05      0.17515876E+02      0.43115227E-10      0.62890426E-05      0.15480442E-16      0.27384457E-06      0.79477588E-17
    0.521243758617         0.30876806E-05      0.20301768E+02      0.42159209E-10      0.74536337E-05      0.15478420E-16      0.32065373E-06      0.80449640E-17
    0.527523803901         0.31926924E-05      0.22492484E+02      0.41278149E-10      0.84371371E-05      0.15483813E-16      0.37363933E-06      0.81422030E-17
    0.533803849186         0.32980988E-05      0.24425319E+02      0.40462422E-10      0.93533003E-05      0.15494462E-16      0.43237848E-06      0.82395089E-17
    0.540083894470         0.34037289E-05      0.25804007E+02      0.39719751E-10      0.10079142E-04      0.15514684E-16      0.49567595E-06      0.83369418E-17
    0.546363939755         0.35094067E-05      0.27045401E+02      0.37492493E-10      0.10766828E-04      0.14925836E-16      0.56329212E-06      0.84306768E-17
    0.552643985039         0.36149520E-05      0.27780858E+02      0.36805555E-10      0.11262775E-04      0.14921522E-16      0.63402286E-06      0.85243846E-17
    0.558924030324         0.37201804E-05      0.28445163E+02      0.36176775E-10      0.11734439E-04      0.14923949E-16      0.70771566E-06      0.86181077E-17
    0.565204075608         0.38249044E-05      0.28581688E+02      0.35611837E-10      0.11987975E-04      0.14936621E-16      0.78300069E-06      0.87119103E-17
    0.571484120893         0.39289333E-05      0.28683338E+02      0.35099056E-10      0.12222016E-04      0.14955764E-16      0.85975551E-06      0.88058332E-17
    0.577764166177         0.40320740E-05      0.28270689E+02      0.34652482E-10      0.12228043E-04      0.14988388E-16      0.93654817E-06      0.88999610E-17
    0.584044211462         0.41341318E-05      0.27851604E+02      0.35822490E-10      0.12218882E-04      0.15715820E-16      0.10132833E-05      0.89986570E-17
    0.590324256747         0.42349105E-05      0.26992223E+02      0.35407284E-10      0.12001484E-04      0.15743051E-16      0.10886532E-05      0.90975241E-17
    0.596604302031         0.43342134E-05      0.26149114E+02      0.35023379E-10      0.11773987E-04      0.15769743E-16      0.11625943E-05      0.91965588E-17
    0.602884347316         0.44318436E-05      0.24969275E+02      0.33243016E-10      0.11376247E-04      0.15145845E-16      0.12340377E-05      0.92916754E-17
    0.609164392600         0.45276046E-05      0.23820593E+02      0.32976612E-10      0.10973097E-04      0.15190872E-16      0.13029492E-05      0.93870747E-17
    0.615444437885         0.46213012E-05      0.22440146E+02      0.32744208E-10      0.10443445E-04      0.15238864E-16      0.13685345E-05      0.94827755E-17
    0.621724483169         0.47127398E-05      0.21098174E+02      0.32527207E-10      0.99120400E-05      0.15281463E-16      0.14307826E-05      0.95787438E-17
    0.628004528454         0.48017293E-05      0.19619863E+02      0.32337888E-10      0.92976576E-05      0.15324603E-16      0.14891723E-05      0.96749830E-17
    0.634284573738         0.48880813E-05      0.18181634E+02      0.32167258E-10      0.86842008E-05      0.15364236E-16      0.15437095E-05      0.97714711E-17
    0.640564619023         0.49716111E-05      0.16691219E+02      0.32018410E-10      0.80290642E-05      0.15401983E-16      0.15941324E-05      0.98681962E-17
    0.646844664307         0.50521382E-05      0.15238675E+02      0.31888814E-10      0.73767505E-05      0.15436764E-16      0.16404587E-05      0.99651398E-17
    0.653124709592         0.51294867E-05      0.13807073E+02      0.30993098E-10      0.67208171E-05      0.15086394E-16      0.16826657E-05      0.10059883E-16
    0.659404754876         0.52034861E-05      0.12408732E+02      0.30984207E-10      0.60689338E-05      0.15153934E-16      0.17207789E-05      0.10155050E-16
    0.665684800161         0.52739718E-05      0.11093244E+02      0.30982051E-10      0.54471633E-05      0.15213250E-16      0.17549873E-05      0.10250590E-16
    0.671964845445         0.53407857E-05      0.98050321E+01      0.31554389E-10      0.48300351E-05      0.15543938E-16      0.17853202E-05      0.10348207E-16
    0.678244890730         0.54037765E-05      0.86496518E+01      0.31509151E-10      0.42712220E-05      0.15559306E-16      0.18121437E-05      0.10445920E-16
    0.684524936015         0.54628005E-05      0.75149860E+01      0.31490554E-10      0.37170373E-05      0.15575753E-16      0.18354868E-05      0.10543737E-16
    0.690804981299         0.55177220E-05      0.65504661E+01      0.31486283E-10      0.32427931E-05      0.15587211E-16      0.18558517E-05      0.10641625E-16
    0.697085026584         0.55684138E-05      0.56001831E+01      0.31501390E-10      0.27726219E-05      0.15596176E-16      0.18732639E-05      0.10739570E-16
    0.703365071868         0.56147573E-05      0.48444018E+01      0.31259624E-10      0.23968068E-05      0.15465950E-16      0.18883159E-05      0.10836696E-16
    0.709645117153         0.56566434E-05      0.40970043E+01      0.31354717E-10      0.20240753E-05      0.15490418E-16      0.19010272E-05      0.10933977E-16
    0.715925162437         0.56939728E-05      0.35558773E+01      0.31466246E-10      0.17528195E-05      0.15510842E-16      0.19120350E-05      0.11031386E-16
    0.722205207722         0.57266558E-05      0.30183093E+01      0.31598481E-10      0.14833611E-05      0.15529210E-16      0.19213506E-05      0.11128910E-16
    0.728485253006         0.57546134E-05      0.26872113E+01      0.31741943E-10      0.13156485E-05      0.15540736E-16      0.19296129E-05      0.11226506E-16
    0.734765298291         0.57777770E-05      0.23561228E+01      0.31902303E-10      0.11482931E-05      0.15548083E-16      0.19368243E-05      0.11324149E-16
    0.741045343575         0.57960889E-05      0.22216224E+01      0.32086042E-10      0.10769689E-05      0.15554250E-16      0.19435877E-05      0.11421831E-16
    0.747325388860         0.58095025E-05      0.20849216E+01      0.32293390E-10      0.10045270E-05      0.15559137E-16      0.19498961E-05      0.11519543E-16
    0.753605434144         0.58179822E-05      0.21266091E+01      0.32402913E-10      0.10175569E-05      0.15504405E-16      0.19562865E-05      0.11616911E-16
    0.759885479429         0.58215039E-05      0.21651204E+01      0.32780650E-10      0.10280441E-05      0.15564934E-16      0.19627426E-05      0.11714659E-16
    0.766165524714         0.58200549E-05      0.23507336E+01      0.33058290E-10      0.11067526E-05      0.15564226E-16      0.19696931E-05      0.11812404E-16
