 
 # six columns.
 # Omega (column 1); |pulse ft|^2 (2); cross section (Mb) (3); flux (column 5)
 
  0.0000      0.784881E-07      0.000000E+00      0.000000E+00      0.506775E-05      0.241333E-14
  0.0157      0.845276E-07      0.123813E+01      0.574321E-09      0.520213E-05      0.241307E-14
  0.0313      0.102746E-06      0.209250E+01      0.944982E-09      0.534341E-05      0.241311E-14
  0.0470      0.133447E-06      0.248420E+01      0.109156E-08      0.549276E-05      0.241351E-14
  0.0627      0.177134E-06      0.256693E+01      0.109627E-08      0.565030E-05      0.241310E-14
  0.0783      0.234521E-06      0.249484E+01      0.103518E-08      0.581663E-05      0.241349E-14
  0.0940      0.306534E-06      0.235971E+01      0.950231E-09      0.599243E-05      0.241309E-14
  0.1097      0.394319E-06      0.220656E+01      0.861865E-09      0.617849E-05      0.241327E-14
  0.1254      0.499245E-06      0.205535E+01      0.777811E-09      0.637570E-05      0.241276E-14
  0.1410      0.622922E-06      0.191403E+01      0.701441E-09      0.658504E-05      0.241323E-14
  0.1567      0.767203E-06      0.178512E+01      0.632866E-09      0.680761E-05      0.241345E-14
  0.1724      0.934196E-06      0.166878E+01      0.571637E-09      0.704469E-05      0.241314E-14
  0.1880      0.112628E-05      0.156424E+01      0.517204E-09      0.729769E-05      0.241293E-14
  0.2037      0.134611E-05      0.147041E+01      0.468809E-09      0.756820E-05      0.241297E-14
  0.2194      0.159664E-05      0.138618E+01      0.425673E-09      0.785807E-05      0.241309E-14
  0.2350      0.188113E-05      0.131054E+01      0.387091E-09      0.816946E-05      0.241300E-14
  0.2507      0.220315E-05      0.124258E+01      0.352565E-09      0.850481E-05      0.241313E-14
  0.2664      0.256660E-05      0.118154E+01      0.321546E-09      0.886695E-05      0.241306E-14
  0.2820      0.297573E-05      0.112677E+01      0.293642E-09      0.925923E-05      0.241299E-14
  0.2977      0.343515E-05      0.107775E+01      0.268525E-09      0.968561E-05      0.241320E-14
  0.3134      0.394982E-05      0.103404E+01      0.245821E-09      0.101508E-04      0.241314E-14
  0.3290      0.452508E-05      0.995286E+00      0.225300E-09      0.106604E-04      0.241316E-14
  0.3447      0.516666E-05      0.961255E+00      0.206692E-09      0.112213E-04      0.241283E-14
  0.3604      0.588068E-05      0.931768E+00      0.189883E-09      0.118420E-04      0.241325E-14
  0.3761      0.667365E-05      0.906740E+00      0.174587E-09      0.125329E-04      0.241313E-14
  0.3917      0.755246E-05      0.886198E+00      0.160712E-09      0.133075E-04      0.241332E-14
  0.4074      0.852443E-05      0.870280E+00      0.148070E-09      0.141830E-04      0.241311E-14
  0.4231      0.959726E-05      0.859295E+00      0.136598E-09      0.151825E-04      0.241349E-14
  0.4387      0.107791E-04      0.853771E+00      0.126119E-09      0.163373E-04      0.241336E-14
  0.4544      0.120783E-04      0.854545E+00      0.116565E-09      0.176913E-04      0.241320E-14
  0.4701      0.135038E-04      0.863019E+00      0.107843E-09      0.193096E-04      0.241293E-14
  0.4857      0.150649E-04      0.881558E+00      0.999146E-10      0.212947E-04      0.241352E-14
  0.5014      0.167711E-04      0.914292E+00      0.926332E-10      0.238184E-04      0.241321E-14
  0.5171      0.186323E-04      0.969111E+00      0.859953E-10      0.271983E-04      0.241348E-14
  0.5327      0.206587E-04      0.106253E+01      0.799092E-10      0.320909E-04      0.241345E-14
  0.5484      0.228609E-04      0.123011E+01      0.743391E-10      0.399382E-04      0.241357E-14
  0.5641      0.252496E-04      0.154207E+01      0.692198E-10      0.537618E-04      0.241323E-14
  0.5797      0.278358E-04      0.211136E+01      0.645330E-10      0.789552E-04      0.241324E-14
  0.5954      0.306307E-04      0.308061E+01      0.602395E-10      0.123432E-03      0.241364E-14
  0.6111      0.336456E-04      0.460312E+01      0.563068E-10      0.197394E-03      0.241458E-14
  0.6268      0.368920E-04      0.678657E+01      0.526954E-10      0.311128E-03      0.241581E-14
  0.6424      0.403813E-04      0.938956E+01      0.492545E-10      0.459684E-03      0.241135E-14
  0.6581      0.441252E-04      0.114001E+02      0.460254E-10      0.595335E-03      0.240354E-14
  0.6738      0.481351E-04      0.118882E+02      0.433755E-10      0.661493E-03      0.241354E-14
  0.6894      0.524224E-04      0.128109E+02      0.406042E-10      0.758681E-03      0.240465E-14
  0.7051      0.569985E-04      0.191893E+02      0.384281E-10      0.120817E-02      0.241945E-14
  0.7208      0.618744E-04      0.314570E+02      0.358808E-10      0.210323E-02      0.239901E-14
  0.7364      0.670610E-04      0.389984E+02      0.344079E-10      0.276590E-02      0.244032E-14
  0.7521      0.725689E-04      0.311546E+02      0.320386E-10      0.234125E-02      0.240769E-14
  0.7678      0.784081E-04      0.146016E+02      0.301348E-10      0.116140E-02      0.239690E-14
  0.7834      0.845884E-04      0.568504E+01      0.287081E-10      0.478070E-03      0.241414E-14
  0.7991      0.911191E-04      0.669901E+01      0.271106E-10      0.594931E-03      0.240766E-14
  0.8148      0.980087E-04      0.802726E+01      0.258139E-10      0.752049E-03      0.241842E-14
  0.8304      0.105265E-03      0.814306E+01      0.244054E-10      0.803922E-03      0.240942E-14
  0.8461      0.112896E-03      0.106977E+02      0.233479E-10      0.111171E-02      0.242634E-14
  0.8618      0.120908E-03      0.130271E+02      0.220825E-10      0.142350E-02      0.241300E-14
  0.8775      0.129307E-03      0.140200E+02      0.212579E-10      0.160916E-02      0.243989E-14
  0.8931      0.138097E-03      0.173978E+02      0.201171E-10      0.209517E-02      0.242265E-14
  0.9088      0.147282E-03      0.234360E+02      0.189435E-10      0.295816E-02      0.239110E-14
  0.9245      0.156865E-03      0.329207E+02      0.176268E-10      0.435072E-02      0.232952E-14
  0.9401      0.166849E-03      0.458878E+02      0.173346E-10      0.634289E-02      0.239609E-14
  0.9558      0.177234E-03      0.498318E+02      0.159843E-10      0.719682E-02      0.230848E-14
  0.9715      0.188019E-03      0.352101E+02      0.160797E-10      0.530755E-02      0.242384E-14
  0.9871      0.199202E-03      0.152645E+02      0.152038E-10      0.239913E-02      0.238958E-14
  1.0028      0.210782E-03      0.592855E+01      0.147817E-10      0.970552E-03      0.241989E-14
  1.0185      0.222753E-03      0.557725E+01      0.141381E-10      0.950051E-03      0.240834E-14
  1.0341      0.235110E-03      0.653725E+01      0.137039E-10      0.115755E-02      0.242655E-14
  1.0498      0.247847E-03      0.606726E+01      0.131212E-10      0.111562E-02      0.241268E-14
  1.0655      0.260954E-03      0.533009E+01      0.127348E-10      0.101673E-02      0.242921E-14
  1.0811      0.274423E-03      0.617986E+01      0.122322E-10      0.122171E-02      0.241820E-14
  1.0968      0.288242E-03      0.765331E+01      0.119475E-10      0.156648E-02      0.244542E-14
  1.1125      0.302398E-03      0.889103E+01      0.112236E-10      0.188231E-02      0.237614E-14
  1.1282      0.316879E-03      0.109647E+02      0.109934E-10      0.239870E-02      0.240498E-14
  1.1438      0.331667E-03      0.132550E+02      0.104859E-10      0.299348E-02      0.236811E-14
  1.1595      0.346748E-03      0.173862E+02      0.103842E-10      0.404952E-02      0.241864E-14
  1.1752      0.362102E-03      0.269758E+02      0.977464E-11      0.647382E-02      0.234578E-14
  1.1908      0.377710E-03      0.370241E+02      0.999249E-11      0.914630E-02      0.246851E-14
  1.2065      0.393551E-03      0.379623E+02      0.928287E-11      0.964449E-02      0.235836E-14
  1.2222      0.409603E-03      0.292176E+02      0.955661E-11      0.762657E-02      0.249453E-14
  1.2378      0.425842E-03      0.178395E+02      0.898630E-11      0.477994E-02      0.240780E-14
  1.2535      0.442245E-03      0.949387E+01      0.892746E-11      0.260875E-02      0.245312E-14
  1.2692      0.458785E-03      0.566251E+01      0.859034E-11      0.159423E-02      0.241853E-14
  1.2848      0.475435E-03      0.533555E+01      0.832714E-11      0.153770E-02      0.239988E-14
  1.3005      0.492167E-03      0.674884E+01      0.843310E-11      0.198921E-02      0.248564E-14
  1.3162      0.508952E-03      0.793620E+01      0.775715E-11      0.239016E-02      0.233624E-14
  1.3318      0.525762E-03      0.756042E+01      0.794624E-11      0.232452E-02      0.244314E-14
  1.3475      0.542564E-03      0.600755E+01      0.770016E-11      0.188394E-02      0.241474E-14
  1.3632      0.559328E-03      0.484821E+01      0.749753E-11      0.154934E-02      0.239598E-14
  1.3789      0.576022E-03      0.486528E+01      0.730628E-11      0.158300E-02      0.237722E-14
  1.3945      0.592614E-03      0.551361E+01      0.741402E-11      0.182488E-02      0.245387E-14
  1.4102      0.609070E-03      0.646237E+01      0.723964E-11      0.217387E-02      0.243533E-14
  1.4259      0.625358E-03      0.775777E+01      0.705134E-11      0.264997E-02      0.240866E-14
  1.4415      0.641444E-03      0.928397E+01      0.683681E-11      0.321752E-02      0.236942E-14
  1.4572      0.657294E-03      0.112557E+02      0.722158E-11      0.395428E-02      0.253703E-14
  1.4729      0.672876E-03      0.135184E+02      0.704488E-11      0.481004E-02      0.250668E-14
  1.4885      0.688156E-03      0.152788E+02      0.681600E-11      0.550136E-02      0.245420E-14
  1.5042      0.703100E-03      0.158257E+02      0.655790E-11      0.576136E-02      0.238741E-14
  1.5199      0.717676E-03      0.144848E+02      0.632654E-11      0.532703E-02      0.232670E-14
  1.5355      0.731852E-03      0.115996E+02      0.617566E-11      0.430583E-02      0.229244E-14
  1.5512      0.745596E-03      0.868234E+01      0.659228E-11      0.325029E-02      0.246786E-14
  1.5669      0.758876E-03      0.669589E+01      0.643024E-11      0.252579E-02      0.242558E-14
  1.5825      0.771664E-03      0.573738E+01      0.631440E-11      0.217890E-02      0.239804E-14
  1.5982      0.783928E-03      0.547030E+01      0.621358E-11      0.208980E-02      0.237375E-14
  1.6139      0.795642E-03      0.548939E+01      0.642948E-11      0.210776E-02      0.246873E-14
  1.6296      0.806777E-03      0.563049E+01      0.633875E-11      0.217112E-02      0.244423E-14
  1.6452      0.817309E-03      0.568535E+01      0.592830E-11      0.219974E-02      0.229374E-14
  1.6609      0.827211E-03      0.554054E+01      0.616802E-11      0.214922E-02      0.239262E-14
  1.6766      0.836462E-03      0.522607E+01      0.609876E-11      0.203074E-02      0.236985E-14
  1.6922      0.845038E-03      0.479623E+01      0.631824E-11      0.186539E-02      0.245734E-14
  1.7079      0.852921E-03      0.447968E+01      0.625760E-11      0.174239E-02      0.243393E-14
  1.7236      0.860091E-03      0.436972E+01      0.620797E-11      0.169833E-02      0.241278E-14
  1.7392      0.866531E-03      0.442743E+01      0.616588E-11      0.171803E-02      0.239262E-14
  1.7549      0.872228E-03      0.465992E+01      0.638693E-11      0.180388E-02      0.247241E-14
  1.7706      0.877166E-03      0.498189E+01      0.635879E-11      0.192227E-02      0.245355E-14
  1.7862      0.881336E-03      0.535434E+01      0.632828E-11      0.205759E-02      0.243187E-14
  1.8019      0.884728E-03      0.575979E+01      0.629411E-11      0.220260E-02      0.240693E-14
  1.8176      0.887334E-03      0.611981E+01      0.625663E-11      0.232693E-02      0.237896E-14
  1.8332      0.889149E-03      0.639458E+01      0.658125E-11      0.241556E-02      0.248608E-14
  1.8489      0.890169E-03      0.652195E+01      0.618520E-11      0.244560E-02      0.231933E-14
  1.8646      0.890394E-03      0.641776E+01      0.653047E-11      0.238691E-02      0.242883E-14
  1.8803      0.889824E-03      0.608397E+01      0.651427E-11      0.224247E-02      0.240107E-14
  1.8959      0.888462E-03      0.559982E+01      0.683320E-11      0.204383E-02      0.249399E-14
  1.9116      0.886311E-03      0.505822E+01      0.653500E-11      0.182659E-02      0.235987E-14
  1.9273      0.883380E-03      0.459639E+01      0.683274E-11      0.164088E-02      0.243924E-14
  1.9429      0.879677E-03      0.426989E+01      0.686010E-11      0.150569E-02      0.241907E-14
  1.9586      0.875211E-03      0.403423E+01      0.713139E-11      0.140404E-02      0.248196E-14
  1.9743      0.869997E-03      0.391904E+01      0.695353E-11      0.134507E-02      0.238655E-14
  1.9899      0.864048E-03      0.386352E+01      0.723331E-11      0.130657E-02      0.244618E-14
  2.0056      0.857379E-03      0.378463E+01      0.729909E-11      0.126010E-02      0.243024E-14
  2.0213      0.850010E-03      0.371437E+01      0.716202E-11      0.121657E-02      0.234578E-14
  2.0369      0.841959E-03      0.366032E+01      0.745798E-11      0.117838E-02      0.240097E-14
  2.0526      0.833248E-03      0.361895E+01      0.755242E-11      0.114420E-02      0.238785E-14
  2.0683      0.823899E-03      0.353109E+01      0.785788E-11      0.109554E-02      0.243794E-14
  2.0839      0.813936E-03      0.342941E+01      0.777428E-11      0.104322E-02      0.236492E-14
  2.0996      0.803383E-03      0.336450E+01      0.809333E-11      0.100267E-02      0.241192E-14
  2.1153      0.792269E-03      0.329260E+01      0.822834E-11      0.960495E-03      0.240032E-14
  2.1310      0.780619E-03      0.329067E+01      0.856310E-11      0.938861E-03      0.244314E-14
  2.1466      0.768464E-03      0.330879E+01      0.872032E-11      0.922547E-03      0.243138E-14
  2.1623      0.755831E-03      0.340548E+01      0.889156E-11      0.927132E-03      0.242070E-14
  2.1780      0.742752E-03      0.356105E+01      0.907145E-11      0.945854E-03      0.240948E-14
  2.1936      0.729257E-03      0.337921E+01      0.945925E-11      0.874953E-03      0.244921E-14
  2.2093      0.715379E-03      0.322540E+01      0.966306E-11      0.813424E-03      0.243696E-14
  2.2250      0.701148E-03      0.342704E+01      0.969763E-11      0.841119E-03      0.238015E-14
  2.2406      0.686598E-03      0.348816E+01      0.101294E-10      0.832491E-03      0.241750E-14
  2.2563      0.671760E-03      0.346508E+01      0.103846E-10      0.803494E-03      0.240801E-14
  2.2720      0.656669E-03      0.347707E+01      0.108526E-10      0.782725E-03      0.244303E-14
  2.2876      0.641356E-03      0.341816E+01      0.109468E-10      0.746372E-03      0.239029E-14
  2.3033      0.625853E-03      0.343922E+01      0.114544E-10      0.727834E-03      0.242406E-14
  2.3190      0.610195E-03      0.339586E+01      0.117838E-10      0.695944E-03      0.241495E-14
  2.3346      0.594412E-03      0.344770E+01      0.123342E-10      0.683672E-03      0.244585E-14
  2.3503      0.578537E-03      0.360966E+01      0.125109E-10      0.692027E-03      0.239853E-14
  2.3660      0.562600E-03      0.316251E+01      0.131069E-10      0.585695E-03      0.242739E-14
  2.3817      0.546633E-03      0.244159E+01      0.135289E-10      0.436458E-03      0.241842E-14
  2.3973      0.530666E-03      0.220624E+01      0.141229E-10      0.380364E-03      0.243485E-14
  2.4130      0.514727E-03      0.214932E+01      0.145004E-10      0.357087E-03      0.240910E-14
  2.4287      0.498846E-03      0.209077E+01      0.150362E-10      0.334471E-03      0.240541E-14
  2.4443      0.483050E-03      0.213280E+01      0.157237E-10      0.328272E-03      0.242013E-14
  2.4600      0.467365E-03      0.215469E+01      0.162051E-10      0.318830E-03      0.239788E-14
  2.4757      0.451818E-03      0.217444E+01      0.169702E-10      0.309080E-03      0.241219E-14
  2.4913      0.436433E-03      0.219411E+01      0.176534E-10      0.299362E-03      0.240861E-14
  2.5070      0.421233E-03      0.219951E+01      0.185059E-10      0.287836E-03      0.242176E-14
  2.5227      0.406241E-03      0.220799E+01      0.191546E-10      0.276931E-03      0.240242E-14
  2.5383      0.391478E-03      0.221641E+01      0.201084E-10      0.266232E-03      0.241539E-14
  2.5540      0.376963E-03      0.224262E+01      0.209816E-10      0.257800E-03      0.241194E-14
  2.5697      0.362716E-03      0.226316E+01      0.219121E-10      0.248803E-03      0.240893E-14
  2.5854      0.348754E-03      0.237849E+01      0.228975E-10      0.249893E-03      0.240570E-14
  2.6010      0.335093E-03      0.242560E+01      0.242282E-10      0.243385E-03      0.243107E-14
  2.6167      0.321749E-03      0.211140E+01      0.253274E-10      0.202204E-03      0.242554E-14
  2.6324      0.308735E-03      0.177199E+01      0.263031E-10      0.161865E-03      0.240270E-14
  2.6480      0.296063E-03      0.165304E+01      0.277725E-10      0.143945E-03      0.241841E-14
  2.6637      0.283745E-03      0.155739E+01      0.291302E-10      0.129210E-03      0.241680E-14
  2.6794      0.271792E-03      0.149580E+01      0.305646E-10      0.118176E-03      0.241477E-14
  2.6950      0.260212E-03      0.152278E+01      0.320955E-10      0.114512E-03      0.241357E-14
  2.7107      0.249014E-03      0.156467E+01      0.337148E-10      0.111948E-03      0.241220E-14
  2.7264      0.238204E-03      0.160759E+01      0.354315E-10      0.109393E-03      0.241105E-14
  2.7420      0.227788E-03      0.164084E+01      0.374289E-10      0.106164E-03      0.242167E-14
  2.7577      0.217771E-03      0.164312E+01      0.391587E-10      0.101059E-03      0.240842E-14
  2.7734      0.208158E-03      0.163080E+01      0.413680E-10      0.953319E-04      0.241825E-14
  2.7890      0.198951E-03      0.159702E+01      0.435096E-10      0.887268E-04      0.241729E-14
  2.8047      0.190153E-03      0.154068E+01      0.457524E-10      0.813541E-04      0.241591E-14
  2.8204      0.181766E-03      0.147526E+01      0.481108E-10      0.740502E-04      0.241490E-14
  2.8361      0.173791E-03      0.138729E+01      0.505693E-10      0.662112E-04      0.241352E-14
  2.8517      0.166227E-03      0.128365E+01      0.531527E-10      0.582767E-04      0.241309E-14
  2.8674      0.159076E-03      0.116198E+01      0.558362E-10      0.502075E-04      0.241260E-14
  2.8831      0.152336E-03      0.104568E+01      0.586199E-10      0.430329E-04      0.241238E-14
  2.8987      0.146006E-03      0.980233E+00      0.614712E-10      0.384543E-04      0.241150E-14
  2.9144      0.140085E-03      0.934660E+00      0.645322E-10      0.349905E-04      0.241587E-14
  2.9301      0.134572E-03      0.880579E+00      0.674067E-10      0.314992E-04      0.241120E-14
  2.9457      0.129465E-03      0.820381E+00      0.705349E-10      0.280819E-04      0.241443E-14
  2.9614      0.124761E-03      0.749199E+00      0.735754E-10      0.245827E-04      0.241416E-14
  2.9771      0.120458E-03      0.663182E+00      0.765952E-10      0.208994E-04      0.241380E-14
  2.9927      0.116556E-03      0.568433E+00      0.795891E-10      0.172423E-04      0.241418E-14
  3.0084      0.113050E-03      0.493731E+00      0.824388E-10      0.144503E-04      0.241279E-14
  3.0241      0.109940E-03      0.446677E+00      0.852328E-10      0.126477E-04      0.241336E-14
  3.0397      0.107224E-03      0.417253E+00      0.878331E-10      0.114632E-04      0.241303E-14
  3.0554      0.104899E-03      0.406804E+00      0.902273E-10      0.108777E-04      0.241263E-14
  3.0711      0.102964E-03      0.410901E+00      0.923794E-10      0.107296E-04      0.241224E-14
  3.0868      0.101418E-03      0.433186E+00      0.943188E-10      0.110851E-04      0.241358E-14
  3.1024      0.100259E-03      0.463970E+00      0.959168E-10      0.116779E-04      0.241418E-14
  3.1181      0.994870E-04      0.504710E+00      0.971293E-10      0.125422E-04      0.241369E-14
  3.1338      0.991012E-04      0.591473E+00      0.979619E-10      0.145680E-04      0.241281E-14
