 
 # Omega; pulse ft; projected flux at t=    200.050000000000     
    0.000000000000         0.78488106E-07      0.00000000E+00      0.00000000E+00      0.18109433E-14      0.19145100E-22
    0.015668791290         0.84527593E-07      0.79479312E-09      0.91132251E-17      0.16697046E-14      0.19145100E-22
    0.031337582579         0.10274644E-06      0.11765582E-08      0.14994563E-16      0.15022329E-14      0.19145101E-22
    0.047006373869         0.13344658E-06      0.11856838E-08      0.17317467E-16      0.13108172E-14      0.19145099E-22
    0.062675165159         0.17713370E-06      0.10048042E-08      0.17395191E-16      0.11058843E-14      0.19145091E-22
    0.078343956449         0.23452101E-06      0.76954718E-09      0.16423235E-16      0.89708593E-15      0.19145094E-22
    0.094012747738         0.30653431E-06      0.66582953E-09      0.15077964E-16      0.84543056E-15      0.19145097E-22
    0.109681539028         0.39431853E-06      0.69776952E-09      0.13674817E-16      0.97689568E-15      0.19145103E-22
    0.125350330318         0.49924541E-06      0.70412508E-09      0.12343728E-16      0.10920964E-14      0.19145094E-22
    0.141019121608         0.62292244E-06      0.63224294E-09      0.11129589E-16      0.10875832E-14      0.19145099E-22
    0.156687912897         0.76720276E-06      0.52540326E-09      0.10040620E-16      0.10018206E-14      0.19145104E-22
    0.172356704187         0.93419598E-06      0.43982816E-09      0.90703727E-17      0.92835779E-15      0.19145093E-22
    0.188025495477         0.11262798E-05      0.41530262E-09      0.82073960E-17      0.96876124E-15      0.19145093E-22
    0.203694286766         0.13461120E-05      0.39405828E-09      0.74393132E-17      0.10141107E-14      0.19145104E-22
    0.219363078056         0.15966432E-05      0.30773237E-09      0.67544625E-17      0.87224820E-15      0.19145102E-22
    0.235031869346         0.18811296E-05      0.21034564E-09      0.61424710E-17      0.65561369E-15      0.19145099E-22
    0.250700660636         0.22031453E-05      0.16338031E-09      0.55943201E-17      0.55912631E-15      0.19145095E-22
    0.266369451925         0.25665955E-05      0.13772713E-09      0.51022550E-17      0.51679115E-15      0.19145104E-22
    0.282038243215         0.29757282E-05      0.10407594E-09      0.46596117E-17      0.42762015E-15      0.19145095E-22
    0.297707034505         0.34351458E-05      0.76471307E-10      0.42606815E-17      0.34361897E-15      0.19145102E-22
    0.313375825794         0.39498158E-05      0.60846652E-10      0.39005291E-17      0.29865554E-15      0.19145090E-22
    0.329044617084         0.45250803E-05      0.53731128E-10      0.35748968E-17      0.28775310E-15      0.19145096E-22
    0.344713408374         0.51666645E-05      0.68284251E-10      0.32800675E-17      0.39856135E-15      0.19145090E-22
    0.360382199664         0.58806831E-05      0.10134724E-09      0.30128018E-17      0.64401932E-15      0.19145096E-22
    0.376050990953         0.66736456E-05      0.11752854E-09      0.27702473E-17      0.81223607E-15      0.19145093E-22
    0.391719782243         0.75524593E-05      0.10485346E-09      0.25498949E-17      0.78725999E-15      0.19145103E-22
    0.407388573533         0.85244303E-05      0.99256190E-10      0.23495175E-17      0.80879166E-15      0.19145105E-22
    0.423057364823         0.95972623E-05      0.12680563E-09      0.21671408E-17      0.11202352E-14      0.19145106E-22
    0.438726156112         0.10779053E-04      0.15590531E-09      0.20010047E-17      0.14916623E-14      0.19145103E-22
    0.454394947402         0.12078285E-04      0.14157211E-09      0.18495376E-17      0.14654534E-14      0.19145094E-22
    0.470063738692         0.13503823E-04      0.96050463E-10      0.17113351E-17      0.10745385E-14      0.19145098E-22
    0.485732529981         0.15064893E-04      0.66610269E-10      0.15851346E-17      0.80451212E-15      0.19145096E-22
    0.501401321271         0.16771074E-04      0.60638790E-10      0.14698044E-17      0.78985701E-15      0.19145093E-22
    0.517070112561         0.18632276E-04      0.52534289E-10      0.13643276E-17      0.73719417E-15      0.19145102E-22
    0.532738903851         0.20658721E-04      0.50367881E-10      0.12677866E-17      0.76061561E-15      0.19145103E-22
    0.548407695140         0.22860913E-04      0.89253771E-10      0.11793571E-17      0.14489024E-14      0.19145112E-22
    0.564076486430         0.25249616E-04      0.15938892E-09      0.10982930E-17      0.27784172E-14      0.19145096E-22
    0.579745277720         0.27835821E-04      0.19619103E-09      0.10239253E-17      0.36683309E-14      0.19145100E-22
    0.595414069010         0.30630708E-04      0.16094418E-09      0.95564673E-18      0.32243023E-14      0.19145110E-22
    0.611082860299         0.33645612E-04      0.92845373E-10      0.89290827E-18      0.19907244E-14      0.19145104E-22
    0.626751651589         0.36891980E-04      0.48069716E-10      0.83521592E-18      0.11018705E-14      0.19145107E-22
    0.642420442879         0.40381327E-04      0.35361660E-10      0.78212060E-18      0.86559836E-15      0.19145094E-22
    0.658089234168         0.44125190E-04      0.41018130E-10      0.73321765E-18      0.10710265E-14      0.19145083E-22
    0.673758025458         0.48135077E-04      0.58204184E-10      0.68814083E-18      0.16193267E-14      0.19145098E-22
    0.689426816748         0.52422417E-04      0.96200682E-10      0.64655511E-18      0.28485875E-14      0.19145070E-22
    0.705095608038         0.56998500E-04      0.17441329E-09      0.60816330E-18      0.54905714E-14      0.19145123E-22
    0.720764399327         0.61874426E-04      0.25775184E-09      0.57268512E-18      0.86167240E-14      0.19145041E-22
    0.736433190617         0.67061043E-04      0.27517787E-09      0.53988380E-18      0.97582736E-14      0.19145195E-22
    0.752101981907         0.72568884E-04      0.25245825E-09      0.50951967E-18      0.94860590E-14      0.19145081E-22
    0.767770773197         0.78408110E-04      0.26858186E-09      0.48139580E-18      0.10681411E-13      0.19144951E-22
    0.783439564486         0.84588444E-04      0.28693493E-09      0.45533433E-18      0.12064560E-13      0.19145137E-22
    0.799108355776         0.91119103E-04      0.22382722E-09      0.43115078E-18      0.99389205E-14      0.19145005E-22
    0.814777147066         0.98008741E-04      0.11503452E-09      0.40870502E-18      0.53886095E-14      0.19145137E-22
    0.830445938355         0.10526538E-03      0.47087825E-10      0.38784714E-18      0.23243705E-14      0.19145086E-22
    0.846114729645         0.11289633E-03      0.27416068E-10      0.36845531E-18      0.14245520E-14      0.19145114E-22
    0.861783520935         0.12090818E-03      0.21765255E-10      0.35041089E-18      0.11891696E-14      0.19145100E-22
    0.877452312225         0.12930664E-03      0.20481851E-10      0.33360944E-18      0.11754091E-14      0.19145124E-22
    0.893121103514         0.13809658E-03      0.24783909E-10      0.31795279E-18      0.14923301E-14      0.19145105E-22
    0.908789894804         0.14728189E-03      0.29433901E-10      0.30335334E-18      0.18576172E-14      0.19145080E-22
    0.924458686094         0.15686548E-03      0.37610085E-10      0.28973045E-18      0.24852308E-14      0.19145052E-22
    0.940127477383         0.16684918E-03      0.57735847E-10      0.27701138E-18      0.39902988E-14      0.19145094E-22
    0.955796268673         0.17723372E-03      0.82411868E-10      0.26512581E-18      0.59510463E-14      0.19145009E-22
    0.971465059963         0.18801865E-03      0.11272208E-09      0.25401626E-18      0.84958200E-14      0.19145107E-22
    0.987133851253         0.19920233E-03      0.16203768E-09      0.24362043E-18      0.12733768E-13      0.19144966E-22
    1.002802642542         0.21078183E-03      0.19125689E-09      0.23389443E-18      0.15655154E-13      0.19145209E-22
    1.018471433832         0.22275296E-03      0.14755720E-09      0.22478059E-18      0.12567751E-13      0.19145027E-22
    1.034140225122         0.23511020E-03      0.69637493E-10      0.21624423E-18      0.61653495E-14      0.19145165E-22
    1.049809016412         0.24784665E-03      0.27227471E-10      0.20823906E-18      0.25032406E-14      0.19145093E-22
    1.065477807701         0.26095404E-03      0.23424333E-10      0.20073188E-18      0.22341349E-14      0.19145139E-22
    1.081146598991         0.27442272E-03      0.33534198E-10      0.19368672E-18      0.33147132E-14      0.19145110E-22
    1.096815390281         0.28824160E-03      0.45812366E-10      0.18707419E-18      0.46884402E-14      0.19145184E-22
    1.112484181570         0.30239817E-03      0.54601179E-10      0.18086189E-18      0.57797610E-14      0.19144980E-22
    1.128152972860         0.31687851E-03      0.61821568E-10      0.17502894E-18      0.67621899E-14      0.19145081E-22
    1.143821764150         0.33166728E-03      0.66487408E-10      0.16954623E-18      0.75076880E-14      0.19144982E-22
    1.159490555440         0.34674771E-03      0.65797655E-10      0.16439507E-18      0.76626563E-14      0.19145103E-22
    1.175159346729         0.36210166E-03      0.67261192E-10      0.15955093E-18      0.80708794E-14      0.19145011E-22
    1.190828138019         0.37770961E-03      0.72297554E-10      0.15499847E-18      0.89300746E-14      0.19145156E-22
    1.206496929309         0.39355070E-03      0.73239288E-10      0.15071599E-18      0.93033878E-14      0.19145043E-22
    1.222165720599         0.40960277E-03      0.71318298E-10      0.14669130E-18      0.93079984E-14      0.19145190E-22
    1.237834511888         0.42584240E-03      0.74133361E-10      0.14290534E-18      0.99316761E-14      0.19145086E-22
    1.253503303178         0.44224495E-03      0.83343805E-10      0.13934833E-18      0.11450732E-13      0.19145279E-22
    1.269172094468         0.45878463E-03      0.87802213E-10      0.13600271E-18      0.12359940E-13      0.19145136E-22
    1.284840885757         0.47543453E-03      0.74574746E-10      0.13285912E-18      0.10746219E-13      0.19144997E-22
    1.300509677047         0.49216674E-03      0.50568641E-10      0.12990998E-18      0.74525088E-14      0.19145369E-22
    1.316178468337         0.50895237E-03      0.33510414E-10      0.12713616E-18      0.50462028E-14      0.19144940E-22
    1.331847259627         0.52576165E-03      0.31032329E-10      0.12453799E-18      0.47705823E-14      0.19145154E-22
    1.347516050916         0.54256402E-03      0.39852972E-10      0.12210068E-18      0.62488528E-14      0.19145101E-22
    1.363184842206         0.55932820E-03      0.48240437E-10      0.11981775E-18      0.77080718E-14      0.19145014E-22
    1.378853633496         0.57602230E-03      0.46357997E-10      0.11768201E-18      0.75416841E-14      0.19144929E-22
    1.394522424785         0.59261389E-03      0.38825994E-10      0.11568897E-18      0.64252710E-14      0.19145240E-22
    1.410191216075         0.60907015E-03      0.34667259E-10      0.11382743E-18      0.58308432E-14      0.19145150E-22
    1.425860007365         0.62535790E-03      0.34512784E-10      0.11209418E-18      0.58945993E-14      0.19145087E-22
    1.441528798655         0.64144377E-03      0.33663845E-10      0.11048369E-18      0.58333970E-14      0.19145027E-22
    1.457197589944         0.65729430E-03      0.30639818E-10      0.10899274E-18      0.53820801E-14      0.19145272E-22
    1.472866381234         0.67287601E-03      0.28559564E-10      0.10761317E-18      0.50809605E-14      0.19145190E-22
    1.488535172524         0.68815556E-03      0.27546978E-10      0.10634288E-18      0.49593417E-14      0.19145137E-22
    1.504203963814         0.70309983E-03      0.25600723E-10      0.10517789E-18      0.46599906E-14      0.19145083E-22
    1.519872755103         0.71767605E-03      0.24731889E-10      0.10411476E-18      0.45477969E-14      0.19145031E-22
    1.535541546393         0.73185192E-03      0.26006559E-10      0.10315024E-18      0.48268865E-14      0.19144959E-22
    1.551210337683         0.74559572E-03      0.27067415E-10      0.10228319E-18      0.50664300E-14      0.19145184E-22
    1.566879128972         0.75887640E-03      0.26458831E-10      0.10150798E-18      0.49903240E-14      0.19145128E-22
    1.582547920262         0.77166373E-03      0.23738135E-10      0.10082384E-18      0.45075479E-14      0.19145072E-22
    1.598216711552         0.78392837E-03      0.19255712E-10      0.10022883E-18      0.36780942E-14      0.19145024E-22
    1.613885502842         0.79564201E-03      0.14821837E-10      0.99722169E-19      0.28455720E-14      0.19145171E-22
    1.629554294131         0.80677746E-03      0.12589254E-10      0.99300405E-19      0.24272105E-14      0.19145137E-22
    1.645223085421         0.81730875E-03      0.13215850E-10      0.98962483E-19      0.25566954E-14      0.19144961E-22
    1.660891876711         0.82721120E-03      0.14839646E-10      0.98709590E-19      0.28782011E-14      0.19145069E-22
    1.676560668001         0.83646159E-03      0.15615273E-10      0.98538697E-19      0.30338832E-14      0.19145032E-22
    1.692229459290         0.84503813E-03      0.15672065E-10      0.98450881E-19      0.30476551E-14      0.19145169E-22
    1.707898250580         0.85292067E-03      0.15218382E-10      0.98443993E-19      0.29596316E-14      0.19145134E-22
    1.723567041870         0.86009066E-03      0.14004754E-10      0.98518760E-19      0.27215359E-14      0.19145095E-22
    1.739235833159         0.86653130E-03      0.12489464E-10      0.98675358E-19      0.24232159E-14      0.19145073E-22
    1.754904624449         0.87222756E-03      0.11197355E-10      0.98914609E-19      0.21672762E-14      0.19145172E-22
    1.770573415739         0.87716626E-03      0.10231558E-10      0.99235759E-19      0.19739325E-14      0.19145148E-22
    1.786242207029         0.88133612E-03      0.10249427E-10      0.99640133E-19      0.19693520E-14      0.19145119E-22
    1.801910998318         0.88472776E-03      0.11664905E-10      0.10012873E-18      0.22303861E-14      0.19145097E-22
    1.817579789608         0.88733380E-03      0.13544880E-10      0.10070264E-18      0.25750831E-14      0.19145069E-22
    1.833248580898         0.88914883E-03      0.14939029E-10      0.10136402E-18      0.28216166E-14      0.19145181E-22
    1.848917372188         0.89016948E-03      0.15492553E-10      0.10211210E-18      0.29046963E-14      0.19144981E-22
    1.864586163477         0.89039438E-03      0.15267906E-10      0.10295220E-18      0.28392391E-14      0.19145121E-22
    1.880254954767         0.88982421E-03      0.14824053E-10      0.10388368E-18      0.27319766E-14      0.19145087E-22
    1.895923746057         0.88846165E-03      0.14440933E-10      0.10491067E-18      0.26353338E-14      0.19145206E-22
    1.911592537346         0.88631143E-03      0.14014382E-10      0.10603330E-18      0.25303904E-14      0.19145021E-22
    1.927261328636         0.88338022E-03      0.13477851E-10      0.10725781E-18      0.24057488E-14      0.19145139E-22
    1.942930119926         0.87967671E-03      0.12896774E-10      0.10858485E-18      0.22738905E-14      0.19145103E-22
    1.958598911216         0.87521148E-03      0.12432253E-10      0.11001962E-18      0.21634151E-14      0.19145212E-22
    1.974267702505         0.86999702E-03      0.11950972E-10      0.11156354E-18      0.20508670E-14      0.19145051E-22
    1.989936493795         0.86404764E-03      0.11139308E-10      0.11322381E-18      0.18835590E-14      0.19145149E-22
    2.005605285085         0.85737944E-03      0.10210341E-10      0.11500273E-18      0.16997710E-14      0.19145129E-22
    2.021274076374         0.85001023E-03      0.99380342E-11      0.11690529E-18      0.16275037E-14      0.19145013E-22
    2.036942867664         0.84195947E-03      0.10254311E-10      0.11893844E-18      0.16505983E-14      0.19145078E-22
    2.052611658954         0.83324819E-03      0.10284663E-10      0.12110628E-18      0.16258489E-14      0.19145063E-22
    2.068280450244         0.82389892E-03      0.10117803E-10      0.12341594E-18      0.15695432E-14      0.19145129E-22
    2.083949241533         0.81393556E-03      0.10097182E-10      0.12587244E-18      0.15357680E-14      0.19145031E-22
    2.099618032823         0.80338335E-03      0.10087019E-10      0.12848494E-18      0.15030309E-14      0.19145085E-22
    2.115286824113         0.79226874E-03      0.10222299E-10      0.13125969E-18      0.14909888E-14      0.19145079E-22
    2.130955615403         0.78061928E-03      0.10249523E-10      0.13420572E-18      0.14621471E-14      0.19145135E-22
    2.146624406692         0.76846355E-03      0.96352298E-11      0.13733096E-18      0.13432345E-14      0.19145125E-22
    2.162293197982         0.75583102E-03      0.99632608E-11      0.14064524E-18      0.13562326E-14      0.19145104E-22
    2.177961989272         0.74275198E-03      0.14802256E-10      0.14415890E-18      0.19658210E-14      0.19145095E-22
    2.193630780561         0.72925737E-03      0.23439058E-10      0.14788379E-18      0.30344501E-14      0.19145222E-22
    2.209299571851         0.71537875E-03      0.28856366E-10      0.15182945E-18      0.36386946E-14      0.19145203E-22
    2.224968363141         0.70114811E-03      0.26711110E-10      0.15600768E-18      0.32779355E-14      0.19144960E-22
    2.240637154431         0.68659782E-03      0.20122060E-10      0.16043698E-18      0.24011864E-14      0.19145112E-22
    2.256305945720         0.67176047E-03      0.14064862E-10      0.16512707E-18      0.16307015E-14      0.19145084E-22
    2.271974737010         0.65666880E-03      0.11066818E-10      0.17009564E-18      0.12456275E-14      0.19145143E-22
    2.287643528300         0.64135554E-03      0.11234595E-10      0.17535720E-18      0.12265648E-14      0.19145056E-22
    2.303312319590         0.62585337E-03      0.13134180E-10      0.18093216E-18      0.13897775E-14      0.19145119E-22
    2.318981110879         0.61019475E-03      0.17214666E-10      0.18683748E-18      0.17639749E-14      0.19145107E-22
    2.334649902169         0.59441187E-03      0.26355467E-10      0.19309553E-18      0.26131177E-14      0.19145225E-22
    2.350318693459         0.57853650E-03      0.37744951E-10      0.19972348E-18      0.36181405E-14      0.19145013E-22
    2.365987484748         0.56259995E-03      0.42548854E-10      0.20675207E-18      0.39400131E-14      0.19145189E-22
    2.381656276038         0.54663294E-03      0.37830232E-10      0.21419990E-18      0.33812577E-14      0.19145139E-22
    2.397325067328         0.53066553E-03      0.29624232E-10      0.22209792E-18      0.25536631E-14      0.19145248E-22
    2.412993858618         0.51472703E-03      0.25070604E-10      0.23046957E-18      0.20826108E-14      0.19145068E-22
    2.428662649907         0.49884594E-03      0.24797192E-10      0.23935071E-18      0.19834639E-14      0.19145050E-22
    2.444331441197         0.48304986E-03      0.23002039E-10      0.24877343E-18      0.17701936E-14      0.19145134E-22
    2.460000232487         0.46736545E-03      0.18222728E-10      0.25876893E-18      0.13482095E-14      0.19145034E-22
    2.475669023776         0.45181835E-03      0.18046413E-10      0.26937888E-18      0.12825807E-14      0.19145088E-22
    2.491337815066         0.43643313E-03      0.26105487E-10      0.28063989E-18      0.17808996E-14      0.19145074E-22
    2.507006606356         0.42123327E-03      0.35522053E-10      0.29259666E-18      0.23242765E-14      0.19145164E-22
    2.522675397646         0.40624110E-03      0.42199906E-10      0.30528839E-18      0.26464063E-14      0.19144998E-22
    2.538344188935         0.39147777E-03      0.47228013E-10      0.31877123E-18      0.28364740E-14      0.19145127E-22
