 
 # Omega; pulse ft; projected flux at t=    200.050000000000     
    0.000000000000         0.78488106E-07      0.00000000E+00      0.00000000E+00      0.18510024E-05     -0.33190179E-15
    0.015668791290         0.84527593E-07      0.90583269E+00     -0.15802202E-09      0.19029770E-05     -0.33197331E-15
    0.031337582579         0.10274644E-06      0.15333174E+01     -0.26000935E-09      0.19577440E-05     -0.33198068E-15
    0.047006373869         0.13344658E-06      0.18232906E+01     -0.30015294E-09      0.20157150E-05     -0.33183014E-15
    0.062675165159         0.17713370E-06      0.18871615E+01     -0.30163332E-09      0.20770039E-05     -0.33197667E-15
    0.078343956449         0.23452101E-06      0.18373457E+01     -0.28465332E-09      0.21418531E-05     -0.33182954E-15
    0.094012747738         0.30653431E-06      0.17409563E+01     -0.26145817E-09      0.22105623E-05     -0.33198396E-15
    0.109681539028         0.39431853E-06      0.16310215E+01     -0.23705156E-09      0.22834730E-05     -0.33187842E-15
    0.125350330318         0.49924541E-06      0.15222186E+01     -0.21409974E-09      0.23609575E-05     -0.33206820E-15
    0.141019121608         0.62292244E-06      0.14204423E+01     -0.19295972E-09      0.24434425E-05     -0.33192899E-15
    0.156687912897         0.76720276E-06      0.13275896E+01     -0.17405261E-09      0.25314017E-05     -0.33187746E-15
    0.172356704187         0.93419598E-06      0.12438235E+01     -0.15728807E-09      0.26253737E-05     -0.33199239E-15
    0.188025495477         0.11262798E-05      0.11686115E+01     -0.14234501E-09      0.27259774E-05     -0.33204300E-15
    0.203694286766         0.13461120E-05      0.11011882E+01     -0.12899773E-09      0.28339124E-05     -0.33197621E-15
    0.219363078056         0.15966432E-05      0.10407669E+01     -0.11711608E-09      0.29499888E-05     -0.33195822E-15
    0.235031869346         0.18811296E-05      0.98662017E+00     -0.10651838E-09      0.30751372E-05     -0.33200075E-15
    0.250700660636         0.22031453E-05      0.93810829E+00     -0.96995138E-10      0.32104299E-05     -0.33194045E-15
    0.266369451925         0.25665955E-05      0.89469039E+00     -0.88472773E-10      0.33571313E-05     -0.33197486E-15
    0.282038243215         0.29757282E-05      0.85591817E+00     -0.80799768E-10      0.35167383E-05     -0.33198458E-15
    0.297707034505         0.34351458E-05      0.82142377E+00     -0.73871193E-10      0.36910157E-05     -0.33193552E-15
    0.313375825794         0.39498158E-05      0.79090969E+00     -0.67628221E-10      0.38820470E-05     -0.33194173E-15
    0.329044617084         0.45250803E-05      0.76415562E+00     -0.61991692E-10      0.40923791E-05     -0.33199194E-15
    0.344713408374         0.51666645E-05      0.74101588E+00     -0.56888051E-10      0.43251596E-05     -0.33204404E-15
    0.360382199664         0.58806831E-05      0.72140150E+00     -0.52240591E-10      0.45842050E-05     -0.33196712E-15
    0.376050990953         0.66736456E-05      0.70529995E+00     -0.48036944E-10      0.48743061E-05     -0.33198183E-15
    0.391719782243         0.75524593E-05      0.69279703E+00     -0.44213076E-10      0.52016538E-05     -0.33196031E-15
    0.407388573533         0.85244303E-05      0.68407974E+00     -0.40738318E-10      0.55742416E-05     -0.33195725E-15
    0.423057364823         0.95972623E-05      0.67948540E+00     -0.37567095E-10      0.60027573E-05     -0.33187784E-15
    0.438726156112         0.10779053E-04      0.67956196E+00     -0.34687411E-10      0.65018757E-05     -0.33188031E-15
    0.454394947402         0.12078285E-04      0.68515221E+00     -0.32064906E-10      0.70922069E-05     -0.33191303E-15
    0.470063738692         0.13503823E-04      0.69762837E+00     -0.29680995E-10      0.78045283E-05     -0.33204808E-15
    0.485732529981         0.15064893E-04      0.71928928E+00     -0.27476350E-10      0.86875036E-05     -0.33185659E-15
    0.501401321271         0.16771074E-04      0.75413178E+00     -0.25483478E-10      0.98230237E-05     -0.33193775E-15
    0.517070112561         0.18632276E-04      0.80978181E+00     -0.23650271E-10      0.11363367E-04     -0.33187546E-15
    0.532738903851         0.20658721E-04      0.90218654E+00     -0.21976187E-10      0.13624102E-04     -0.33186686E-15
    0.548407695140         0.22860913E-04      0.10657018E+01     -0.20434493E-10      0.17300086E-04     -0.33172364E-15
    0.564076486430         0.25249616E-04      0.13680796E+01     -0.19041296E-10      0.23847930E-04     -0.33192184E-15
    0.579745277720         0.27835821E-04      0.19181664E+01     -0.17749796E-10      0.35865397E-04     -0.33188125E-15
    0.595414069010         0.30630708E-04      0.28533012E+01     -0.16560567E-10      0.57162091E-04     -0.33176891E-15
    0.611082860299         0.33645612E-04      0.43222441E+01     -0.15453293E-10      0.92674481E-04     -0.33133851E-15
    0.626751651589         0.36891980E-04      0.64335087E+01     -0.14429311E-10      0.14747110E-03     -0.33075364E-15
    0.642420442879         0.40381327E-04      0.89609147E+01     -0.13596383E-10      0.21934923E-03     -0.33281829E-15
    0.658089234168         0.44125190E-04      0.10922283E+02     -0.12889408E-10      0.28519229E-03     -0.33655598E-15
    0.673758025458         0.48135077E-04      0.11381345E+02     -0.11923583E-10      0.31664588E-03     -0.33173175E-15
    0.689426816748         0.52422417E-04      0.12155317E+02     -0.11346805E-10      0.35992970E-03     -0.33598894E-15
    0.705095608038         0.56998500E-04      0.18027489E+02     -0.10452245E-10      0.56750958E-03     -0.32903913E-15
    0.720764399327         0.61874426E-04      0.29433777E+02     -0.10131179E-10      0.98398028E-03     -0.33868845E-15
    0.736433190617         0.67061043E-04      0.36303550E+02     -0.90073905E-11      0.12873854E-02     -0.31941733E-15
    0.752101981907         0.72568884E-04      0.28655735E+02     -0.88965843E-11      0.10767324E-02     -0.33428705E-15
    0.767770773197         0.78408110E-04      0.13080925E+02     -0.85289718E-11      0.52022404E-03     -0.33919437E-15
    0.783439564486         0.84588444E-04      0.50131120E+01     -0.78842872E-11      0.21078295E-03     -0.33150533E-15
    0.799108355776         0.91119103E-04      0.61500284E+01     -0.75331650E-11      0.27308851E-03     -0.33450590E-15
    0.814777147066         0.98008741E-04      0.72927712E+01     -0.70331404E-11      0.34161828E-03     -0.32945629E-15
    0.830445938355         0.10526538E-03      0.74461732E+01     -0.67596316E-11      0.36756137E-03     -0.33367199E-15
    0.846114729645         0.11289633E-03      0.99654644E+01     -0.62714414E-11      0.51781029E-03     -0.32586709E-15
    0.861783520935         0.12090818E-03      0.11880905E+02     -0.60766421E-11      0.64912680E-03     -0.33200429E-15
    0.877452312225         0.12930664E-03      0.12643516E+02     -0.55778374E-11      0.72558404E-03     -0.32010002E-15
    0.893121103514         0.13809658E-03      0.15648320E+02     -0.54431729E-11      0.94224278E-03     -0.32775343E-15
    0.908789894804         0.14728189E-03      0.18652419E+02     -0.53976864E-11      0.11771819E-02     -0.34065601E-15
    0.924458686094         0.15686548E-03      0.21971530E+02     -0.54473651E-11      0.14518533E-02     -0.35995557E-15
    0.940127477383         0.16684918E-03      0.31030470E+02     -0.48878341E-11      0.21446096E-02     -0.33781298E-15
    0.955796268673         0.17723372E-03      0.38087906E+02     -0.51505736E-11      0.27503671E-02     -0.37192825E-15
    0.971465059963         0.18801865E-03      0.29919465E+02     -0.43486314E-11      0.22550186E-02     -0.32775468E-15
    0.987133851253         0.19920233E-03      0.13439051E+02     -0.43578237E-11      0.10561109E-02     -0.34246056E-15
    1.002802642542         0.21078183E-03      0.45928754E+01     -0.40258267E-11      0.37594552E-03     -0.32953027E-15
    1.018471433832         0.22275296E-03      0.45578131E+01     -0.39211555E-11      0.38819836E-03     -0.33397292E-15
    1.034140225122         0.23511020E-03      0.57296413E+01     -0.36849907E-11      0.50727331E-03     -0.32625034E-15
    1.049809016412         0.24784665E-03      0.51725923E+01     -0.36126756E-11      0.47555805E-03     -0.33214235E-15
    1.065477807701         0.26095404E-03      0.45400997E+01     -0.34080491E-11      0.43301960E-03     -0.32504838E-15
    1.081146598991         0.27442272E-03      0.52706129E+01     -0.33379412E-11      0.52097771E-03     -0.32994132E-15
    1.096815390281         0.28824160E-03      0.65175070E+01     -0.31099066E-11      0.66700205E-03     -0.31826803E-15
    1.112484181570         0.30239817E-03      0.75911583E+01     -0.32868546E-11      0.80355556E-03     -0.34792718E-15
    1.128152972860         0.31687851E-03      0.89653023E+01     -0.30643820E-11      0.98064605E-03     -0.33518938E-15
    1.143821764150         0.33166728E-03      0.10467226E+02     -0.30976913E-11      0.11819481E-02     -0.34978803E-15
    1.159490555440         0.34674771E-03      0.12159750E+02     -0.28340726E-11      0.14160989E-02     -0.33005013E-15
    1.175159346729         0.36210166E-03      0.14359338E+02     -0.29173399E-11      0.17230215E-02     -0.35006068E-15
    1.190828138019         0.37770961E-03      0.17043813E+02     -0.25857502E-11      0.21052236E-02     -0.31938760E-15
    1.206496929309         0.39355070E-03      0.19839670E+02     -0.27291175E-11      0.25201794E-02     -0.34667238E-15
    1.222165720599         0.40960277E-03      0.19426211E+02     -0.23369885E-11      0.25353822E-02     -0.30500847E-15
    1.237834511888         0.42584240E-03      0.13458310E+02     -0.24933877E-11      0.18030152E-02     -0.33404016E-15
    1.253503303178         0.44224495E-03      0.66183072E+01     -0.23153016E-11      0.90929932E-03     -0.31810282E-15
    1.269172094468         0.45878463E-03      0.36704372E+01     -0.23454708E-11      0.51668837E-03     -0.33017252E-15
    1.284840885757         0.47543453E-03      0.38171165E+01     -0.23352036E-11      0.55004640E-03     -0.33650278E-15
    1.300509677047         0.49216674E-03      0.53088525E+01     -0.20581439E-11      0.78238745E-03     -0.30331714E-15
    1.316178468337         0.50895237E-03      0.66603443E+01     -0.24192216E-11      0.10029553E-02     -0.36430116E-15
    1.331847259627         0.52576165E-03      0.63067037E+01     -0.20781465E-11      0.96952598E-03     -0.31947229E-15
    1.347516050916         0.54256402E-03      0.47705376E+01     -0.21131368E-11      0.74800914E-03     -0.33133491E-15
    1.363184842206         0.55932820E-03      0.36243906E+01     -0.21170960E-11      0.57912126E-03     -0.33827903E-15
    1.378853633496         0.57602230E-03      0.34677551E+01     -0.21187771E-11      0.56414676E-03     -0.34469020E-15
    1.394522424785         0.59261389E-03      0.39322311E+01     -0.19189081E-11      0.65074060E-03     -0.31755799E-15
    1.410191216075         0.60907015E-03      0.45524020E+01     -0.19275272E-11      0.76568909E-03     -0.32419952E-15
    1.425860007365         0.62535790E-03      0.53042249E+01     -0.19526036E-11      0.90593331E-03     -0.33349426E-15
    1.441528798655         0.64144377E-03      0.61440150E+01     -0.19996499E-11      0.10646579E-02     -0.34650681E-15
    1.457197589944         0.65729430E-03      0.70268063E+01     -0.16699453E-11      0.12343035E-02     -0.29333658E-15
    1.472866381234         0.67287601E-03      0.80099304E+01     -0.17101251E-11      0.14250266E-02     -0.30424408E-15
    1.488535172524         0.68815556E-03      0.89004267E+01     -0.17770934E-11      0.16023629E-02     -0.31993394E-15
    1.504203963814         0.70309983E-03      0.93704978E+01     -0.18660609E-11      0.17056718E-02     -0.33967112E-15
    1.519872755103         0.71767605E-03      0.88844867E+01     -0.19491925E-11      0.16337143E-02     -0.35842516E-15
    1.535541546393         0.73185192E-03      0.72283273E+01     -0.19921154E-11      0.13415968E-02     -0.36974192E-15
    1.551210337683         0.74559572E-03      0.52721438E+01     -0.16842857E-11      0.98683038E-03     -0.31526156E-15
    1.566879128972         0.75887640E-03      0.40008120E+01     -0.17403671E-11      0.75458164E-03     -0.32824563E-15
    1.582547920262         0.77166373E-03      0.35433169E+01     -0.17725558E-11      0.67282754E-03     -0.33658417E-15
    1.598216711552         0.78392837E-03      0.35707132E+01     -0.18047489E-11      0.68205316E-03     -0.34473076E-15
    1.613885502842         0.79564201E-03      0.38147065E+01     -0.16291565E-11      0.73236683E-03     -0.31277378E-15
    1.629554294131         0.80677746E-03      0.40895376E+01     -0.16631074E-11      0.78846365E-03     -0.32064743E-15
    1.645223085421         0.81730875E-03      0.42239062E+01     -0.19458555E-11      0.81714318E-03     -0.37643890E-15
    1.660891876711         0.82721120E-03      0.41441224E+01     -0.17513076E-11      0.80376699E-03     -0.33967221E-15
    1.676560668001         0.83646159E-03      0.38417394E+01     -0.17906351E-11      0.74640952E-03     -0.34790155E-15
    1.692229459290         0.84503813E-03      0.34162021E+01     -0.16265223E-11      0.66432892E-03     -0.31630032E-15
    1.707898250580         0.85292067E-03      0.30716317E+01     -0.16706909E-11      0.59736300E-03     -0.32491166E-15
    1.723567041870         0.86009066E-03      0.28919861E+01     -0.17089559E-11      0.56199803E-03     -0.33210043E-15
    1.739235833159         0.86653130E-03      0.28706547E+01     -0.17459089E-11      0.55696676E-03     -0.33874267E-15
    1.754904624449         0.87222756E-03      0.29780473E+01     -0.16173750E-11      0.57640855E-03     -0.31304700E-15
    1.770573415739         0.87716626E-03      0.31615572E+01     -0.16540156E-11      0.60994626E-03     -0.31910244E-15
    1.786242207029         0.88133612E-03      0.33907916E+01     -0.16966808E-11      0.65151567E-03     -0.32600474E-15
    1.801910998318         0.88472776E-03      0.36382225E+01     -0.17458209E-11      0.69564572E-03     -0.33380939E-15
    1.817579789608         0.88733380E-03      0.38816969E+01     -0.18031344E-11      0.73796830E-03     -0.34280267E-15
    1.833248580898         0.88914883E-03      0.40742334E+01     -0.16344114E-11      0.76952291E-03     -0.30870029E-15
    1.848917372188         0.89016948E-03      0.41739032E+01     -0.19310235E-11      0.78256445E-03     -0.36204730E-15
    1.864586163477         0.89039438E-03      0.41236905E+01     -0.17583683E-11      0.76684671E-03     -0.32698840E-15
    1.880254954767         0.88982421E-03      0.38843707E+01     -0.18217487E-11      0.71586428E-03     -0.33573645E-15
    1.895923746057         0.88846165E-03      0.35390966E+01     -0.16787884E-11      0.64585167E-03     -0.30636301E-15
    1.911592537346         0.88631143E-03      0.31564790E+01     -0.19306053E-11      0.56992337E-03     -0.34858369E-15
    1.927261328636         0.88338022E-03      0.28388434E+01     -0.18145993E-11      0.50672350E-03     -0.32389955E-15
    1.942930119926         0.87967671E-03      0.26542090E+01     -0.18723246E-11      0.46797598E-03     -0.33011830E-15
    1.958598911216         0.87521148E-03      0.25370046E+01     -0.17834770E-11      0.44148027E-03     -0.31035415E-15
    1.974267702505         0.86999702E-03      0.25189252E+01     -0.19843850E-11      0.43226447E-03     -0.34053379E-15
    1.989936493795         0.86404764E-03      0.25490477E+01     -0.18986375E-11      0.43102155E-03     -0.32104290E-15
    2.005605285085         0.85737944E-03      0.25307672E+01     -0.19596291E-11      0.42131056E-03     -0.32623010E-15
    2.021274076374         0.85001023E-03      0.25129919E+01     -0.21663698E-11      0.41154049E-03     -0.35477587E-15
    2.036942867664         0.84195947E-03      0.24972083E+01     -0.20885967E-11      0.40196631E-03     -0.33619362E-15
    2.052611658954         0.83324819E-03      0.24771848E+01     -0.21548975E-11      0.39160527E-03     -0.34065655E-15
    2.068280450244         0.82389892E-03      0.24106836E+01     -0.20849723E-11      0.37396183E-03     -0.32343524E-15
    2.083949241533         0.81393556E-03      0.23110087E+01     -0.22894018E-11      0.35150136E-03     -0.34821498E-15
    2.099618032823         0.80338335E-03      0.22428551E+01     -0.22306456E-11      0.33419988E-03     -0.33238059E-15
    2.115286824113         0.79226874E-03      0.21628228E+01     -0.23047300E-11      0.31546177E-03     -0.33615986E-15
    2.130955615403         0.78061928E-03      0.21242090E+01     -0.22587249E-11      0.30302933E-03     -0.32221871E-15
    2.146624406692         0.76846355E-03      0.21166867E+01     -0.23397998E-11      0.29508445E-03     -0.32618835E-15
    2.162293197982         0.75583102E-03      0.21224216E+01     -0.24215244E-11      0.28891117E-03     -0.32962605E-15
    2.177961989272         0.74275198E-03      0.21599977E+01     -0.25084205E-11      0.28685958E-03     -0.33313205E-15
    2.193630780561         0.72925737E-03      0.20927908E+01     -0.24778303E-11      0.27093534E-03     -0.32078303E-15
    2.209299571851         0.71537875E-03      0.20472112E+01     -0.25728295E-11      0.25814672E-03     -0.32442549E-15
    2.224968363141         0.70114811E-03      0.21113432E+01     -0.27882343E-11      0.25909994E-03     -0.34216669E-15
    2.240637154431         0.68659782E-03      0.21438794E+01     -0.27706156E-11      0.25583136E-03     -0.33062045E-15
    2.256305945720         0.67176047E-03      0.21797958E+01     -0.28774330E-11      0.25272884E-03     -0.33361397E-15
    2.271974737010         0.65666880E-03      0.21778149E+01     -0.28663108E-11      0.24512432E-03     -0.32261808E-15
    2.287643528300         0.64135554E-03      0.21444134E+01     -0.31059072E-11      0.23412163E-03     -0.33909510E-15
    2.303312319590         0.62585337E-03      0.21254168E+01     -0.31054685E-11      0.22489843E-03     -0.32860142E-15
    2.318981110879         0.61019475E-03      0.20652219E+01     -0.32342359E-11      0.21162185E-03     -0.33140991E-15
    2.334649902169         0.59441187E-03      0.20264067E+01     -0.32515611E-11      0.20091616E-03     -0.32238897E-15
    2.350318693459         0.57853650E-03      0.19290310E+01     -0.35039421E-11      0.18491228E-03     -0.33587949E-15
    2.365987484748         0.56259995E-03      0.17171113E+01     -0.35430112E-11      0.15900406E-03     -0.32808194E-15
    2.381656276038         0.54663294E-03      0.15016861E+01     -0.36955043E-11      0.13422036E-03     -0.33030335E-15
    2.397325067328         0.53066553E-03      0.13256102E+01     -0.37758839E-11      0.11427003E-03     -0.32548812E-15
    2.412993858618         0.51472703E-03      0.12765493E+01     -0.40114182E-11      0.10604273E-03     -0.33322781E-15
    2.428662649907         0.49884594E-03      0.13198532E+01     -0.41809322E-11      0.10557168E-03     -0.33442206E-15
    2.444331441197         0.48304986E-03      0.13566656E+01     -0.42849616E-11      0.10440642E-03     -0.32976256E-15
    2.460000232487         0.46736545E-03      0.13997548E+01     -0.45541901E-11      0.10356094E-03     -0.33694201E-15
    2.475669023776         0.45181835E-03      0.14159616E+01     -0.46758523E-11      0.10063413E-03     -0.33231857E-15
    2.491337815066         0.43643313E-03      0.14205657E+01     -0.48877306E-11      0.96910080E-04     -0.33343785E-15
    2.507006606356         0.42123327E-03      0.14201346E+01     -0.50310686E-11      0.92922148E-04     -0.32919253E-15
    2.522675397646         0.40624110E-03      0.13902652E+01     -0.53477146E-11      0.87185182E-04     -0.33536154E-15
    2.538344188935         0.39147777E-03      0.13654795E+01     -0.55156243E-11      0.82009530E-04     -0.33126368E-15
