 
 # Omega; pulse ft; projected flux at t=    200.050000000000     
    0.000000000000         0.78488106E-07      0.00000000E+00      0.00000000E+00      0.74051218E-15     -0.14999128E-22
    0.015668791290         0.84527593E-07      0.30063729E-09     -0.71397082E-17      0.63158005E-15     -0.14999128E-22
    0.031337582579         0.10274644E-06      0.43203829E-09     -0.11747410E-16      0.55162772E-15     -0.14999127E-22
    0.047006373869         0.13344658E-06      0.44945792E-09     -0.13567280E-16      0.49689231E-15     -0.14999129E-22
    0.062675165159         0.17713370E-06      0.39936763E-09     -0.13628183E-16      0.43954274E-15     -0.14999135E-22
    0.078343956449         0.23452101E-06      0.33342781E-09     -0.12866705E-16      0.38868754E-15     -0.14999133E-22
    0.094012747738         0.30653431E-06      0.29695058E-09     -0.11812755E-16      0.37705011E-15     -0.14999130E-22
    0.109681539028         0.39431853E-06      0.26766452E-09     -0.10713461E-16      0.37473736E-15     -0.14999127E-22
    0.125350330318         0.49924541E-06      0.21540693E-09     -0.96706362E-17      0.33409565E-15     -0.14999134E-22
    0.141019121608         0.62292244E-06      0.16343980E-09     -0.87194185E-17      0.28114888E-15     -0.14999129E-22
    0.156687912897         0.76720276E-06      0.13367586E-09     -0.78662677E-17      0.25488847E-15     -0.14999125E-22
    0.172356704187         0.93419598E-06      0.11991505E-09     -0.71061395E-17      0.25310809E-15     -0.14999131E-22
    0.188025495477         0.11262798E-05      0.11495370E-09     -0.64300455E-17      0.26814829E-15     -0.14999132E-22
    0.203694286766         0.13461120E-05      0.11004402E-09     -0.58282877E-17      0.28319875E-15     -0.14999123E-22
    0.219363078056         0.15966432E-05      0.98184246E-10     -0.52917470E-17      0.27829712E-15     -0.14999127E-22
    0.235031869346         0.18811296E-05      0.85356222E-10     -0.48122861E-17      0.26604168E-15     -0.14999126E-22
    0.250700660636         0.22031453E-05      0.75782500E-10     -0.43828436E-17      0.25934575E-15     -0.14999134E-22
    0.266369451925         0.25665955E-05      0.75332290E-10     -0.39973334E-17      0.28266805E-15     -0.14999125E-22
    0.282038243215         0.29757282E-05      0.90841585E-10     -0.36505503E-17      0.37324372E-15     -0.14999132E-22
    0.297707034505         0.34351458E-05      0.97511332E-10     -0.33380077E-17      0.43816099E-15     -0.14999126E-22
    0.313375825794         0.39498158E-05      0.73099138E-10     -0.30558518E-17      0.35879481E-15     -0.14999134E-22
    0.329044617084         0.45250803E-05      0.51459078E-10     -0.28007352E-17      0.27558530E-15     -0.14999131E-22
    0.344713408374         0.51666645E-05      0.62114253E-10     -0.25697544E-17      0.36254832E-15     -0.14999136E-22
    0.360382199664         0.58806831E-05      0.77094975E-10     -0.23603642E-17      0.48990634E-15     -0.14999128E-22
    0.376050990953         0.66736456E-05      0.71405604E-10     -0.21703373E-17      0.49348192E-15     -0.14999134E-22
    0.391719782243         0.75524593E-05      0.57726502E-10     -0.19977009E-17      0.43342172E-15     -0.14999124E-22
    0.407388573533         0.85244303E-05      0.48148386E-10     -0.18407165E-17      0.39233839E-15     -0.14999126E-22
    0.423057364823         0.95972623E-05      0.41934705E-10     -0.16978343E-17      0.37046249E-15     -0.14999126E-22
    0.438726156112         0.10779053E-04      0.38570094E-10     -0.15676767E-17      0.36902884E-15     -0.14999131E-22
    0.454394947402         0.12078285E-04      0.35995657E-10     -0.14490110E-17      0.37260136E-15     -0.14999128E-22
    0.470063738692         0.13503823E-04      0.30298116E-10     -0.13407366E-17      0.33895196E-15     -0.14999128E-22
    0.485732529981         0.15064893E-04      0.22475162E-10     -0.12418659E-17      0.27145275E-15     -0.14999131E-22
    0.501401321271         0.16771074E-04      0.17678616E-10     -0.11515113E-17      0.23027470E-15     -0.14999133E-22
    0.517070112561         0.18632276E-04      0.17209322E-10     -0.10688752E-17      0.24149203E-15     -0.14999128E-22
    0.532738903851         0.20658721E-04      0.19877093E-10     -0.99324053E-18      0.30016802E-15     -0.14999127E-22
    0.548407695140         0.22860913E-04      0.28742638E-10     -0.92396039E-18      0.46659405E-15     -0.14999125E-22
    0.564076486430         0.25249616E-04      0.41464248E-10     -0.86045214E-18      0.72279165E-15     -0.14999129E-22
    0.579745277720         0.27835821E-04      0.46042663E-10     -0.80218908E-18      0.86089422E-15     -0.14999131E-22
    0.595414069010         0.30630708E-04      0.41925418E-10     -0.74869581E-18      0.83991994E-15     -0.14999124E-22
    0.611082860299         0.33645612E-04      0.39257850E-10     -0.69954407E-18      0.84173888E-15     -0.14999126E-22
    0.626751651589         0.36891980E-04      0.36872571E-10     -0.65434499E-18      0.84520575E-15     -0.14999121E-22
    0.642420442879         0.40381327E-04      0.36158544E-10     -0.61274877E-18      0.88510484E-15     -0.14999136E-22
    0.658089234168         0.44125190E-04      0.46850401E-10     -0.57443670E-18      0.12233132E-14     -0.14999146E-22
    0.673758025458         0.48135077E-04      0.60787126E-10     -0.53912034E-18      0.16911880E-14     -0.14999127E-22
    0.689426816748         0.52422417E-04      0.73343354E-10     -0.50654175E-18      0.21717618E-14     -0.14999150E-22
    0.705095608038         0.56998500E-04      0.10241492E-09     -0.47646133E-18      0.32240456E-14     -0.14999115E-22
    0.720764399327         0.61874426E-04      0.13816245E-09     -0.44866949E-18      0.46188135E-14     -0.14999160E-22
    0.736433190617         0.67061043E-04      0.14675519E-09     -0.42296566E-18      0.52041879E-14     -0.14999079E-22
    0.752101981907         0.72568884E-04      0.14560772E-09     -0.39918116E-18      0.54711756E-14     -0.14999138E-22
    0.767770773197         0.78408110E-04      0.18592720E-09     -0.37715255E-18      0.73942628E-14     -0.14999231E-22
    0.783439564486         0.84588444E-04      0.25069302E-09     -0.35672777E-18      0.10540721E-13     -0.14999093E-22
    0.799108355776         0.91119103E-04      0.25364787E-09     -0.33778686E-18      0.11263089E-13     -0.14999233E-22
    0.814777147066         0.98008741E-04      0.16806089E-09     -0.32019591E-18      0.78725453E-14     -0.14999069E-22
    0.830445938355         0.10526538E-03      0.77536124E-10     -0.30385739E-18      0.38273732E-14     -0.14999146E-22
    0.846114729645         0.11289633E-03      0.48477679E-10     -0.28866369E-18      0.25189233E-14     -0.14999103E-22
    0.861783520935         0.12090818E-03      0.50019138E-10     -0.27452760E-18      0.27328528E-14     -0.14999129E-22
    0.877452312225         0.12930664E-03      0.49510108E-10     -0.26136330E-18      0.28412780E-14     -0.14999074E-22
    0.893121103514         0.13809658E-03      0.57057002E-10     -0.24909813E-18      0.34356116E-14     -0.14999113E-22
    0.908789894804         0.14728189E-03      0.63925075E-10     -0.23766135E-18      0.40344065E-14     -0.14999161E-22
    0.924458686094         0.15686548E-03      0.67477786E-10     -0.22698965E-18      0.44588540E-14     -0.14999213E-22
    0.940127477383         0.16684918E-03      0.97144978E-10     -0.21702339E-18      0.67139830E-14     -0.14999142E-22
    0.955796268673         0.17723372E-03      0.14555227E-09     -0.20771454E-18      0.10510480E-13     -0.14999282E-22
    0.971465059963         0.18801865E-03      0.18964914E-09     -0.19900737E-18      0.14293783E-13     -0.14999109E-22
    0.987133851253         0.19920233E-03      0.23719793E-09     -0.19086689E-18      0.18640253E-13     -0.14999318E-22
    1.002802642542         0.21078183E-03      0.25182701E-09     -0.18324056E-18      0.20613064E-13     -0.14998985E-22
    1.018471433832         0.22275296E-03      0.18132157E-09     -0.17610485E-18      0.15443532E-13     -0.14999214E-22
    1.034140225122         0.23511020E-03      0.79086748E-10     -0.16941398E-18      0.70019385E-14     -0.14999053E-22
    1.049809016412         0.24784665E-03      0.29584146E-10     -0.16314391E-18      0.27199087E-14     -0.14999133E-22
    1.065477807701         0.26095404E-03      0.29595275E-10     -0.15726151E-18      0.28226988E-14     -0.14999079E-22
    1.081146598991         0.27442272E-03      0.40985787E-10     -0.15174262E-18      0.40512711E-14     -0.14999114E-22
    1.096815390281         0.28824160E-03      0.49200008E-10     -0.14656074E-18      0.50351317E-14     -0.14999035E-22
    1.112484181570         0.30239817E-03      0.54076783E-10     -0.14169728E-18      0.57242515E-14     -0.14999244E-22
    1.128152972860         0.31687851E-03      0.61960566E-10     -0.13712582E-18      0.67773938E-14     -0.14999148E-22
    1.143821764150         0.33166728E-03      0.67713445E-10     -0.13283198E-18      0.76461308E-14     -0.14999247E-22
    1.159490555440         0.34674771E-03      0.62400941E-10     -0.12879440E-18      0.72670820E-14     -0.14999124E-22
    1.175159346729         0.36210166E-03      0.58309938E-10     -0.12500055E-18      0.69967906E-14     -0.14999204E-22
    1.190828138019         0.37770961E-03      0.63088496E-10     -0.12143197E-18      0.77925870E-14     -0.14999077E-22
    1.206496929309         0.39355070E-03      0.65638176E-10     -0.11807839E-18      0.83378392E-14     -0.14999177E-22
    1.222165720599         0.40960277E-03      0.64748434E-10     -0.11492335E-18      0.84505427E-14     -0.14999045E-22
    1.237834511888         0.42584240E-03      0.69253046E-10     -0.11195861E-18      0.92778584E-14     -0.14999139E-22
    1.253503303178         0.44224495E-03      0.78823707E-10     -0.10916945E-18      0.10829709E-13     -0.14998957E-22
    1.269172094468         0.45878463E-03      0.81642058E-10     -0.10655018E-18      0.11492773E-13     -0.14999095E-22
    1.284840885757         0.47543453E-03      0.67049743E-10     -0.10408896E-18      0.96618665E-14     -0.14999217E-22
    1.300509677047         0.49216674E-03      0.42693525E-10     -0.10177431E-18      0.62919205E-14     -0.14998900E-22
    1.316178468337         0.50895237E-03      0.25544970E-10     -0.99605792E-19      0.38467176E-14     -0.14999248E-22
    1.331847259627         0.52576165E-03      0.20927515E-10     -0.97568097E-19      0.32171750E-14     -0.14999088E-22
    1.347516050916         0.54256402E-03      0.25581354E-10     -0.95659134E-19      0.40110965E-14     -0.14999129E-22
    1.363184842206         0.55932820E-03      0.33053185E-10     -0.93871372E-19      0.52813850E-14     -0.14999185E-22
    1.378853633496         0.57602230E-03      0.34300978E-10     -0.92198942E-19      0.55802052E-14     -0.14999252E-22
    1.394522424785         0.59261389E-03      0.28258516E-10     -0.90634616E-19      0.46764707E-14     -0.14999023E-22
    1.410191216075         0.60907015E-03      0.22869338E-10     -0.89177077E-19      0.38464974E-14     -0.14999096E-22
    1.425860007365         0.62535790E-03      0.21972067E-10     -0.87819699E-19      0.37527117E-14     -0.14999136E-22
    1.441528798655         0.64144377E-03      0.21785932E-10     -0.86558446E-19      0.37751478E-14     -0.14999171E-22
    1.457197589944         0.65729430E-03      0.20099725E-10     -0.85388358E-19      0.35306452E-14     -0.14999011E-22
    1.472866381234         0.67287601E-03      0.19193756E-10     -0.84308240E-19      0.34147131E-14     -0.14999068E-22
    1.488535172524         0.68815556E-03      0.19309140E-10     -0.83313458E-19      0.34762660E-14     -0.14999101E-22
    1.504203963814         0.70309983E-03      0.18915064E-10     -0.82401195E-19      0.34430286E-14     -0.14999139E-22
    1.519872755103         0.71767605E-03      0.18905456E-10     -0.81568744E-19      0.34764095E-14     -0.14999181E-22
    1.535541546393         0.73185192E-03      0.19779623E-10     -0.80813673E-19      0.36711507E-14     -0.14999232E-22
    1.551210337683         0.74559572E-03      0.20301497E-10     -0.80132536E-19      0.37999975E-14     -0.14999064E-22
    1.566879128972         0.75887640E-03      0.19728943E-10     -0.79525656E-19      0.37210192E-14     -0.14999105E-22
    1.582547920262         0.77166373E-03      0.17811184E-10     -0.78990137E-19      0.33821009E-14     -0.14999149E-22
    1.598216711552         0.78392837E-03      0.15104438E-10     -0.78524352E-19      0.28851462E-14     -0.14999184E-22
    1.613885502842         0.79564201E-03      0.12824086E-10     -0.78126184E-19      0.24620335E-14     -0.14999063E-22
    1.629554294131         0.80677746E-03      0.11626021E-10     -0.77796044E-19      0.22414992E-14     -0.14999092E-22
    1.645223085421         0.81730875E-03      0.11833719E-10     -0.77532853E-19      0.22893128E-14     -0.14999254E-22
    1.660891876711         0.82721120E-03      0.12968259E-10     -0.77333772E-19      0.25152390E-14     -0.14999155E-22
    1.676560668001         0.83646159E-03      0.13589582E-10     -0.77200194E-19      0.26403128E-14     -0.14999185E-22
    1.692229459290         0.84503813E-03      0.13200174E-10     -0.77130227E-19      0.25669609E-14     -0.14999066E-22
    1.707898250580         0.85292067E-03      0.12209710E-10     -0.77125154E-19      0.23745129E-14     -0.14999101E-22
    1.723567041870         0.86009066E-03      0.10549539E-10     -0.77184022E-19      0.20500861E-14     -0.14999128E-22
    1.739235833159         0.86653130E-03      0.85368300E-11     -0.77306888E-19      0.16563227E-14     -0.14999145E-22
    1.754904624449         0.87222756E-03      0.72866100E-11     -0.77493566E-19      0.14103417E-14     -0.14999075E-22
    1.770573415739         0.87716626E-03      0.71585547E-11     -0.77745365E-19      0.13810706E-14     -0.14999094E-22
    1.786242207029         0.88133612E-03      0.75170736E-11     -0.78062387E-19      0.14443504E-14     -0.14999114E-22
    1.801910998318         0.88472776E-03      0.79997620E-11     -0.78445338E-19      0.15295931E-14     -0.14999128E-22
    1.817579789608         0.88733380E-03      0.88954435E-11     -0.78895185E-19      0.16911561E-14     -0.14999148E-22
    1.833248580898         0.88914883E-03      0.10151767E-10     -0.79412431E-19      0.19174201E-14     -0.14999063E-22
    1.848917372188         0.89016948E-03      0.11092522E-10     -0.80000110E-19      0.20797352E-14     -0.14999208E-22
    1.864586163477         0.89039438E-03      0.11600625E-10     -0.80657158E-19      0.21572669E-14     -0.14999107E-22
    1.880254954767         0.88982421E-03      0.12030203E-10     -0.81387237E-19      0.22170883E-14     -0.14999139E-22
    1.895923746057         0.88846165E-03      0.12387446E-10     -0.82190741E-19      0.22605918E-14     -0.14999033E-22
    1.911592537346         0.88631143E-03      0.12529989E-10     -0.83071969E-19      0.22623733E-14     -0.14999199E-22
    1.927261328636         0.88338022E-03      0.12196979E-10     -0.84030202E-19      0.21771175E-14     -0.14999094E-22
    1.942930119926         0.87967671E-03      0.11398432E-10     -0.85070185E-19      0.20097108E-14     -0.14999122E-22
    1.958598911216         0.87521148E-03      0.10665439E-10     -0.86193233E-19      0.18559608E-14     -0.14999031E-22
    1.974267702505         0.86999702E-03      0.10417809E-10     -0.87404320E-19      0.17877659E-14     -0.14999168E-22
    1.989936493795         0.86404764E-03      0.10470782E-10     -0.88704082E-19      0.17705172E-14     -0.14999080E-22
    2.005605285085         0.85737944E-03      0.10004691E-10     -0.90097973E-19      0.16655353E-14     -0.14999099E-22
    2.021274076374         0.85001023E-03      0.88784585E-11     -0.91589698E-19      0.14539821E-14     -0.14999201E-22
    2.036942867664         0.84195947E-03      0.80020708E-11     -0.93181899E-19      0.12880635E-14     -0.14999143E-22
    2.052611658954         0.83324819E-03      0.76357741E-11     -0.94880421E-19      0.12070999E-14     -0.14999153E-22
    2.068280450244         0.82389892E-03      0.72635745E-11     -0.96689274E-19      0.11267756E-14     -0.14999105E-22
    2.083949241533         0.81393556E-03      0.67380567E-11     -0.98614747E-19      0.10248495E-14     -0.14999172E-22
    2.099618032823         0.80338335E-03      0.63814909E-11     -0.10066100E-18      0.95088333E-15     -0.14999139E-22
    2.115286824113         0.79226874E-03      0.63581823E-11     -0.10283484E-18      0.92738225E-15     -0.14999130E-22
    2.130955615403         0.78061928E-03      0.64665949E-11     -0.10514239E-18      0.92249297E-15     -0.14999102E-22
    2.146624406692         0.76846355E-03      0.64241944E-11     -0.10759091E-18      0.89558834E-15     -0.14999104E-22
    2.162293197982         0.75583102E-03      0.67736619E-11     -0.11018772E-18      0.92205365E-15     -0.14999123E-22
    2.177961989272         0.74275198E-03      0.87849472E-11     -0.11294058E-18      0.11666893E-14     -0.14999130E-22
    2.193630780561         0.72925737E-03      0.11665107E-10     -0.11585754E-18      0.15101794E-14     -0.14999063E-22
    2.209299571851         0.71537875E-03      0.13201214E-10     -0.11894897E-18      0.16646305E-14     -0.14999082E-22
    2.224968363141         0.70114811E-03      0.13035123E-10     -0.12222488E-18      0.15996449E-14     -0.14999200E-22
    2.240637154431         0.68659782E-03      0.11794199E-10     -0.12569334E-18      0.14074140E-14     -0.14999117E-22
    2.256305945720         0.67176047E-03      0.10163185E-10     -0.12936812E-18      0.11783351E-14     -0.14999137E-22
    2.271974737010         0.65666880E-03      0.91397793E-11     -0.13325989E-18      0.10287294E-14     -0.14999089E-22
    2.287643528300         0.64135554E-03      0.96798597E-11     -0.13738334E-18      0.10568226E-14     -0.14999167E-22
    2.303312319590         0.62585337E-03      0.11735658E-10     -0.14175003E-18      0.12417946E-14     -0.14999110E-22
    2.318981110879         0.61019475E-03      0.14533795E-10     -0.14637674E-18      0.14892679E-14     -0.14999123E-22
    2.334649902169         0.59441187E-03      0.19614109E-10     -0.15127773E-18      0.19447189E-14     -0.14999033E-22
    2.350318693459         0.57853650E-03      0.26733000E-10     -0.15647362E-18      0.25625613E-14     -0.14999186E-22
    2.365987484748         0.56259995E-03      0.29934989E-10     -0.16197728E-18      0.27719723E-14     -0.14999055E-22
    2.381656276038         0.54663294E-03      0.26635179E-10     -0.16781315E-18      0.23806463E-14     -0.14999102E-22
    2.397325067328         0.53066553E-03      0.21346754E-10     -0.17399888E-18      0.18401293E-14     -0.14999022E-22
    2.412993858618         0.51472703E-03      0.18642061E-10     -0.18056079E-18      0.15485927E-14     -0.14999153E-22
    2.428662649907         0.49884594E-03      0.18930583E-10     -0.18751895E-18      0.15142089E-14     -0.14999161E-22
    2.444331441197         0.48304986E-03      0.18847103E-10     -0.19489952E-18      0.14504375E-14     -0.14999099E-22
    2.460000232487         0.46736545E-03      0.16756826E-10     -0.20273265E-18      0.12397547E-14     -0.14999186E-22
    2.475669023776         0.45181835E-03      0.15611767E-10     -0.21104375E-18      0.11095474E-14     -0.14999139E-22
    2.491337815066         0.43643313E-03      0.16958440E-10     -0.21986639E-18      0.11568939E-14     -0.14999144E-22
    2.507006606356         0.42123327E-03      0.19443682E-10     -0.22923199E-18      0.12722376E-14     -0.14999092E-22
    2.522675397646         0.40624110E-03      0.22762777E-10     -0.23917872E-18      0.14274808E-14     -0.14999182E-22
    2.538344188935         0.39147777E-03      0.26218247E-10     -0.24973893E-18      0.15746454E-14     -0.14999106E-22
