 #KVL flux sum: time, flux integral, flux

    0.000000000000         0.00000000E+00      0.00000000E+00      0.00000000E+00      0.00000000E+00
    1.000000000000         0.26756738E-14     -0.12697869E-22      0.26756738E-14     -0.12697869E-22
    2.000000000000         0.86362754E-13     -0.24825291E-22      0.83687080E-13     -0.12127422E-22
    3.000000000000         0.36165085E-10     -0.33268478E-22      0.36078723E-10     -0.84431875E-23
    4.000000000000         0.41685009E-08     -0.56447651E-22      0.41323359E-08     -0.23179172E-22
    5.000000000000         0.34495814E-07      0.13226389E-21      0.30327313E-07      0.18871154E-21
    6.000000000000         0.17862105E-06     -0.92244828E-21      0.14412524E-06     -0.10547122E-20
    7.000000000000         0.68108893E-06     -0.13362526E-19      0.50246787E-06     -0.12440078E-19
    8.000000000000         0.69466782E-05     -0.27458426E-19      0.62655893E-05     -0.14095900E-19
    9.000000000000         0.51232100E-04     -0.17369990E-18      0.44285421E-04     -0.14624148E-18
   10.000000000000         0.24273277E-03      0.63158102E-18      0.19150068E-03      0.80528092E-18
   11.000000000000         0.98337210E-03      0.53703142E-17      0.74063932E-03      0.47387332E-17
   12.000000000000         0.33240727E-02      0.60953685E-17      0.23407006E-02      0.72505433E-18
   13.000000000000         0.82716896E-02     -0.35554660E-17      0.49476168E-02     -0.96508346E-17
   14.000000000000         0.16018866E-01     -0.12337510E-16      0.77471759E-02     -0.87820435E-17
   15.000000000000         0.26304378E-01     -0.89754299E-17      0.10285513E-01      0.33620797E-17
   16.000000000000         0.38443391E-01     -0.31973333E-16      0.12139012E-01     -0.22997903E-16
   17.000000000000         0.51803233E-01     -0.41193081E-16      0.13359842E-01     -0.92197477E-17
   18.000000000000         0.66002800E-01     -0.41517924E-16      0.14199568E-01     -0.32484301E-18
   19.000000000000         0.80726900E-01     -0.51916318E-16      0.14724100E-01     -0.10398394E-16
   20.000000000000         0.95642222E-01     -0.44098845E-16      0.14915322E-01      0.78174730E-17
   21.000000000000         0.11043283E+00     -0.52715929E-16      0.14790610E-01     -0.86170838E-17
   22.000000000000         0.12475772E+00     -0.22689570E-16      0.14324889E-01      0.30026359E-16
   23.000000000000         0.13867624E+00     -0.45751407E-17      0.13918518E-01      0.18114429E-16
   24.000000000000         0.15212841E+00      0.30157510E-17      0.13452168E-01      0.75908916E-17
   25.000000000000         0.16470510E+00      0.28969487E-17      0.12576689E-01     -0.11880224E-18
   26.000000000000         0.17608160E+00      0.28052286E-16      0.11376503E-01      0.25155337E-16
   27.000000000000         0.18637990E+00      0.14720193E-16      0.10298298E-01     -0.13332093E-16
   28.000000000000         0.19549876E+00      0.25130911E-16      0.91188586E-02      0.10410717E-16
   29.000000000000         0.20343963E+00      0.29854596E-16      0.79408693E-02      0.47236851E-17
   30.000000000000         0.21059964E+00      0.26280164E-16      0.71600167E-02     -0.35744320E-17
   31.000000000000         0.21720922E+00      0.33489679E-16      0.66095741E-02      0.72095151E-17
   32.000000000000         0.22333097E+00      0.39966702E-16      0.61217486E-02      0.64770235E-17
   33.000000000000         0.22891133E+00      0.14166920E-16      0.55803612E-02     -0.25799782E-16
   34.000000000000         0.23396703E+00      0.25005574E-16      0.50557037E-02      0.10838654E-16
   35.000000000000         0.23871185E+00      0.38230929E-16      0.47448150E-02      0.13225355E-16
   36.000000000000         0.24336500E+00     -0.43047951E-17      0.46531521E-02     -0.42535724E-16
   37.000000000000         0.24764872E+00     -0.70685107E-17      0.42837222E-02     -0.27637156E-17
   38.000000000000         0.25138009E+00     -0.11163206E-16      0.37313720E-02     -0.40946955E-17
   39.000000000000         0.25475728E+00     -0.29754738E-16      0.33771902E-02     -0.18591532E-16
   40.000000000000         0.25802907E+00     -0.53282037E-16      0.32717833E-02     -0.23527299E-16
   41.000000000000         0.26126501E+00     -0.44718011E-16      0.32359430E-02      0.85640266E-17
   42.000000000000         0.26440947E+00     -0.67271900E-16      0.31444641E-02     -0.22553889E-16
   43.000000000000         0.26732596E+00     -0.62992624E-16      0.29164894E-02      0.42792757E-17
   44.000000000000         0.26991572E+00     -0.71061294E-16      0.25897621E-02     -0.80686697E-17
   45.000000000000         0.27212027E+00     -0.73072473E-16      0.22045458E-02     -0.20111797E-17
   46.000000000000         0.27390039E+00     -0.73242349E-16      0.17801190E-02     -0.16987568E-18
   47.000000000000         0.27523142E+00     -0.75795749E-16      0.13310318E-02     -0.25533999E-17
   48.000000000000         0.27614433E+00     -0.81724827E-16      0.91291216E-03     -0.59290777E-17
   49.000000000000         0.27678210E+00     -0.80789391E-16      0.63776305E-03      0.93543614E-18
   50.000000000000         0.27732600E+00     -0.82394047E-16      0.54390334E-03     -0.16046569E-17
   51.000000000000         0.27790182E+00     -0.76840892E-16      0.57581996E-03      0.55531554E-17
   52.000000000000         0.27856699E+00     -0.71266468E-16      0.66517549E-03      0.55744238E-17
   53.000000000000         0.27932884E+00     -0.71885576E-16      0.76184155E-03     -0.61910755E-18
   54.000000000000         0.28013146E+00     -0.68827369E-16      0.80262085E-03      0.30582066E-17
   55.000000000000         0.28093641E+00     -0.65781551E-16      0.80495183E-03      0.30458187E-17
   56.000000000000         0.28174748E+00     -0.70658772E-16      0.81106738E-03     -0.48772216E-17
   57.000000000000         0.28253838E+00     -0.67472769E-16      0.79090479E-03      0.31860027E-17
   58.000000000000         0.28324286E+00     -0.54869243E-16      0.70447461E-03      0.12603527E-16
   59.000000000000         0.28381421E+00     -0.53608440E-16      0.57135542E-03      0.12608027E-17
   60.000000000000         0.28423882E+00     -0.68762712E-16      0.42461128E-03     -0.15154272E-16
   61.000000000000         0.28454577E+00     -0.72830170E-16      0.30695202E-03     -0.40674581E-17
   62.000000000000         0.28478338E+00     -0.60858319E-16      0.23760755E-03      0.11971852E-16
   63.000000000000         0.28502478E+00     -0.59517154E-16      0.24140052E-03      0.13411649E-17
   64.000000000000         0.28529178E+00     -0.60669760E-16      0.26699475E-03     -0.11526060E-17
   65.000000000000         0.28558097E+00     -0.60213215E-16      0.28919047E-03      0.45654489E-18
   66.000000000000         0.28586472E+00     -0.63078309E-16      0.28375523E-03     -0.28650948E-17
   67.000000000000         0.28609170E+00     -0.66501493E-16      0.22697923E-03     -0.34231837E-17
   68.000000000000         0.28626151E+00     -0.75146423E-16      0.16980788E-03     -0.86449300E-17
   69.000000000000         0.28643631E+00     -0.90423939E-16      0.17480466E-03     -0.15277516E-16
   70.000000000000         0.28664479E+00     -0.95489337E-16      0.20847424E-03     -0.50653986E-17
   71.000000000000         0.28685469E+00     -0.91320604E-16      0.20990504E-03      0.41687330E-17
   72.000000000000         0.28704763E+00     -0.94299837E-16      0.19293929E-03     -0.29792325E-17
   73.000000000000         0.28724192E+00     -0.90415551E-16      0.19428301E-03      0.38842854E-17
   74.000000000000         0.28744378E+00     -0.91308224E-16      0.20186890E-03     -0.89267272E-18
   75.000000000000         0.28764539E+00     -0.95865042E-16      0.20160589E-03     -0.45568181E-17
   76.000000000000         0.28783942E+00     -0.93547857E-16      0.19403377E-03      0.23171851E-17
   77.000000000000         0.28802323E+00     -0.83416926E-16      0.18380212E-03      0.10130932E-16
   78.000000000000         0.28818936E+00     -0.85264734E-16      0.16613369E-03     -0.18478082E-17
   79.000000000000         0.28833300E+00     -0.87906424E-16      0.14364302E-03     -0.26416899E-17
   80.000000000000         0.28843135E+00     -0.82233479E-16      0.98347449E-04      0.56729444E-17
   81.000000000000         0.28850967E+00     -0.89447764E-16      0.78317935E-04     -0.72142847E-17
   82.000000000000         0.28861274E+00     -0.87907017E-16      0.10307465E-03      0.15407471E-17
   83.000000000000         0.28875986E+00     -0.88573744E-16      0.14711601E-03     -0.66672668E-18
   84.000000000000         0.28894151E+00     -0.96677155E-16      0.18165011E-03     -0.81034113E-17
   85.000000000000         0.28912636E+00     -0.93742933E-16      0.18484990E-03      0.29342221E-17
   86.000000000000         0.28928482E+00     -0.90067769E-16      0.15845874E-03      0.36751642E-17
   87.000000000000         0.28940057E+00     -0.87824672E-16      0.11574854E-03      0.22430962E-17
   88.000000000000         0.28946183E+00     -0.87403279E-16      0.61263253E-04      0.42139302E-18
   89.000000000000         0.28947926E+00     -0.85546774E-16      0.17435015E-04      0.18565051E-17
   90.000000000000         0.28948078E+00     -0.95356725E-16      0.15168623E-05     -0.98099510E-17
   91.000000000000         0.28949010E+00     -0.90803797E-16      0.93216888E-05      0.45529286E-17
   92.000000000000         0.28951618E+00     -0.93614880E-16      0.26076175E-04     -0.28110832E-17
   93.000000000000         0.28957135E+00     -0.91407492E-16      0.55166981E-04      0.22073885E-17
   94.000000000000         0.28966676E+00     -0.95129228E-16      0.95415995E-04     -0.37217363E-17
   95.000000000000         0.28980534E+00     -0.83746335E-16      0.13857336E-03      0.11382893E-16
   96.000000000000         0.28996907E+00     -0.88219310E-16      0.16373878E-03     -0.44729751E-17
   97.000000000000         0.29011046E+00     -0.83977693E-16      0.14138802E-03      0.42416175E-17
   98.000000000000         0.29018961E+00     -0.80846284E-16      0.79149564E-04      0.31314088E-17
   99.000000000000         0.29019804E+00     -0.74003428E-16      0.84293868E-05      0.68428557E-17
  100.000000000000         0.29014793E+00     -0.78144261E-16     -0.50109675E-04     -0.41408323E-17
  101.000000000000         0.29006613E+00     -0.81741007E-16     -0.81799345E-04     -0.35967460E-17
  102.000000000000         0.28998668E+00     -0.75186248E-16     -0.79450352E-04      0.65547586E-17
  103.000000000000         0.28994095E+00     -0.73023673E-16     -0.45732232E-04      0.21625751E-17
  104.000000000000         0.28995410E+00     -0.76781091E-16      0.13146313E-04     -0.37574176E-17
  105.000000000000         0.29002914E+00     -0.76244289E-16      0.75041973E-04      0.53680126E-18
  106.000000000000         0.29012984E+00     -0.72141691E-16      0.10070362E-03      0.41025982E-17
  107.000000000000         0.29021005E+00     -0.79555515E-16      0.80203055E-04     -0.74138239E-17
  108.000000000000         0.29024242E+00     -0.77704277E-16      0.32372371E-04      0.18512376E-17
  109.000000000000         0.29021710E+00     -0.74251770E-16     -0.25318438E-04      0.34525070E-17
  110.000000000000         0.29013291E+00     -0.76150394E-16     -0.84188294E-04     -0.18986236E-17
  111.000000000000         0.29001120E+00     -0.82449625E-16     -0.12171026E-03     -0.62992311E-17
  112.000000000000         0.28988300E+00     -0.84524259E-16     -0.12819934E-03     -0.20746344E-17
  113.000000000000         0.28976706E+00     -0.90651731E-16     -0.11593670E-03     -0.61274712E-17
  114.000000000000         0.28966026E+00     -0.79360774E-16     -0.10680233E-03      0.11290957E-16
  115.000000000000         0.28956120E+00     -0.81961965E-16     -0.99061178E-04     -0.26011911E-17
  116.000000000000         0.28948468E+00     -0.82727361E-16     -0.76522109E-04     -0.76539609E-18
  117.000000000000         0.28944015E+00     -0.81421136E-16     -0.44527590E-04      0.13062248E-17
  118.000000000000         0.28941403E+00     -0.80113720E-16     -0.26120159E-04      0.13074160E-17
  119.000000000000         0.28937710E+00     -0.82331020E-16     -0.36930360E-04     -0.22172999E-17
  120.000000000000         0.28931065E+00     -0.78642621E-16     -0.66449004E-04      0.36883991E-17
  121.000000000000         0.28921351E+00     -0.82111015E-16     -0.97140408E-04     -0.34683940E-17
  122.000000000000         0.28909211E+00     -0.86580242E-16     -0.12140591E-03     -0.44692263E-17
  123.000000000000         0.28895699E+00     -0.92661984E-16     -0.13511387E-03     -0.60817421E-17
  124.000000000000         0.28882089E+00     -0.94782590E-16     -0.13610137E-03     -0.21206058E-17
  125.000000000000         0.28869242E+00     -0.96158035E-16     -0.12846882E-03     -0.13754451E-17
  126.000000000000         0.28858438E+00     -0.10022942E-15     -0.10804503E-03     -0.40713855E-17
  127.000000000000         0.28850511E+00     -0.10090030E-15     -0.79268128E-04     -0.67088244E-18
  128.000000000000         0.28846167E+00     -0.10711316E-15     -0.43437710E-04     -0.62128585E-17
  129.000000000000         0.28845193E+00     -0.10660188E-15     -0.97413562E-05      0.51128439E-18
  130.000000000000         0.28845612E+00     -0.11062336E-15      0.41881440E-05     -0.40214797E-17
  131.000000000000         0.28845184E+00     -0.11322674E-15     -0.42728347E-05     -0.26033881E-17
  132.000000000000         0.28841767E+00     -0.11447600E-15     -0.34173854E-04     -0.12492537E-17
  133.000000000000         0.28834221E+00     -0.11548032E-15     -0.75465166E-04     -0.10043239E-17
  134.000000000000         0.28823599E+00     -0.10937372E-15     -0.10621420E-03      0.61065988E-17
  135.000000000000         0.28812879E+00     -0.10217381E-15     -0.10719721E-03      0.71999148E-17
  136.000000000000         0.28805160E+00     -0.98879194E-16     -0.77190096E-04      0.32946148E-17
  137.000000000000         0.28801963E+00     -0.10398816E-15     -0.31971605E-04     -0.51089645E-17
  138.000000000000         0.28802994E+00     -0.94847600E-16      0.10311132E-04      0.91405583E-17
  139.000000000000         0.28807337E+00     -0.97079750E-16      0.43429236E-04     -0.22321494E-17
  140.000000000000         0.28813994E+00     -0.10022039E-15      0.66564138E-04     -0.31406452E-17
  141.000000000000         0.28819591E+00     -0.10352555E-15      0.55974975E-04     -0.33051549E-17
  142.000000000000         0.28821375E+00     -0.10305709E-15      0.17842779E-04      0.46845629E-18
  143.000000000000         0.28819224E+00     -0.10066270E-15     -0.21513650E-04      0.23943975E-17
  144.000000000000         0.28814742E+00     -0.11003994E-15     -0.44824033E-04     -0.93772429E-17
  145.000000000000         0.28810236E+00     -0.11064986E-15     -0.45058627E-04     -0.60992253E-18
  146.000000000000         0.28807778E+00     -0.11210541E-15     -0.24576914E-04     -0.14555526E-17
  147.000000000000         0.28808485E+00     -0.10768669E-15      0.70640182E-05      0.44187202E-17
  148.000000000000         0.28812293E+00     -0.10618599E-15      0.38080625E-04      0.15007086E-17
  149.000000000000         0.28818336E+00     -0.10614735E-15      0.60432867E-04      0.38640005E-19
  150.000000000000         0.28825060E+00     -0.10227754E-15      0.67245289E-04      0.38698097E-17
  151.000000000000         0.28830799E+00     -0.10945412E-15      0.57388674E-04     -0.71765852E-17
  152.000000000000         0.28834595E+00     -0.11254262E-15      0.37952652E-04     -0.30884998E-17
  153.000000000000         0.28836350E+00     -0.11223871E-15      0.17550218E-04      0.30390690E-18
  154.000000000000         0.28836661E+00     -0.11247130E-15      0.31122254E-05     -0.23258259E-18
  155.000000000000         0.28836389E+00     -0.11447547E-15     -0.27154122E-05     -0.20041785E-17
  156.000000000000         0.28837115E+00     -0.11860544E-15      0.72572597E-05     -0.41299665E-17
  157.000000000000         0.28840228E+00     -0.11983830E-15      0.31131758E-04     -0.12328557E-17
  158.000000000000         0.28845535E+00     -0.12100067E-15      0.53071470E-04     -0.11623733E-17
  159.000000000000         0.28851691E+00     -0.11569417E-15      0.61554228E-04      0.53064967E-17
  160.000000000000         0.28857144E+00     -0.11535283E-15      0.54533244E-04      0.34134510E-18
  161.000000000000         0.28861285E+00     -0.12038929E-15      0.41407692E-04     -0.50364638E-17
  162.000000000000         0.28865037E+00     -0.11687003E-15      0.37518351E-04      0.35192572E-17
  163.000000000000         0.28869590E+00     -0.11379460E-15      0.45530923E-04      0.30754392E-17
  164.000000000000         0.28874284E+00     -0.10990582E-15      0.46938866E-04      0.38887753E-17
  165.000000000000         0.28877768E+00     -0.11239122E-15      0.34839219E-04     -0.24853991E-17
  166.000000000000         0.28880687E+00     -0.11113031E-15      0.29190315E-04      0.12609052E-17
  167.000000000000         0.28884166E+00     -0.10645956E-15      0.34789479E-04      0.46707588E-17
  168.000000000000         0.28888146E+00     -0.10416138E-15      0.39803796E-04      0.22981798E-17
  169.000000000000         0.28891981E+00     -0.10228697E-15      0.38352849E-04      0.18744052E-17
  170.000000000000         0.28895927E+00     -0.10456760E-15      0.39463040E-04     -0.22806288E-17
  171.000000000000         0.28900282E+00     -0.10371814E-15      0.43542207E-04      0.84946229E-18
  172.000000000000         0.28905099E+00     -0.10512419E-15      0.48170672E-04     -0.14060541E-17
  173.000000000000         0.28910191E+00     -0.10025475E-15      0.50920479E-04      0.48694410E-17
  174.000000000000         0.28915290E+00     -0.10055533E-15      0.50989254E-04     -0.30058346E-18
  175.000000000000         0.28920235E+00     -0.97425412E-16      0.49449065E-04      0.31299209E-17
  176.000000000000         0.28924569E+00     -0.94959940E-16      0.43345290E-04      0.24654723E-17
  177.000000000000         0.28927395E+00     -0.94727622E-16      0.28257744E-04      0.23231814E-18
  178.000000000000         0.28928553E+00     -0.93218692E-16      0.11578091E-04      0.15089304E-17
  179.000000000000         0.28929357E+00     -0.93456337E-16      0.80453712E-05     -0.23764494E-18
  180.000000000000         0.28931660E+00     -0.97005278E-16      0.23025520E-04     -0.35489416E-17
  181.000000000000         0.28935667E+00     -0.10095141E-15      0.40069662E-04     -0.39461339E-17
  182.000000000000         0.28940963E+00     -0.99240199E-16      0.52958223E-04      0.17112133E-17
  183.000000000000         0.28946481E+00     -0.99606546E-16      0.55181394E-04     -0.36634762E-18
  184.000000000000         0.28951510E+00     -0.10061987E-15      0.50294535E-04     -0.10133220E-17
  185.000000000000         0.28955784E+00     -0.10099541E-15      0.42734078E-04     -0.37554484E-18
  186.000000000000         0.28958694E+00     -0.10417237E-15      0.29102896E-04     -0.31769618E-17
  187.000000000000         0.28959876E+00     -0.99742690E-16      0.11823528E-04      0.44296853E-17
  188.000000000000         0.28960162E+00     -0.10132552E-15      0.28599198E-05     -0.15828259E-17
  189.000000000000         0.28961187E+00     -0.10297822E-15      0.10246419E-04     -0.16526995E-17
  190.000000000000         0.28964164E+00     -0.10053734E-15      0.29769280E-04      0.24408784E-17
  191.000000000000         0.28969065E+00     -0.10608772E-15      0.49012396E-04     -0.55503878E-17
  192.000000000000         0.28975817E+00     -0.10141508E-15      0.67523056E-04      0.46726481E-17
  193.000000000000         0.28982925E+00     -0.10239350E-15      0.71071944E-04     -0.97842819E-18
  194.000000000000         0.28988082E+00     -0.97477971E-16      0.51574147E-04      0.49155331E-17
