
 # Omega; pulse ft; proj flux t=    500.25000000000000     
    0.000000000000         0.48101695E-03      0.00000000E+00      0.00000000E+00      0.00000000E+00      0.00000000E+00      0.00000000E+00      0.00000000E+00
    0.006276908399         0.47770843E-03      0.80205899E-07     -0.22206741E-16      0.37832592E-09     -0.10474773E-18      0.47494343E-11     -0.13149838E-20
    0.012553816798         0.46785215E-03      0.13573289E-05     -0.17392214E-15      0.31351665E-08     -0.40172641E-18      0.44107741E-10     -0.63581836E-20
    0.018830725196         0.45165593E-03      0.30555735E-05      0.28889875E-15      0.45423028E-08      0.42946622E-18      0.10113098E-09     -0.96674335E-21
    0.025107633595         0.42946588E-03      0.26623528E-05      0.13436525E-15      0.28224819E-08      0.14244674E-18      0.13656390E-09      0.82150694E-21
    0.031384541994         0.40176601E-03      0.70301901E-06      0.99719452E-16      0.55778540E-09      0.79118847E-19      0.14356623E-09      0.18147505E-20
    0.037661450393         0.36917769E-03     -0.14838444E-05     -0.14023034E-15     -0.90150771E-09     -0.85196759E-19      0.13224887E-09      0.74520595E-21
    0.043938358791         0.33245900E-03     -0.34002419E-05      0.19620639E-16     -0.15945816E-08      0.92013189E-20      0.11223079E-09      0.86071762E-21
    0.050215267190         0.29250384E-03     -0.43780845E-05      0.27940516E-16     -0.15806023E-08      0.10087253E-19      0.92388195E-10      0.98735114E-21
    0.056492175589         0.25034100E-03     -0.44548049E-05      0.24507262E-15     -0.12235312E-08      0.67310240E-19      0.77028209E-10      0.18323516E-20
    0.062769083988         0.20713294E-03     -0.62254698E-05      0.18739738E-15     -0.12732632E-08      0.38327420E-19      0.61043895E-10      0.23135070E-20
    0.069045992387         0.16417461E-03     -0.59543769E-05      0.61305697E-15     -0.87749876E-09      0.90346436E-19      0.50027937E-10      0.34476996E-20
    0.075322900785         0.12289191E-03     -0.56473083E-05     -0.76935947E-15     -0.57105830E-09     -0.77797968E-19      0.42858975E-10      0.24710381E-20
    0.081599809184         0.84840195E-04     -0.32578511E-04      0.10050250E-14     -0.20993576E-08      0.64763761E-19      0.16504025E-10      0.32840705E-20
    0.087876717583         0.51702483E-04     -0.10061699E-03      0.54883935E-15     -0.36690325E-08      0.20013613E-19     -0.29556338E-10      0.35353178E-20
    0.094153625982         0.25287634E-04     -0.26439474E-03     -0.34641753E-14     -0.44011546E-08     -0.57665183E-19     -0.84807626E-10      0.28113996E-20
    0.100430534380         0.75283188E-05     -0.80851336E-03      0.15773823E-13     -0.37563159E-08      0.73284454E-19     -0.13196373E-09      0.37313992E-20
    0.106707442779         0.47887752E-06     -0.12727400E-01      0.17114428E-12     -0.35400722E-08      0.47603051E-19     -0.17640514E-09      0.43289992E-20
    0.112984351178         0.63130302E-05     -0.97186045E-03      0.16013672E-13     -0.33656283E-08      0.55456592E-19     -0.21865663E-09      0.50251911E-20
    0.119261259577         0.27321457E-04     -0.22492793E-03     -0.38382827E-15     -0.31936737E-08     -0.54498444E-20     -0.25874942E-09      0.49567748E-20
    0.125538167976         0.65909246E-04      0.39363586E-04     -0.81670468E-15      0.12808783E-08     -0.26575306E-19     -0.24266951E-09      0.46231532E-20
    0.131815076374         0.12459320E-03      0.30240132E-03      0.30328687E-15      0.17715590E-07      0.17767468E-19     -0.20271236E-10      0.48462028E-20
    0.138091984773         0.20599905E-03      0.50839884E-03     -0.20527017E-16      0.47004990E-07     -0.18978647E-20      0.56982079E-09      0.48223773E-20
    0.144368893172         0.31285846E-03      0.66339345E-03     -0.52302126E-17      0.89102140E-07     -0.70248378E-21      0.16883927E-08      0.48135585E-20
    0.150645801571         0.44800604E-03      0.66959134E-03      0.32461287E-16      0.12341824E-06      0.59832239E-20      0.32377627E-08      0.48886708E-20
    0.156922709970         0.61437611E-03      0.55773834E-03      0.39210227E-16      0.13533861E-06      0.95146004E-20      0.49367788E-08      0.50081153E-20
    0.163199618368         0.81499942E-03      0.40532639E-03     -0.99945478E-16      0.12545435E-06     -0.30934563E-19      0.65117096E-08      0.46197685E-20
    0.169476526767         0.10529997E-02      0.25941847E-03     -0.39224625E-16      0.99899261E-07     -0.15104981E-19      0.77658267E-08      0.44301433E-20
    0.175753435166         0.13315903E-02      0.15966804E-03     -0.63519865E-16      0.74976901E-07     -0.29827651E-19      0.87070729E-08      0.40556925E-20
    0.182030343565         0.16540703E-02      0.10180459E-03     -0.97213663E-16      0.57335053E-07     -0.54749500E-19      0.94268467E-08      0.33683773E-20
    0.188307251963         0.20238209E-02      0.68280058E-04     -0.86961183E-18      0.45482214E-07     -0.57925949E-21      0.99978221E-08      0.33611053E-20
    0.194584160362         0.24443018E-02      0.42988347E-04      0.75998004E-17      0.33468848E-07      0.59168724E-20      0.10417984E-07      0.34353847E-20
    0.200861068761         0.29190467E-02      0.24929054E-04      0.10701934E-16      0.22454002E-07      0.96394045E-20      0.10699867E-07      0.35563960E-20
    0.207137977160         0.34516601E-02      0.15507781E-04     -0.20507446E-17      0.16016242E-07     -0.21179833E-20      0.10900932E-07      0.35298072E-20
    0.213414885559         0.40458122E-02      0.12892731E-04     -0.18646714E-16      0.15148465E-07     -0.21909174E-19      0.11091103E-07      0.32547635E-20
    0.219691793957         0.47052358E-02      0.14496845E-04      0.27021721E-17      0.19243484E-07      0.35869327E-20      0.11332682E-07      0.32997932E-20
    0.225968702356         0.54337209E-02      0.16148796E-04      0.21705474E-17      0.24067549E-07      0.32349009E-20      0.11634822E-07      0.33404035E-20
    0.232245610755         0.62351112E-02      0.16710019E-04      0.14557907E-19      0.27804578E-07      0.24223579E-22      0.11983876E-07      0.33407076E-20
    0.238522519154         0.71132993E-02      0.14973944E-04      0.29541529E-17      0.27677099E-07      0.54603106E-20      0.12331329E-07      0.34092554E-20
    0.244799427552         0.80722221E-02      0.13138833E-04      0.52774904E-17      0.26852343E-07      0.10785812E-19      0.12668428E-07      0.35446585E-20
    0.251076335951         0.91158567E-02      0.11403436E-04      0.90248382E-17      0.25660795E-07      0.20308311E-19      0.12990569E-07      0.37996053E-20
    0.257353244350         0.10248215E-01      0.91120602E-05      0.64570060E-17      0.22489398E-07      0.15936482E-19      0.13272897E-07      0.39996689E-20
    0.263630152749         0.11473340E-01      0.78243730E-05     -0.56499102E-18      0.21105080E-07     -0.15239790E-20      0.13537846E-07      0.39805372E-20
    0.269907061148         0.12795300E-01      0.81362936E-05     -0.13065592E-18      0.23905922E-07     -0.38389106E-21      0.13837957E-07      0.39757179E-20
    0.276183969546         0.14218184E-01      0.85102527E-05     -0.85044032E-17      0.27153812E-07     -0.27135147E-19      0.14178841E-07      0.36350682E-20
    0.282460877945         0.15746099E-01      0.85854918E-05      0.84883589E-17      0.29663509E-07      0.29327908E-19      0.14551231E-07      0.40032454E-20
    0.288737786344         0.17383161E-01      0.97654293E-05      0.78560217E-17      0.36438387E-07      0.29313690E-19      0.15008672E-07      0.43712441E-20
    0.295014694743         0.19133494E-01      0.11780038E-04     -0.22695269E-17      0.47352184E-07     -0.91228103E-20      0.15603123E-07      0.42567180E-20
    0.301291603141         0.21001223E-01      0.14179338E-04      0.36738674E-17      0.61257067E-07      0.15871710E-19      0.16372133E-07      0.44559685E-20
    0.307568511540         0.22990470E-01      0.14937173E-04      0.39260348E-17      0.69201747E-07      0.18188748E-19      0.17240879E-07      0.46843068E-20
    0.313845419939         0.25105348E-01      0.14380762E-04      0.95168968E-18      0.71297616E-07      0.47183318E-20      0.18135936E-07      0.47435398E-20
    0.320122328338         0.27349956E-01      0.13575205E-04      0.69562060E-17      0.71883588E-07      0.36834584E-19      0.19038349E-07      0.52059544E-20
    0.326399236737         0.29728375E-01      0.12988274E-04      0.49799716E-17      0.73318935E-07      0.28111989E-19      0.19958782E-07      0.55588672E-20
    0.332676145135         0.32244665E-01      0.12330643E-04      0.33223149E-17      0.74073797E-07      0.19958122E-19      0.20888691E-07      0.58094178E-20
    0.338953053534         0.34902853E-01      0.11364289E-04     -0.66009493E-19      0.72528105E-07     -0.42127963E-21      0.21799195E-07      0.58041292E-20
    0.345229961933         0.37706937E-01      0.10323123E-04      0.41564872E-17      0.69882199E-07      0.28137266E-19      0.22676483E-07      0.61573592E-20
    0.351506870332         0.40660873E-01      0.87490338E-05     -0.25913346E-18      0.62725720E-07     -0.18578432E-20      0.23463931E-07      0.61340362E-20
    0.357783778731         0.43768576E-01      0.74389124E-05      0.14440834E-17      0.56401921E-07      0.10949057E-19      0.24171990E-07      0.62714887E-20
    0.364060687129         0.47033912E-01      0.63418015E-05      0.82312545E-18      0.50779993E-07      0.65909198E-20      0.24809473E-07      0.63542299E-20
    0.370337595528         0.50460692E-01      0.55372919E-05      0.76124931E-18      0.46762260E-07      0.64287271E-20      0.25396518E-07      0.64349349E-20
    0.376614503927         0.54052672E-01      0.47402067E-05      0.27347778E-17      0.42165774E-07      0.24326792E-19      0.25925859E-07      0.67403290E-20
    0.382891412326         0.57813541E-01      0.42856453E-05     -0.12892788E-17      0.40106323E-07     -0.12065449E-19      0.26429346E-07      0.65888616E-20
    0.389168320724         0.61746923E-01      0.43402289E-05      0.16895044E-17      0.42680858E-07      0.16614215E-19      0.26965154E-07      0.67974334E-20
    0.395445229123         0.65856368E-01      0.39836293E-05     -0.10928129E-18      0.41118099E-07     -0.11279762E-20      0.27481343E-07      0.67832730E-20
    0.401722137522         0.70145349E-01      0.28946717E-05      0.11269463E-18      0.31326732E-07      0.12196045E-20      0.27874613E-07      0.67985837E-20
    0.407999045921         0.74617255E-01      0.18453369E-05      0.16995155E-17      0.20916955E-07      0.19264064E-19      0.28137201E-07      0.70404212E-20
    0.414275954320         0.79275391E-01      0.16873514E-05      0.60122892E-18      0.20012294E-07      0.71306843E-20      0.28388432E-07      0.71299385E-20
    0.420552862718         0.84122969E-01      0.23792602E-05      0.16241980E-17      0.29497051E-07      0.20136113E-19      0.28758732E-07      0.73827236E-20
    0.426829771117         0.89163103E-01      0.33130349E-05     -0.39151930E-18      0.42894258E-07     -0.50690471E-20      0.29297219E-07      0.73190877E-20
    0.433106679516         0.94398810E-01      0.35970169E-05      0.48026050E-19      0.48591107E-07      0.64877062E-21      0.29907223E-07      0.73272323E-20
    0.439383587915         0.99833000E-01      0.35222803E-05      0.15644355E-17      0.49601737E-07      0.22030818E-19      0.30529914E-07      0.76038031E-20
    0.445660496313         0.10546847E+00      0.29792754E-05      0.59863082E-18      0.43699035E-07      0.87805206E-20      0.31078503E-07      0.77140322E-20
    0.451937404712         0.11130792E+00      0.28276840E-05      0.71092840E-18      0.43163965E-07      0.10852163E-19      0.31620376E-07      0.78502682E-20
    0.458214313111         0.11735391E+00      0.40501294E-05      0.18060385E-18      0.64289564E-07      0.28668079E-20      0.32427455E-07      0.78862576E-20
    0.464491221510         0.12360889E+00      0.44478288E-05      0.49692041E-18      0.73360607E-07      0.81959951E-20      0.33348411E-07      0.79891486E-20
    0.470768129909         0.13007518E+00      0.30055765E-05     -0.15362888E-18      0.51470435E-07     -0.26308913E-20      0.33994561E-07      0.79561209E-20
    0.477045038307         0.13675498E+00      0.21298594E-05      0.10034953E-17      0.37842285E-07      0.17829607E-19      0.34469627E-07      0.81799505E-20
    0.483321946706         0.14365034E+00      0.33603637E-05     -0.38009193E-18      0.61901206E-07     -0.70016674E-20      0.35246723E-07      0.80920529E-20
    0.489598855105         0.15076320E+00      0.42759105E-05      0.18232780E-18      0.81606777E-07      0.34797697E-20      0.36271199E-07      0.81357373E-20
    0.495875763504         0.15809533E+00      0.38807112E-05      0.38567385E-18      0.76683187E-07      0.76209484E-20      0.37233866E-07      0.82314093E-20
    0.502152671902         0.16564837E+00      0.39771893E-05      0.16360512E-18      0.81314938E-07      0.33449602E-20      0.38254679E-07      0.82734013E-20
    0.508429580301         0.17342382E+00      0.40150827E-05      0.21501625E-18      0.84881902E-07      0.45456072E-20      0.39320271E-07      0.83304660E-20
    0.514706488700         0.18142301E+00      0.38948660E-05     -0.17162678E-19      0.85087923E-07     -0.37493887E-21      0.40388449E-07      0.83257591E-20
    0.520983397099         0.18964714E+00      0.32340819E-05     -0.93335115E-18      0.72965255E-07     -0.21057662E-19      0.41304441E-07      0.80614051E-20
    0.527260305498         0.19809723E+00      0.21503398E-05     -0.20371023E-18      0.50072941E-07     -0.47436086E-20      0.41933048E-07      0.80018547E-20
    0.533537213896         0.20677417E+00      0.53753219E-06     -0.53887510E-19      0.12911560E-07     -0.12943817E-20      0.42095137E-07      0.79856052E-20
    0.539814122295         0.21567865E+00     -0.17754817E-05      0.23434543E-18     -0.43966489E-07      0.58031269E-20      0.41543190E-07      0.80584566E-20
    0.546091030694         0.22481122E+00     -0.86676656E-06      0.64393117E-20     -0.22115551E-07      0.16429905E-21      0.41265555E-07      0.80605192E-20
    0.552367939093         0.23417227E+00      0.18478869E-05      0.40363633E-18      0.48554007E-07      0.10605715E-19      0.41875094E-07      0.81936614E-20
    0.558644847491         0.24376201E+00      0.25839964E-05      0.65347583E-19      0.69881917E-07      0.17672680E-20      0.42752378E-07      0.82158474E-20
    0.564921755890         0.25358047E+00      0.40074852E-05      0.50545980E-18      0.11149159E-06      0.14062314E-19      0.44152023E-07      0.83923831E-20
    0.571198664289         0.26362751E+00      0.69898849E-05      0.53607508E-19      0.19994762E-06      0.15334578E-20      0.46662129E-07      0.84116338E-20
    0.577475572688         0.27390284E+00      0.73101108E-05      0.17397368E-18      0.21489660E-06      0.51143347E-20      0.49359902E-07      0.84758382E-20
    0.583752481087         0.28440596E+00      0.56941002E-05     -0.10379842E-18      0.17194032E-06     -0.31343204E-20      0.51518409E-07      0.84364906E-20
    0.590029389485         0.29513621E+00      0.55687712E-05     -0.20301566E-18      0.17264376E-06     -0.62939176E-20      0.53685747E-07      0.83574779E-20
    0.596306297884         0.30609274E+00      0.60932463E-05      0.21663441E-18      0.19385412E-06      0.68921347E-20      0.56119356E-07      0.84440005E-20
    0.602583206283         0.31727453E+00      0.63595551E-05     -0.52154400E-19      0.20753321E-06     -0.17019697E-20      0.58724690E-07      0.84226343E-20
    0.608860114682         0.32868038E+00      0.65226225E-05     -0.19264731E-18      0.21823338E-06     -0.64455783E-20      0.61464352E-07      0.83417176E-20
    0.615137023081         0.34030889E+00      0.68055081E-05      0.13318510E-18      0.23334831E-06      0.45666712E-20      0.64393764E-07      0.83990468E-20
    0.621413931479         0.35215848E+00      0.73628516E-05      0.19358609E-18      0.25861034E-06      0.67994532E-20      0.67640311E-07      0.84844059E-20
    0.627690839878         0.36422741E+00      0.81412064E-05     -0.15228050E-18      0.29279137E-06     -0.54766351E-20      0.71315960E-07      0.84156532E-20
    0.633967748277         0.37651372E+00      0.86640118E-05     -0.14191746E-18      0.31891530E-06     -0.52238674E-20      0.75319564E-07      0.83500737E-20
    0.640244656676         0.38901529E+00      0.86930701E-05      0.23492345E-18      0.32736826E-06      0.88468722E-20      0.79429285E-07      0.84611358E-20
    0.646521565074         0.40172981E+00      0.85844543E-05     -0.24197019E-18      0.33060271E-06     -0.93187053E-20      0.83579611E-07      0.83441504E-20
    0.652798473473         0.41465478E+00      0.87262932E-05     -0.77474504E-19      0.34354214E-06     -0.30500645E-20      0.87892376E-07      0.83058605E-20
    0.659075381872         0.42778752E+00      0.87138622E-05     -0.33510796E-19      0.35054710E-06     -0.13480948E-20      0.92293081E-07      0.82889367E-20
    0.665352290271         0.44112515E+00      0.83975080E-05      0.18659027E-18      0.34506687E-06      0.76672892E-20      0.96624987E-07      0.83851905E-20
    0.671629198670         0.45466464E+00      0.78765980E-05      0.26467418E-18      0.33047831E-06      0.11104931E-19      0.10077375E-06      0.85245998E-20
    0.677906107068         0.46840274E+00      0.73016196E-05     -0.59811057E-19      0.31268839E-06     -0.25613801E-20      0.10469918E-06      0.84924447E-20
    0.684183015467         0.48233604E+00      0.70455688E-05      0.13575412E-18      0.30784788E-06      0.59316171E-20      0.10856385E-06      0.85669091E-20
    0.690459923866         0.49646095E+00      0.71008125E-05      0.22763427E-18      0.31644435E-06      0.10144413E-19      0.11253643E-06      0.86942602E-20
    0.696736832265         0.51077368E+00      0.71689215E-05     -0.34713938E-18      0.32572886E-06     -0.15772709E-19      0.11662557E-06      0.84962525E-20
    0.703013740663         0.52527028E+00      0.71191297E-05     -0.12554166E-18      0.32967696E-06     -0.58136588E-20      0.12076428E-06      0.84232689E-20
    0.709290649062         0.53994662E+00      0.73331586E-05      0.55716751E-19      0.34598745E-06      0.26287849E-20      0.12510774E-06      0.84562702E-20
    0.715567557461         0.55479838E+00      0.79508529E-05     -0.93980559E-19      0.38206824E-06     -0.45161176E-20      0.12990416E-06      0.83995757E-20
    0.721844465860         0.56982110E+00      0.82697034E-05      0.87483590E-19      0.40460151E-06      0.42802010E-20      0.13498345E-06      0.84533085E-20
    0.728121374259         0.58501011E+00      0.75792066E-05     -0.22909566E-18      0.37742096E-06     -0.11408252E-19      0.13972152E-06      0.83100914E-20
    0.734398282657         0.60036059E+00      0.66662591E-05     -0.96783259E-19      0.33775780E-06     -0.49036949E-20      0.14396167E-06      0.82485313E-20
    0.740675191056         0.61586755E+00      0.61429369E-05      0.51990665E-19      0.31657619E-06      0.26793384E-20      0.14793591E-06      0.82821673E-20
    0.746952099455         0.63152584E+00      0.60662040E-05     -0.60457092E-19      0.31787623E-06     -0.31680228E-20      0.15192647E-06      0.82423965E-20
    0.753229007854         0.64733014E+00      0.62733064E-05      0.43974791E-19      0.33414731E-06      0.23423147E-20      0.15612130E-06      0.82718015E-20
    0.759505916252         0.66327498E+00      0.61228274E-05      0.24003783E-18      0.33140354E-06      0.12992264E-19      0.16028168E-06      0.84349040E-20
    0.765782824651         0.67935473E+00      0.54787113E-05      0.12780059E-18      0.30123961E-06      0.70269442E-20      0.16406338E-06      0.85231189E-20
